EXPLAIN
TAG	PWR800_CHARGE
TITLE	LABEL	PWR Cyclic Charge Discharge (Cell) - Charge Step	Test &Identifier
DATE	LABEL	13-7-2017	Date
TIME	LABEL	15:03:05	Time
NOTES	NOTES	2	&Notes...
	supercap test cell
	6M KOH
PSTAT	PSTAT	IFC5000-01520	Potentiostat
CAPACITY	QUANT	1.00000E-003	Capacity (A-hr)
CELLTYPE	SELECTOR	1	&Cell Type
WORKINGCONNECTION	SELECTOR	0	&Working Lead
MAXCHARGETIME	VARIABLEANDUNITS	1.00000E+002	s	1.00000E+002	second(s)	Max &Charge Time
CHARGECURRENT	QUANT	1.00000E-004	&Charge Current (A) 
VOLTAGEFINISH	TWOPARAM	F	1.00000E-003	3.60000E+003	&Voltage Finish	 I (A) < 	Max Time(s)
SAMPLETIME	QUANT	1.00000E-002	Sa&mple Period (s)
CHARGESTOPAT1	MULTIPARAM	4	1.00000E+000	Charge Stop At &1	Voltage > Limit	V
CHARGESTOPAT2	MULTIPARAM	0	0.00000E+000	Charge Stop At &2	None	N/A
AESBHCSELECTOR	TOGGLE	F	Save Both Half Cells
IRCOMP	TOGGLE	F	IR &Measure
EOC	QUANT	0	Open Circuit (V)
SEQUENCER	TOGGLE	TRUE	Run as Sequence
PSTATMODEL	IQUANT	53	Pstat Model
PSTATSECTION	LABEL	IFC5000-01520	Pstat Section
PSTATSERIALNO	LABEL	01520	Pstat Serial Number
CTRLMODE	IQUANT	0	Control Mode
ELECTROMETER	IQUANT	1	RE=0 or CS=1
IESTAB	IQUANT	0	I/E Stability
CASPEED	IQUANT	4	Control Amp Speed
CONVENTION	IQUANT	1	Current Convention
ICHRANGE	IQUANT	2	Ich Range
ICHRANGEMODE	TOGGLE	T	Ich Auto Range
ICHOFFSETENABLE	TOGGLE	F	Ich Offset Enable
ICHOFFSET	QUANT	0	Ich Offset (V)
ICHFILTER	IQUANT	1	Ich Filter
VCHRANGE	IQUANT	2	Vch Range
VCHRANGEMODE	TOGGLE	T	Vch Auto Range
VCHOFFSETENABLE	TOGGLE	F	Vch Offset Enable
VCHOFFSET	QUANT	0	Vch Offset (V)
VCHFILTER	IQUANT	1	Vch Filter
IERANGELOWERLIMIT	IQUANT	9	I/E Range Lower Limit
IERANGEMODE	TOGGLE	F	I/E AutoRange
IERANGE	IQUANT	9	I/E Range
ACHSELECT	IQUANT	1	Ach Select
ACHRANGE	IQUANT	2	Ach Range
ACHOFFSETENABLE	TOGGLE	F	Ach Offset Enable
ACHOFFSET	QUANT	0	Ach Offset (V)
ACHFILTER	IQUANT	1	Ach Filter
CABLEID	IQUANT	14	Cable ID
DCCALDATE	LABEL	5-7-2017	DC Calibration Date
ACCALDATE	LABEL	12/3/2015	AC Calibration Date
FRAMEWORKVERSION	QUANT	7.01	Framework Version
INSTRUMENTVERSION	LABEL	4.00	Instrument Version
CURVE	TABLE	104
	Pt	T	Vf	Im	Vu	Pwr	Sig	Ach	Temp	IERange	Over
	#	s	V	A	V	W	V	V	deg C	#	bits
	0	0.013333	1.54746E-001	1.00658E-004	0.00000E+000	1.55765E-005	5.99601E-002	1.54795E-001	3.57870E+000	9	...........
	1	0.026667	1.71844E-001	1.00764E-004	0.00000E+000	1.73156E-005	5.99601E-002	1.71876E-001	3.57870E+000	9	...........
	2	0.04	1.88481E-001	9.99635E-005	0.00000E+000	1.88412E-005	5.99601E-002	1.88517E-001	3.57870E+000	9	...........
	3	0.053333	2.04810E-001	1.00385E-004	0.00000E+000	2.05600E-005	5.99601E-002	2.04844E-001	3.57870E+000	9	...........
	4	0.066667	2.20902E-001	1.00543E-004	0.00000E+000	2.22101E-005	5.99601E-002	2.20946E-001	3.57870E+000	9	...........
	5	0.08	2.36814E-001	1.01217E-004	0.00000E+000	2.39696E-005	5.99601E-002	2.36855E-001	3.57870E+000	9	...........
	6	0.093333	2.52553E-001	9.99489E-005	0.00000E+000	2.52423E-005	5.99601E-002	2.52604E-001	3.57870E+000	9	...........
	7	0.106667	2.68154E-001	1.00622E-004	0.00000E+000	2.69822E-005	5.99601E-002	2.68214E-001	3.57870E+000	9	...........
	8	0.12	2.83633E-001	1.00993E-004	0.00000E+000	2.86449E-005	5.99601E-002	2.83687E-001	3.57870E+000	9	...........
	9	0.133333	2.98979E-001	1.00845E-004	0.00000E+000	3.01505E-005	5.99601E-002	2.99037E-001	3.57870E+000	9	...........
	10	0.146667	3.14212E-001	1.00597E-004	0.00000E+000	3.16087E-005	5.99601E-002	3.14270E-001	3.57870E+000	9	...........
	11	0.16	3.29322E-001	1.01033E-004	0.00000E+000	3.32726E-005	5.99601E-002	3.29387E-001	3.57870E+000	9	...........
	12	0.173333	3.44299E-001	1.01039E-004	0.00000E+000	3.47876E-005	5.99601E-002	3.44371E-001	3.57870E+000	9	...........
	13	0.186667	3.59138E-001	1.00434E-004	0.00000E+000	3.60699E-005	5.99601E-002	3.59210E-001	3.57870E+000	9	...........
	14	0.2	3.73827E-001	1.00390E-004	0.00000E+000	3.75283E-005	5.99601E-002	3.73904E-001	3.57870E+000	9	...........
	15	0.213333	3.88350E-001	1.00282E-004	0.00000E+000	3.89446E-005	5.99601E-002	3.88419E-001	3.57870E+000	9	...........
	16	0.226667	4.02684E-001	1.00679E-004	0.00000E+000	4.05419E-005	5.99601E-002	4.02768E-001	3.57870E+000	9	...........
	17	0.24	4.16826E-001	1.01082E-004	0.00000E+000	4.21338E-005	5.99601E-002	4.16911E-001	3.57870E+000	9	...........
	18	0.253333	4.30759E-001	1.00901E-004	0.00000E+000	4.34641E-005	5.99601E-002	4.30848E-001	3.57870E+000	9	...........
	19	0.266667	4.44456E-001	1.00974E-004	0.00000E+000	4.48785E-005	5.99601E-002	4.44557E-001	3.57870E+000	9	...........
	20	0.28	4.57923E-001	1.00491E-004	0.00000E+000	4.60169E-005	5.99601E-002	4.58020E-001	3.57870E+000	9	...........
	21	0.293333	4.71144E-001	1.00827E-004	0.00000E+000	4.75042E-005	5.99601E-002	4.71246E-001	3.57870E+000	9	...........
	22	0.306667	4.84104E-001	1.01639E-004	0.00000E+000	4.92038E-005	5.99601E-002	4.84208E-001	3.57870E+000	9	...........
	23	0.32	4.96796E-001	1.02067E-004	0.00000E+000	5.07065E-005	5.99601E-002	4.96904E-001	3.57870E+000	9	...........
	24	0.333333	5.09229E-001	1.00941E-004	0.00000E+000	5.14020E-005	5.99601E-002	5.09339E-001	3.57870E+000	9	...........
	25	0.346667	5.21395E-001	1.01007E-004	0.00000E+000	5.26648E-005	5.99601E-002	5.21510E-001	3.57870E+000	9	...........
	26	0.36	5.33153E-001	1.01010E-004	0.00000E+000	5.38535E-005	5.99601E-002	5.33309E-001	3.57870E+000	9	...........
	27	0.373333	5.44573E-001	1.00915E-004	0.00000E+000	5.49554E-005	5.99601E-002	5.44832E-001	3.57870E+000	9	...........
	28	0.386667	5.55936E-001	1.01104E-004	0.00000E+000	5.62075E-005	5.99601E-002	5.56224E-001	3.57870E+000	9	...........
	29	0.4	5.67072E-001	1.01077E-004	0.00000E+000	5.73181E-005	5.99601E-002	5.67365E-001	3.57870E+000	9	...........
	30	0.413333	5.77926E-001	1.01029E-004	0.00000E+000	5.83875E-005	5.99601E-002	5.78200E-001	3.57870E+000	9	...........
	31	0.426667	5.88551E-001	1.00804E-004	0.00000E+000	5.93285E-005	5.99601E-002	5.88837E-001	3.57870E+000	9	...........
	32	0.44	5.98918E-001	1.00618E-004	0.00000E+000	6.02618E-005	5.99601E-002	5.99190E-001	3.57870E+000	9	...........
	33	0.453333	6.09021E-001	1.01242E-004	0.00000E+000	6.16585E-005	5.99601E-002	6.09321E-001	3.57870E+000	9	...........
	34	0.466667	6.19023E-001	1.01879E-004	0.00000E+000	6.30657E-005	5.99601E-002	6.19254E-001	3.57870E+000	9	...........
	35	0.48	6.28693E-001	1.01917E-004	0.00000E+000	6.40744E-005	5.99601E-002	6.28952E-001	3.57870E+000	9	...........
	36	0.493333	6.38164E-001	1.01803E-004	0.00000E+000	6.49672E-005	5.99601E-002	6.38453E-001	3.57870E+000	9	...........
	37	0.506667	6.47434E-001	1.01100E-004	0.00000E+000	6.54557E-005	5.99601E-002	6.47732E-001	3.57870E+000	9	...........
	38	0.52	6.56484E-001	1.01245E-004	0.00000E+000	6.64657E-005	5.99601E-002	6.56788E-001	3.57870E+000	9	...........
	39	0.533333	6.65357E-001	1.01403E-004	0.00000E+000	6.74695E-005	5.99601E-002	6.65662E-001	3.57870E+000	9	...........
	40	0.546667	6.74041E-001	1.00370E-004	0.00000E+000	6.76533E-005	5.99601E-002	6.74317E-001	3.57870E+000	9	...........
	41	0.56	6.82540E-001	1.01412E-004	0.00000E+000	6.92175E-005	5.99601E-002	6.82797E-001	3.57870E+000	9	...........
	42	0.573333	6.90825E-001	1.00612E-004	0.00000E+000	6.95050E-005	5.99601E-002	6.91123E-001	3.57870E+000	9	...........
	43	0.586667	6.98975E-001	1.01221E-004	0.00000E+000	7.07509E-005	5.99601E-002	6.99250E-001	3.57870E+000	9	...........
	44	0.6	7.06938E-001	1.01225E-004	0.00000E+000	7.15599E-005	5.99601E-002	7.07223E-001	3.57870E+000	9	...........
	45	0.613333	7.14736E-001	1.00624E-004	0.00000E+000	7.19196E-005	5.99601E-002	7.15035E-001	3.57870E+000	9	...........
	46	0.626667	7.22431E-001	1.00608E-004	0.00000E+000	7.26826E-005	5.99601E-002	7.22711E-001	3.57870E+000	9	...........
	47	0.64	7.29927E-001	1.01086E-004	0.00000E+000	7.37851E-005	5.99601E-002	7.30205E-001	3.57870E+000	9	...........
	48	0.653333	7.37281E-001	1.01046E-004	0.00000E+000	7.44993E-005	5.99601E-002	7.37559E-001	3.57870E+000	9	...........
	49	0.666667	7.44504E-001	1.00290E-004	0.00000E+000	7.46660E-005	5.99601E-002	7.44795E-001	3.57870E+000	9	...........
	50	0.68	7.51590E-001	1.01162E-004	0.00000E+000	7.60321E-005	5.99601E-002	7.51888E-001	3.57870E+000	9	...........
	51	0.693333	7.58548E-001	1.00791E-004	0.00000E+000	7.64546E-005	5.99601E-002	7.58830E-001	3.57945E+000	9	...........
	52	0.706667	7.65357E-001	1.00874E-004	0.00000E+000	7.72046E-005	5.99601E-002	7.65680E-001	3.58020E+000	9	...........
	53	0.72	7.72066E-001	1.01431E-004	0.00000E+000	7.83117E-005	5.99601E-002	7.72377E-001	3.58020E+000	9	...........
	54	0.733333	7.78647E-001	1.01721E-004	0.00000E+000	7.92048E-005	5.99601E-002	7.78955E-001	3.58020E+000	9	...........
	55	0.746667	7.85108E-001	1.00808E-004	0.00000E+000	7.91455E-005	5.99601E-002	7.85411E-001	3.58020E+000	9	...........
	56	0.76	7.91463E-001	1.01181E-004	0.00000E+000	8.00813E-005	5.99601E-002	7.91777E-001	3.58020E+000	9	...........
	57	0.773333	7.97718E-001	1.01043E-004	0.00000E+000	8.06037E-005	5.99601E-002	7.98020E-001	3.58020E+000	9	...........
	58	0.786667	8.03828E-001	1.01387E-004	0.00000E+000	8.14975E-005	5.99601E-002	8.04171E-001	3.58020E+000	9	...........
	59	0.8	8.09852E-001	1.00551E-004	0.00000E+000	8.14315E-005	5.99601E-002	8.10181E-001	3.58020E+000	9	...........
	60	0.813333	8.15773E-001	1.01225E-004	0.00000E+000	8.25768E-005	5.99601E-002	8.16108E-001	3.58020E+000	9	...........
	61	0.826667	8.21621E-001	1.00346E-004	0.00000E+000	8.24463E-005	5.99601E-002	8.21956E-001	3.58020E+000	9	...........
	62	0.84	8.27360E-001	1.00761E-004	0.00000E+000	8.33652E-005	5.99601E-002	8.27658E-001	3.58020E+000	9	...........
	63	0.853333	8.32981E-001	1.00397E-004	0.00000E+000	8.36287E-005	5.99601E-002	8.33298E-001	3.58020E+000	9	...........
	64	0.866667	8.38529E-001	1.00890E-004	0.00000E+000	8.45989E-005	5.99601E-002	8.38833E-001	3.58020E+000	9	...........
	65	0.88	8.44002E-001	1.00790E-004	0.00000E+000	8.50667E-005	5.99601E-002	8.44323E-001	3.58020E+000	9	...........
	66	0.893333	8.49385E-001	1.00672E-004	0.00000E+000	8.55093E-005	5.99601E-002	8.49722E-001	3.58020E+000	9	...........
	67	0.906667	8.54662E-001	1.01164E-004	0.00000E+000	8.64608E-005	5.99601E-002	8.54991E-001	3.58020E+000	9	...........
	68	0.92	8.59874E-001	1.00491E-004	0.00000E+000	8.64093E-005	5.99601E-002	8.60226E-001	3.58020E+000	9	...........
	69	0.933333	8.64990E-001	1.00976E-004	0.00000E+000	8.73434E-005	5.99601E-002	8.65354E-001	3.58020E+000	9	...........
	70	0.946667	8.70063E-001	1.01477E-004	0.00000E+000	8.82917E-005	5.99601E-002	8.70408E-001	3.58020E+000	9	...........
	71	0.96	8.75010E-001	1.01281E-004	0.00000E+000	8.86223E-005	5.99601E-002	8.75391E-001	3.58020E+000	9	...........
	72	0.97333	8.79894E-001	1.00673E-004	0.00000E+000	8.85816E-005	5.99601E-002	8.80259E-001	3.58020E+000	9	...........
	73	0.98667	8.84712E-001	9.95623E-005	0.00000E+000	8.80840E-005	5.99601E-002	8.85076E-001	3.58020E+000	9	...........
	74	1	8.89448E-001	1.01676E-004	0.00000E+000	9.04358E-005	5.99601E-002	8.89814E-001	3.58020E+000	9	...........
	75	1.01333	8.94109E-001	1.00941E-004	0.00000E+000	9.02521E-005	5.99601E-002	8.94482E-001	3.58020E+000	9	...........
	76	1.02667	8.98706E-001	9.96915E-005	0.00000E+000	8.95934E-005	5.99601E-002	8.99080E-001	3.58020E+000	9	...........
	77	1.04	9.03224E-001	1.01066E-004	0.00000E+000	9.12850E-005	5.99601E-002	9.03605E-001	3.58020E+000	9	...........
	78	1.05333	9.07667E-001	1.01358E-004	0.00000E+000	9.19989E-005	5.99601E-002	9.08057E-001	3.58020E+000	9	...........
	79	1.06667	9.12062E-001	1.00753E-004	0.00000E+000	9.18932E-005	5.99601E-002	9.12433E-001	3.58020E+000	9	...........
	80	1.08	9.16389E-001	1.00818E-004	0.00000E+000	9.23883E-005	5.99601E-002	9.16769E-001	3.58020E+000	9	...........
	81	1.09333	9.20663E-001	1.01486E-004	0.00000E+000	9.34341E-005	5.99601E-002	9.21035E-001	3.58020E+000	9	...........
	82	1.10667	9.24878E-001	1.00022E-004	0.00000E+000	9.25080E-005	5.99601E-002	9.25215E-001	3.58020E+000	9	...........
	83	1.12	9.29002E-001	1.01584E-004	0.00000E+000	9.43714E-005	5.99601E-002	9.29329E-001	3.58020E+000	9	...........
	84	1.13333	9.33053E-001	1.01975E-004	0.00000E+000	9.51484E-005	5.99601E-002	9.33387E-001	3.58020E+000	9	...........
	85	1.14667	9.37034E-001	1.01189E-004	0.00000E+000	9.48173E-005	5.99601E-002	9.37407E-001	3.58020E+000	9	...........
	86	1.16	9.40978E-001	1.02518E-004	0.00000E+000	9.64673E-005	5.99601E-002	9.41331E-001	3.58020E+000	9	...........
	87	1.17333	9.44841E-001	1.00723E-004	0.00000E+000	9.51672E-005	5.99601E-002	9.45221E-001	3.58020E+000	9	...........
	88	1.18667	9.48683E-001	1.01465E-004	0.00000E+000	9.62580E-005	5.99601E-002	9.49043E-001	3.58020E+000	9	...........
	89	1.2	9.52440E-001	1.00558E-004	0.00000E+000	9.57758E-005	5.99601E-002	9.52811E-001	3.58020E+000	9	...........
	90	1.21333	9.56114E-001	1.01899E-004	0.00000E+000	9.74273E-005	5.99601E-002	9.56498E-001	3.58020E+000	9	...........
	91	1.22667	9.59747E-001	1.01182E-004	0.00000E+000	9.71096E-005	5.99601E-002	9.60145E-001	3.58020E+000	9	...........
	92	1.24	9.63311E-001	1.01110E-004	0.00000E+000	9.73999E-005	5.99601E-002	9.63720E-001	3.58020E+000	9	...........
	93	1.25333	9.66841E-001	1.00395E-004	0.00000E+000	9.70658E-005	5.99601E-002	9.67255E-001	3.58020E+000	9	...........
	94	1.26667	9.70306E-001	1.00602E-004	0.00000E+000	9.76149E-005	5.99601E-002	9.70725E-001	3.58020E+000	9	...........
	95	1.28	9.73773E-001	1.01554E-004	0.00000E+000	9.88909E-005	5.99601E-002	9.74155E-001	3.58020E+000	9	...........
	96	1.29333	9.77124E-001	1.01156E-004	0.00000E+000	9.88423E-005	5.99601E-002	9.77516E-001	3.58020E+000	9	...........
	97	1.30667	9.80440E-001	1.00579E-004	0.00000E+000	9.86119E-005	5.99601E-002	9.80813E-001	3.58020E+000	9	...........
	98	1.32	9.83690E-001	1.01324E-004	0.00000E+000	9.96716E-005	5.99601E-002	9.84074E-001	3.58020E+000	9	...........
	99	1.33333	9.86890E-001	1.01043E-004	0.00000E+000	9.97182E-005	5.99601E-002	9.87277E-001	3.58020E+000	9	...........
	100	1.34667	9.90025E-001	1.00483E-004	0.00000E+000	9.94810E-005	5.99601E-002	9.90430E-001	3.58020E+000	9	...........
	101	1.36	9.93097E-001	1.01244E-004	0.00000E+000	1.00545E-004	5.99601E-002	9.93496E-001	3.58020E+000	9	...........
	102	1.37333	9.96163E-001	1.00720E-004	0.00000E+000	1.00333E-004	5.99601E-002	9.96556E-001	3.58020E+000	9	...........
	103	1.385	9.98967E-001	1.00625E-004	0.00000E+000	1.00521E-004	5.99601E-002	9.99380E-001	3.58020E+000	9	...........
STARTTIMEOFFSET	QUANT	40.75334	Start Time Offset (s)
