EXPLAIN
TAG	PWR800_CHARGE
TITLE	LABEL	PWR Cyclic Charge Discharge (Cell) - Charge Step	Test &Identifier
DATE	LABEL	13-7-2017	Date
TIME	LABEL	15:24:28	Time
NOTES	NOTES	2	&Notes...
	supercap test cell
	6M KOH
PSTAT	PSTAT	IFC5000-01520	Potentiostat
CAPACITY	QUANT	1.00000E-003	Capacity (A-hr)
CELLTYPE	SELECTOR	1	&Cell Type
WORKINGCONNECTION	SELECTOR	0	&Working Lead
MAXCHARGETIME	VARIABLEANDUNITS	1.00000E+002	s	1.00000E+002	second(s)	Max &Charge Time
CHARGECURRENT	QUANT	1.00000E-004	&Charge Current (A) 
VOLTAGEFINISH	TWOPARAM	F	1.00000E-003	3.60000E+003	&Voltage Finish	 I (A) < 	Max Time(s)
SAMPLETIME	QUANT	1.00000E-002	Sa&mple Period (s)
CHARGESTOPAT1	MULTIPARAM	4	1.00000E+000	Charge Stop At &1	Voltage > Limit	V
CHARGESTOPAT2	MULTIPARAM	0	0.00000E+000	Charge Stop At &2	None	N/A
AESBHCSELECTOR	TOGGLE	F	Save Both Half Cells
IRCOMP	TOGGLE	F	IR &Measure
EOC	QUANT	0	Open Circuit (V)
SEQUENCER	TOGGLE	TRUE	Run as Sequence
PSTATMODEL	IQUANT	53	Pstat Model
PSTATSECTION	LABEL	IFC5000-01520	Pstat Section
PSTATSERIALNO	LABEL	01520	Pstat Serial Number
CTRLMODE	IQUANT	0	Control Mode
ELECTROMETER	IQUANT	1	RE=0 or CS=1
IESTAB	IQUANT	0	I/E Stability
CASPEED	IQUANT	4	Control Amp Speed
CONVENTION	IQUANT	1	Current Convention
ICHRANGE	IQUANT	2	Ich Range
ICHRANGEMODE	TOGGLE	T	Ich Auto Range
ICHOFFSETENABLE	TOGGLE	F	Ich Offset Enable
ICHOFFSET	QUANT	0	Ich Offset (V)
ICHFILTER	IQUANT	1	Ich Filter
VCHRANGE	IQUANT	2	Vch Range
VCHRANGEMODE	TOGGLE	T	Vch Auto Range
VCHOFFSETENABLE	TOGGLE	F	Vch Offset Enable
VCHOFFSET	QUANT	0	Vch Offset (V)
VCHFILTER	IQUANT	1	Vch Filter
IERANGELOWERLIMIT	IQUANT	9	I/E Range Lower Limit
IERANGEMODE	TOGGLE	F	I/E AutoRange
IERANGE	IQUANT	9	I/E Range
ACHSELECT	IQUANT	1	Ach Select
ACHRANGE	IQUANT	2	Ach Range
ACHOFFSETENABLE	TOGGLE	F	Ach Offset Enable
ACHOFFSET	QUANT	0	Ach Offset (V)
ACHFILTER	IQUANT	1	Ach Filter
CABLEID	IQUANT	14	Cable ID
DCCALDATE	LABEL	5-7-2017	DC Calibration Date
ACCALDATE	LABEL	12/3/2015	AC Calibration Date
FRAMEWORKVERSION	QUANT	7.01	Framework Version
INSTRUMENTVERSION	LABEL	4.00	Instrument Version
CURVE	TABLE	93
	Pt	T	Vf	Im	Vu	Pwr	Sig	Ach	Temp	IERange	Over
	#	s	V	A	V	W	V	V	deg C	#	bits
	0	0.013333	1.33225E-001	1.00908E-004	0.00000E+000	1.34435E-005	5.99601E-002	1.33268E-001	3.57850E+000	9	...........
	1	0.026667	1.48465E-001	1.00855E-004	0.00000E+000	1.49734E-005	5.99601E-002	1.48481E-001	3.57850E+000	9	...........
	2	0.04	1.63265E-001	1.00862E-004	0.00000E+000	1.64671E-005	5.99601E-002	1.63295E-001	3.57850E+000	9	...........
	3	0.053333	1.77799E-001	1.00865E-004	0.00000E+000	1.79336E-005	5.99601E-002	1.77834E-001	3.57850E+000	9	...........
	4	0.066667	1.92143E-001	1.00443E-004	0.00000E+000	1.92994E-005	5.99601E-002	1.92178E-001	3.57850E+000	9	...........
	5	0.08	2.06350E-001	1.00797E-004	0.00000E+000	2.07995E-005	5.99601E-002	2.06383E-001	3.57850E+000	9	...........
	6	0.093333	2.20446E-001	1.01093E-004	0.00000E+000	2.22855E-005	5.99601E-002	2.20485E-001	3.57850E+000	9	...........
	7	0.106667	2.34479E-001	1.00667E-004	0.00000E+000	2.36042E-005	5.99601E-002	2.34520E-001	3.57850E+000	9	...........
	8	0.12	2.48458E-001	1.01082E-004	0.00000E+000	2.51147E-005	5.99601E-002	2.48502E-001	3.57850E+000	9	...........
	9	0.133333	2.62403E-001	1.01052E-004	0.00000E+000	2.65164E-005	5.99601E-002	2.62456E-001	3.57850E+000	9	...........
	10	0.146667	2.76343E-001	1.00932E-004	0.00000E+000	2.78920E-005	5.99601E-002	2.76400E-001	3.57850E+000	9	...........
	11	0.16	2.90282E-001	1.00314E-004	0.00000E+000	2.91192E-005	5.99601E-002	2.90340E-001	3.57850E+000	9	...........
	12	0.173333	3.04228E-001	1.00916E-004	0.00000E+000	3.07014E-005	5.99601E-002	3.04284E-001	3.57850E+000	9	...........
	13	0.186667	3.18183E-001	1.00550E-004	0.00000E+000	3.19933E-005	5.99601E-002	3.18239E-001	3.57850E+000	9	...........
	14	0.2	3.32142E-001	1.00463E-004	0.00000E+000	3.33678E-005	5.99601E-002	3.32205E-001	3.57850E+000	9	...........
	15	0.213333	3.46128E-001	9.96144E-005	0.00000E+000	3.44793E-005	5.99601E-002	3.46192E-001	3.57850E+000	9	...........
	16	0.226667	3.60124E-001	1.01324E-004	0.00000E+000	3.64893E-005	5.99601E-002	3.60191E-001	3.57850E+000	9	...........
	17	0.24	3.74124E-001	1.00971E-004	0.00000E+000	3.77757E-005	5.99601E-002	3.74193E-001	3.57850E+000	9	...........
	18	0.253333	3.88119E-001	1.01036E-004	0.00000E+000	3.92138E-005	5.99601E-002	3.88196E-001	3.57850E+000	9	...........
	19	0.266667	4.02090E-001	1.00258E-004	0.00000E+000	4.03128E-005	5.99601E-002	4.02167E-001	3.57850E+000	9	...........
	20	0.28	4.16016E-001	1.00806E-004	0.00000E+000	4.19371E-005	5.99601E-002	4.16109E-001	3.57850E+000	9	...........
	21	0.293333	4.29901E-001	1.00593E-004	0.00000E+000	4.32449E-005	5.99601E-002	4.29985E-001	3.57850E+000	9	...........
	22	0.306667	4.43702E-001	1.01784E-004	0.00000E+000	4.51616E-005	5.99601E-002	4.43795E-001	3.57850E+000	9	...........
	23	0.32	4.57410E-001	1.01115E-004	0.00000E+000	4.62509E-005	5.99601E-002	4.57501E-001	3.57850E+000	9	...........
	24	0.333333	4.71005E-001	1.00499E-004	0.00000E+000	4.73355E-005	5.99601E-002	4.71101E-001	3.57850E+000	9	...........
	25	0.346667	4.84457E-001	1.00738E-004	0.00000E+000	4.88030E-005	5.99601E-002	4.84557E-001	3.57850E+000	9	...........
	26	0.36	4.97753E-001	1.00968E-004	0.00000E+000	5.02570E-005	5.99601E-002	4.97860E-001	3.57850E+000	9	...........
	27	0.373333	5.10876E-001	1.01404E-004	0.00000E+000	5.18051E-005	5.99601E-002	5.10988E-001	3.57850E+000	9	...........
	28	0.386667	5.23814E-001	1.00123E-004	0.00000E+000	5.24458E-005	5.99601E-002	5.23925E-001	3.57850E+000	9	...........
	29	0.4	5.36326E-001	1.00291E-004	0.00000E+000	5.37885E-005	5.99601E-002	5.36506E-001	3.57850E+000	9	...........
	30	0.413333	5.48724E-001	1.01255E-004	0.00000E+000	5.55613E-005	5.99601E-002	5.48994E-001	3.57850E+000	9	...........
	31	0.426667	5.61040E-001	1.00477E-004	0.00000E+000	5.63717E-005	5.99601E-002	5.61295E-001	3.57878E+000	9	...........
	32	0.44	5.73142E-001	1.00817E-004	0.00000E+000	5.77823E-005	5.99601E-002	5.73411E-001	3.57910E+000	9	...........
	33	0.453333	5.84989E-001	1.00973E-004	0.00000E+000	5.90681E-005	5.99601E-002	5.85267E-001	3.57910E+000	9	...........
	34	0.466667	5.96621E-001	1.00325E-004	0.00000E+000	5.98560E-005	5.99601E-002	5.96913E-001	3.57910E+000	9	...........
	35	0.48	6.07995E-001	1.01530E-004	0.00000E+000	6.17300E-005	5.99601E-002	6.08313E-001	3.57910E+000	9	...........
	36	0.493333	6.19250E-001	1.00825E-004	0.00000E+000	6.24360E-005	5.99601E-002	6.19484E-001	3.57910E+000	9	...........
	37	0.506667	6.30178E-001	1.00998E-004	0.00000E+000	6.36468E-005	5.99601E-002	6.30463E-001	3.57910E+000	9	...........
	38	0.52	6.40948E-001	1.00388E-004	0.00000E+000	6.43432E-005	5.99601E-002	6.41228E-001	3.57910E+000	9	...........
	39	0.533333	6.51491E-001	1.00255E-004	0.00000E+000	6.53153E-005	5.99601E-002	6.51744E-001	3.57910E+000	9	...........
	40	0.546667	6.61781E-001	1.01057E-004	0.00000E+000	6.68779E-005	5.99601E-002	6.62070E-001	3.57910E+000	9	...........
	41	0.56	6.71925E-001	1.00520E-004	0.00000E+000	6.75418E-005	5.99601E-002	6.72203E-001	3.57910E+000	9	...........
	42	0.573333	6.81818E-001	1.01285E-004	0.00000E+000	6.90577E-005	5.99601E-002	6.82107E-001	3.57910E+000	9	...........
	43	0.586667	6.91531E-001	1.02006E-004	0.00000E+000	7.05400E-005	5.99601E-002	6.91798E-001	3.57910E+000	9	...........
	44	0.6	7.01049E-001	1.01674E-004	0.00000E+000	7.12786E-005	5.99601E-002	7.01331E-001	3.57910E+000	9	...........
	45	0.613333	7.10365E-001	1.00077E-004	0.00000E+000	7.10912E-005	5.99601E-002	7.10649E-001	3.57910E+000	9	...........
	46	0.626667	7.19550E-001	1.01194E-004	0.00000E+000	7.28141E-005	5.99601E-002	7.19814E-001	3.57910E+000	9	...........
	47	0.64	7.28533E-001	1.00768E-004	0.00000E+000	7.34127E-005	5.99601E-002	7.28779E-001	3.57910E+000	9	...........
	48	0.653333	7.37294E-001	9.99249E-005	0.00000E+000	7.36740E-005	5.99601E-002	7.37570E-001	3.57910E+000	9	...........
	49	0.666667	7.45928E-001	1.01053E-004	0.00000E+000	7.53785E-005	5.99601E-002	7.46195E-001	3.57910E+000	9	...........
	50	0.68	7.54399E-001	1.01000E-004	0.00000E+000	7.61944E-005	5.99601E-002	7.54669E-001	3.57910E+000	9	...........
	51	0.693333	7.62697E-001	1.00688E-004	0.00000E+000	7.67941E-005	5.99601E-002	7.62962E-001	3.57910E+000	9	...........
	52	0.706667	7.70830E-001	1.01217E-004	0.00000E+000	7.80210E-005	5.99601E-002	7.71125E-001	3.57910E+000	9	...........
	53	0.72	7.78821E-001	1.01459E-004	0.00000E+000	7.90180E-005	5.99601E-002	7.79110E-001	3.57910E+000	9	...........
	54	0.733333	7.86661E-001	1.01237E-004	0.00000E+000	7.96389E-005	5.99601E-002	7.86954E-001	3.57910E+000	9	...........
	55	0.746667	7.94388E-001	1.00990E-004	0.00000E+000	8.02250E-005	5.99601E-002	7.94651E-001	3.57910E+000	9	...........
	56	0.76	8.01927E-001	1.01348E-004	0.00000E+000	8.12737E-005	5.99601E-002	8.02211E-001	3.57910E+000	9	...........
	57	0.773333	8.09314E-001	1.01267E-004	0.00000E+000	8.19567E-005	5.99601E-002	8.09618E-001	3.57910E+000	9	...........
	58	0.786667	8.16616E-001	1.01400E-004	0.00000E+000	8.28050E-005	5.99601E-002	8.16933E-001	3.57910E+000	9	...........
	59	0.8	8.23770E-001	1.00165E-004	0.00000E+000	8.25125E-005	5.99601E-002	8.24056E-001	3.57910E+000	9	...........
	60	0.813333	8.30773E-001	1.01701E-004	0.00000E+000	8.44908E-005	5.99601E-002	8.31082E-001	3.57910E+000	9	...........
	61	0.826667	8.37660E-001	1.01579E-004	0.00000E+000	8.50890E-005	5.99601E-002	8.37992E-001	3.57910E+000	9	...........
	62	0.84	8.44451E-001	1.00227E-004	0.00000E+000	8.46368E-005	5.99601E-002	8.44798E-001	3.57910E+000	9	...........
	63	0.853333	8.51135E-001	1.00977E-004	0.00000E+000	8.59452E-005	5.99601E-002	8.51464E-001	3.57910E+000	9	...........
	64	0.866667	8.57667E-001	1.00449E-004	0.00000E+000	8.61518E-005	5.99601E-002	8.58013E-001	3.57910E+000	9	...........
	65	0.88	8.64108E-001	1.01286E-004	0.00000E+000	8.75217E-005	5.99601E-002	8.64467E-001	3.57910E+000	9	...........
	66	0.893333	8.70436E-001	1.00605E-004	0.00000E+000	8.75704E-005	5.99601E-002	8.70786E-001	3.57910E+000	9	...........
	67	0.906667	8.76675E-001	1.00411E-004	0.00000E+000	8.80283E-005	5.99601E-002	8.77031E-001	3.57910E+000	9	...........
	68	0.92	8.82776E-001	1.01438E-004	0.00000E+000	8.95468E-005	5.99601E-002	8.83133E-001	3.57910E+000	9	...........
	69	0.933333	8.88772E-001	1.00140E-004	0.00000E+000	8.90013E-005	5.99601E-002	8.89114E-001	3.57910E+000	9	...........
	70	0.946667	8.94656E-001	1.01017E-004	0.00000E+000	9.03753E-005	5.99601E-002	8.95018E-001	3.57910E+000	9	...........
	71	0.96	9.00439E-001	1.00915E-004	0.00000E+000	9.08676E-005	5.99601E-002	9.00818E-001	3.57910E+000	9	...........
	72	0.97333	9.06126E-001	1.01171E-004	0.00000E+000	9.16737E-005	5.99601E-002	9.06520E-001	3.57910E+000	9	...........
	73	0.98667	9.11728E-001	9.99603E-005	0.00000E+000	9.11367E-005	5.99601E-002	9.12102E-001	3.57910E+000	9	...........
	74	1	9.17208E-001	1.00887E-004	0.00000E+000	9.25340E-005	5.99601E-002	9.17568E-001	3.57910E+000	9	...........
	75	1.01333	9.22640E-001	9.94863E-005	0.00000E+000	9.17900E-005	5.99601E-002	9.22970E-001	3.57910E+000	9	...........
	76	1.02667	9.27923E-001	1.00287E-004	0.00000E+000	9.30591E-005	5.99601E-002	9.28259E-001	3.57910E+000	9	...........
	77	1.04	9.33131E-001	1.00529E-004	0.00000E+000	9.38069E-005	5.99601E-002	9.33434E-001	3.57910E+000	9	...........
	78	1.05333	9.38219E-001	9.97863E-005	0.00000E+000	9.36215E-005	5.99601E-002	9.38539E-001	3.57910E+000	9	...........
	79	1.06667	9.43200E-001	1.01105E-004	0.00000E+000	9.53626E-005	5.99601E-002	9.43515E-001	3.57910E+000	9	...........
	80	1.08	9.48142E-001	1.01525E-004	0.00000E+000	9.62603E-005	5.99601E-002	9.48465E-001	3.57910E+000	9	...........
	81	1.09333	9.52944E-001	1.00724E-004	0.00000E+000	9.59843E-005	5.99601E-002	9.53281E-001	3.57910E+000	9	...........
	82	1.10667	9.57655E-001	1.01374E-004	0.00000E+000	9.70815E-005	5.99601E-002	9.57990E-001	3.57910E+000	9	...........
	83	1.12	9.62283E-001	1.01733E-004	0.00000E+000	9.78956E-005	5.99601E-002	9.62648E-001	3.57910E+000	9	...........
	84	1.13333	9.66817E-001	9.98874E-005	0.00000E+000	9.65729E-005	5.99601E-002	9.67180E-001	3.57910E+000	9	...........
	85	1.14667	9.71277E-001	1.01226E-004	0.00000E+000	9.83187E-005	5.99601E-002	9.71669E-001	3.57910E+000	9	...........
	86	1.16	9.75671E-001	1.01510E-004	0.00000E+000	9.90400E-005	5.99601E-002	9.76034E-001	3.57910E+000	9	...........
	87	1.17333	9.79950E-001	1.00373E-004	0.00000E+000	9.83604E-005	5.99601E-002	9.80296E-001	3.57910E+000	9	...........
	88	1.18667	9.84119E-001	1.01331E-004	0.00000E+000	9.97222E-005	5.99601E-002	9.84501E-001	3.57910E+000	9	...........
	89	1.2	9.88220E-001	1.00519E-004	0.00000E+000	9.93347E-005	5.99601E-002	9.88597E-001	3.57910E+000	9	...........
	90	1.21333	9.92217E-001	1.01030E-004	0.00000E+000	1.00244E-004	5.99601E-002	9.92577E-001	3.57910E+000	9	...........
	91	1.22667	9.96156E-001	1.01622E-004	0.00000E+000	1.01231E-004	5.99601E-002	9.96527E-001	3.57910E+000	9	...........
	92	1.235	9.99316E-001	1.01133E-004	0.00000E+000	1.01064E-004	5.99601E-002	9.99687E-001	3.57910E+000	9	...........
STARTTIMEOFFSET	QUANT	1016.748	Start Time Offset (s)
