EXPLAIN
TAG	PWR800_CHARGE
TITLE	LABEL	PWR Cyclic Charge Discharge (Cell) - Charge Step	Test &Identifier
DATE	LABEL	13-7-2017	Date
TIME	LABEL	15:11:32	Time
NOTES	NOTES	2	&Notes...
	supercap test cell
	6M KOH
PSTAT	PSTAT	IFC5000-01520	Potentiostat
CAPACITY	QUANT	1.00000E-003	Capacity (A-hr)
CELLTYPE	SELECTOR	1	&Cell Type
WORKINGCONNECTION	SELECTOR	0	&Working Lead
MAXCHARGETIME	VARIABLEANDUNITS	1.00000E+002	s	1.00000E+002	second(s)	Max &Charge Time
CHARGECURRENT	QUANT	1.00000E-004	&Charge Current (A) 
VOLTAGEFINISH	TWOPARAM	F	1.00000E-003	3.60000E+003	&Voltage Finish	 I (A) < 	Max Time(s)
SAMPLETIME	QUANT	1.00000E-002	Sa&mple Period (s)
CHARGESTOPAT1	MULTIPARAM	4	1.00000E+000	Charge Stop At &1	Voltage > Limit	V
CHARGESTOPAT2	MULTIPARAM	0	0.00000E+000	Charge Stop At &2	None	N/A
AESBHCSELECTOR	TOGGLE	F	Save Both Half Cells
IRCOMP	TOGGLE	F	IR &Measure
EOC	QUANT	0	Open Circuit (V)
SEQUENCER	TOGGLE	TRUE	Run as Sequence
PSTATMODEL	IQUANT	53	Pstat Model
PSTATSECTION	LABEL	IFC5000-01520	Pstat Section
PSTATSERIALNO	LABEL	01520	Pstat Serial Number
CTRLMODE	IQUANT	0	Control Mode
ELECTROMETER	IQUANT	1	RE=0 or CS=1
IESTAB	IQUANT	0	I/E Stability
CASPEED	IQUANT	4	Control Amp Speed
CONVENTION	IQUANT	1	Current Convention
ICHRANGE	IQUANT	2	Ich Range
ICHRANGEMODE	TOGGLE	T	Ich Auto Range
ICHOFFSETENABLE	TOGGLE	F	Ich Offset Enable
ICHOFFSET	QUANT	0	Ich Offset (V)
ICHFILTER	IQUANT	1	Ich Filter
VCHRANGE	IQUANT	2	Vch Range
VCHRANGEMODE	TOGGLE	T	Vch Auto Range
VCHOFFSETENABLE	TOGGLE	F	Vch Offset Enable
VCHOFFSET	QUANT	0	Vch Offset (V)
VCHFILTER	IQUANT	1	Vch Filter
IERANGELOWERLIMIT	IQUANT	9	I/E Range Lower Limit
IERANGEMODE	TOGGLE	F	I/E AutoRange
IERANGE	IQUANT	9	I/E Range
ACHSELECT	IQUANT	1	Ach Select
ACHRANGE	IQUANT	2	Ach Range
ACHOFFSETENABLE	TOGGLE	F	Ach Offset Enable
ACHOFFSET	QUANT	0	Ach Offset (V)
ACHFILTER	IQUANT	1	Ach Filter
CABLEID	IQUANT	14	Cable ID
DCCALDATE	LABEL	5-7-2017	DC Calibration Date
ACCALDATE	LABEL	12/3/2015	AC Calibration Date
FRAMEWORKVERSION	QUANT	7.01	Framework Version
INSTRUMENTVERSION	LABEL	4.00	Instrument Version
CURVE	TABLE	97
	Pt	T	Vf	Im	Vu	Pwr	Sig	Ach	Temp	IERange	Over
	#	s	V	A	V	W	V	V	deg C	#	bits
	0	0.013333	1.31259E-001	1.01499E-004	0.00000E+000	1.33227E-005	5.99601E-002	1.31311E-001	3.57870E+000	9	...........
	1	0.026667	1.46511E-001	1.00936E-004	0.00000E+000	1.47882E-005	5.99601E-002	1.46533E-001	3.57870E+000	9	...........
	2	0.04	1.61322E-001	1.00521E-004	0.00000E+000	1.62163E-005	5.99601E-002	1.61356E-001	3.57870E+000	9	...........
	3	0.053333	1.75866E-001	1.01086E-004	0.00000E+000	1.77775E-005	5.99601E-002	1.75897E-001	3.57870E+000	9	...........
	4	0.066667	1.90208E-001	1.01243E-004	0.00000E+000	1.92572E-005	5.99601E-002	1.90246E-001	3.57870E+000	9	...........
	5	0.08	2.04410E-001	1.00605E-004	0.00000E+000	2.05647E-005	5.99601E-002	2.04450E-001	3.57870E+000	9	...........
	6	0.093333	2.18502E-001	1.00593E-004	0.00000E+000	2.19797E-005	5.99601E-002	2.18544E-001	3.57870E+000	9	...........
	7	0.106667	2.32513E-001	1.00816E-004	0.00000E+000	2.34410E-005	5.99601E-002	2.32554E-001	3.57870E+000	9	...........
	8	0.12	2.46472E-001	1.01337E-004	0.00000E+000	2.49767E-005	5.99601E-002	2.46520E-001	3.57870E+000	9	...........
	9	0.133333	2.60399E-001	1.01039E-004	0.00000E+000	2.63104E-005	5.99601E-002	2.60454E-001	3.57870E+000	9	...........
	10	0.146667	2.74300E-001	1.01363E-004	0.00000E+000	2.78038E-005	5.99601E-002	2.74360E-001	3.57870E+000	9	...........
	11	0.16	2.88190E-001	1.00247E-004	0.00000E+000	2.88901E-005	5.99601E-002	2.88247E-001	3.57870E+000	9	...........
	12	0.173333	3.02072E-001	1.00330E-004	0.00000E+000	3.03069E-005	5.99601E-002	3.02130E-001	3.57870E+000	9	...........
	13	0.186667	3.15946E-001	1.00190E-004	0.00000E+000	3.16545E-005	5.99601E-002	3.16013E-001	3.57870E+000	9	...........
	14	0.2	3.29825E-001	1.01118E-004	0.00000E+000	3.33513E-005	5.99601E-002	3.29888E-001	3.57870E+000	9	...........
	15	0.213333	3.43703E-001	1.00551E-004	0.00000E+000	3.45597E-005	5.99601E-002	3.43763E-001	3.57870E+000	9	...........
	16	0.226667	3.57569E-001	1.00131E-004	0.00000E+000	3.58038E-005	5.99601E-002	3.57639E-001	3.57870E+000	9	...........
	17	0.24	3.71423E-001	1.01124E-004	0.00000E+000	3.75598E-005	5.99601E-002	3.71492E-001	3.57870E+000	9	...........
	18	0.253333	3.85254E-001	1.00434E-004	0.00000E+000	3.86927E-005	5.99601E-002	3.85319E-001	3.57870E+000	9	...........
	19	0.266667	3.99045E-001	1.01717E-004	0.00000E+000	4.05897E-005	5.99601E-002	3.99118E-001	3.57870E+000	9	...........
	20	0.28	4.12779E-001	1.00677E-004	0.00000E+000	4.15574E-005	5.99601E-002	4.12854E-001	3.57870E+000	9	...........
	21	0.293333	4.26440E-001	1.00475E-004	0.00000E+000	4.28465E-005	5.99601E-002	4.26522E-001	3.57870E+000	9	...........
	22	0.306667	4.40010E-001	1.00239E-004	0.00000E+000	4.41060E-005	5.99601E-002	4.40095E-001	3.57870E+000	9	...........
	23	0.32	4.53468E-001	1.00998E-004	0.00000E+000	4.57994E-005	5.99601E-002	4.53556E-001	3.57870E+000	9	...........
	24	0.333333	4.66796E-001	1.01494E-004	0.00000E+000	4.73770E-005	5.99601E-002	4.66890E-001	3.57870E+000	9	...........
	25	0.346667	4.79974E-001	1.01292E-004	0.00000E+000	4.86175E-005	5.99601E-002	4.80075E-001	3.57870E+000	9	...........
	26	0.36	4.92989E-001	1.01469E-004	0.00000E+000	5.00231E-005	5.99601E-002	4.93094E-001	3.57870E+000	9	...........
	27	0.373333	5.05819E-001	1.00542E-004	0.00000E+000	5.08559E-005	5.99601E-002	5.05930E-001	3.57870E+000	9	...........
	28	0.386667	5.18457E-001	1.01207E-004	0.00000E+000	5.24717E-005	5.99601E-002	5.18573E-001	3.57870E+000	9	...........
	29	0.4	5.30792E-001	1.00339E-004	0.00000E+000	5.32589E-005	5.99601E-002	5.30946E-001	3.57870E+000	9	...........
	30	0.413333	5.42773E-001	1.00646E-004	0.00000E+000	5.46279E-005	5.99601E-002	5.43022E-001	3.57870E+000	9	...........
	31	0.426667	5.54776E-001	1.02182E-004	0.00000E+000	5.66880E-005	5.99601E-002	5.55037E-001	3.57870E+000	9	...........
	32	0.44	5.66593E-001	1.00873E-004	0.00000E+000	5.71540E-005	5.99601E-002	5.66873E-001	3.57870E+000	9	...........
	33	0.453333	5.78136E-001	1.01184E-004	0.00000E+000	5.84979E-005	5.99601E-002	5.78428E-001	3.57870E+000	9	...........
	34	0.466667	5.89513E-001	1.00903E-004	0.00000E+000	5.94838E-005	5.99601E-002	5.89783E-001	3.57870E+000	9	...........
	35	0.48	6.00626E-001	1.00458E-004	0.00000E+000	6.03379E-005	5.99601E-002	6.00916E-001	3.57870E+000	9	...........
	36	0.493333	6.11530E-001	1.00856E-004	0.00000E+000	6.16767E-005	5.99601E-002	6.11848E-001	3.57870E+000	9	...........
	37	0.506667	6.22249E-001	1.01155E-004	0.00000E+000	6.29438E-005	5.99601E-002	6.22528E-001	3.57870E+000	9	...........
	38	0.52	6.32713E-001	1.01146E-004	0.00000E+000	6.39964E-005	5.99601E-002	6.33008E-001	3.57870E+000	9	...........
	39	0.533333	6.42984E-001	1.01484E-004	0.00000E+000	6.52523E-005	5.99601E-002	6.43277E-001	3.57870E+000	9	...........
	40	0.546667	6.53030E-001	1.01360E-004	0.00000E+000	6.61909E-005	5.99601E-002	6.53325E-001	3.57870E+000	9	...........
	41	0.56	6.62881E-001	1.00797E-004	0.00000E+000	6.68164E-005	5.99601E-002	6.63197E-001	3.57870E+000	9	...........
	42	0.573333	6.72584E-001	1.00607E-004	0.00000E+000	6.76669E-005	5.99601E-002	6.72854E-001	3.57870E+000	9	...........
	43	0.586667	6.82020E-001	1.01021E-004	0.00000E+000	6.88983E-005	5.99601E-002	6.82347E-001	3.57870E+000	9	...........
	44	0.6	6.91336E-001	1.01065E-004	0.00000E+000	6.98697E-005	5.99601E-002	6.91623E-001	3.57870E+000	9	...........
	45	0.613333	7.00403E-001	1.00874E-004	0.00000E+000	7.06525E-005	5.99601E-002	7.00720E-001	3.57870E+000	9	...........
	46	0.626667	7.09324E-001	1.00133E-004	0.00000E+000	7.10269E-005	5.99601E-002	7.09638E-001	3.57870E+000	9	...........
	47	0.64	7.18102E-001	1.01566E-004	0.00000E+000	7.29346E-005	5.99601E-002	7.18424E-001	3.57870E+000	9	...........
	48	0.653333	7.26686E-001	1.00949E-004	0.00000E+000	7.33583E-005	5.99601E-002	7.27008E-001	3.57870E+000	9	...........
	49	0.666667	7.35084E-001	1.01328E-004	0.00000E+000	7.44849E-005	5.99601E-002	7.35380E-001	3.57870E+000	9	...........
	50	0.68	7.43346E-001	1.00301E-004	0.00000E+000	7.45584E-005	5.99601E-002	7.43660E-001	3.57907E+000	9	...........
	51	0.693333	7.51452E-001	1.01241E-004	0.00000E+000	7.60776E-005	5.99601E-002	7.51755E-001	3.58020E+000	9	...........
	52	0.706667	7.59403E-001	1.00618E-004	0.00000E+000	7.64095E-005	5.99601E-002	7.59675E-001	3.58020E+000	9	...........
	53	0.72	7.67189E-001	1.00066E-004	0.00000E+000	7.67692E-005	5.99601E-002	7.67482E-001	3.58020E+000	9	...........
	54	0.733333	7.74854E-001	1.00864E-004	0.00000E+000	7.81546E-005	5.99601E-002	7.75132E-001	3.58020E+000	9	...........
	55	0.746667	7.82374E-001	1.01509E-004	0.00000E+000	7.94177E-005	5.99601E-002	7.82639E-001	3.58020E+000	9	...........
	56	0.76	7.89735E-001	1.00834E-004	0.00000E+000	7.96325E-005	5.99601E-002	7.90015E-001	3.58020E+000	9	...........
	57	0.773333	7.97029E-001	1.01795E-004	0.00000E+000	8.11336E-005	5.99601E-002	7.97245E-001	3.58020E+000	9	...........
	58	0.786667	8.04116E-001	1.00929E-004	0.00000E+000	8.11589E-005	5.99601E-002	8.04383E-001	3.58020E+000	9	...........
	59	0.8	8.11104E-001	1.00287E-004	0.00000E+000	8.13435E-005	5.99601E-002	8.11395E-001	3.58020E+000	9	...........
	60	0.813333	8.18001E-001	1.01087E-004	0.00000E+000	8.26890E-005	5.99601E-002	8.18301E-001	3.58020E+000	9	...........
	61	0.826667	8.24745E-001	1.00415E-004	0.00000E+000	8.28164E-005	5.99601E-002	8.25052E-001	3.58020E+000	9	...........
	62	0.84	8.31384E-001	1.01327E-004	0.00000E+000	8.42419E-005	5.99601E-002	8.31693E-001	3.58020E+000	9	...........
	63	0.853333	8.37895E-001	1.00559E-004	0.00000E+000	8.42582E-005	5.99601E-002	8.38226E-001	3.58020E+000	9	...........
	64	0.866667	8.44326E-001	1.01003E-004	0.00000E+000	8.52797E-005	5.99601E-002	8.44642E-001	3.58020E+000	9	...........
	65	0.88	8.50628E-001	1.01171E-004	0.00000E+000	8.60589E-005	5.99601E-002	8.50967E-001	3.58020E+000	9	...........
	66	0.893333	8.56809E-001	1.00026E-004	0.00000E+000	8.57032E-005	5.99601E-002	8.57178E-001	3.58020E+000	9	...........
	67	0.906667	8.62905E-001	1.01127E-004	0.00000E+000	8.72632E-005	5.99601E-002	8.63273E-001	3.58020E+000	9	...........
	68	0.92	8.68909E-001	9.99176E-005	0.00000E+000	8.68193E-005	5.99601E-002	8.69282E-001	3.58020E+000	9	...........
	69	0.933333	8.74812E-001	1.00596E-004	0.00000E+000	8.80025E-005	5.99601E-002	8.75182E-001	3.58020E+000	9	...........
	70	0.946667	8.80612E-001	1.01178E-004	0.00000E+000	8.90988E-005	5.99601E-002	8.80988E-001	3.58020E+000	9	...........
	71	0.96	8.86329E-001	1.01126E-004	0.00000E+000	8.96311E-005	5.99601E-002	8.86651E-001	3.58020E+000	9	...........
	72	0.97333	8.91892E-001	1.00839E-004	0.00000E+000	8.99372E-005	5.99601E-002	8.92249E-001	3.58020E+000	9	...........
	73	0.98667	8.97414E-001	1.01944E-004	0.00000E+000	9.14861E-005	5.99601E-002	8.97758E-001	3.58020E+000	9	...........
	74	1	9.02813E-001	1.00990E-004	0.00000E+000	9.11748E-005	5.99601E-002	9.03187E-001	3.58020E+000	9	...........
	75	1.01333	9.08137E-001	1.00298E-004	0.00000E+000	9.10843E-005	5.99601E-002	9.08494E-001	3.58020E+000	9	...........
	76	1.02667	9.13363E-001	1.00569E-004	0.00000E+000	9.18558E-005	5.99601E-002	9.13720E-001	3.58020E+000	9	...........
	77	1.04	9.18496E-001	1.01661E-004	0.00000E+000	9.33749E-005	5.99601E-002	9.18865E-001	3.58020E+000	9	...........
	78	1.05333	9.23610E-001	1.00753E-004	0.00000E+000	9.30567E-005	5.99601E-002	9.23932E-001	3.58020E+000	9	...........
	79	1.06667	9.28570E-001	1.00724E-004	0.00000E+000	9.35293E-005	5.99601E-002	9.28885E-001	3.58020E+000	9	...........
	80	1.08	9.33415E-001	1.00218E-004	0.00000E+000	9.35447E-005	5.99601E-002	9.33749E-001	3.58020E+000	9	...........
	81	1.09333	9.38183E-001	1.00629E-004	0.00000E+000	9.44086E-005	5.99601E-002	9.38556E-001	3.58020E+000	9	...........
	82	1.10667	9.42890E-001	1.00743E-004	0.00000E+000	9.49894E-005	5.99601E-002	9.43241E-001	3.58020E+000	9	...........
	83	1.12	9.47525E-001	1.00555E-004	0.00000E+000	9.52787E-005	5.99601E-002	9.47889E-001	3.58020E+000	9	...........
	84	1.13333	9.52033E-001	1.00850E-004	0.00000E+000	9.60127E-005	5.99601E-002	9.52415E-001	3.58020E+000	9	...........
	85	1.14667	9.56484E-001	1.01596E-004	0.00000E+000	9.71750E-005	5.99601E-002	9.56855E-001	3.58020E+000	9	...........
	86	1.16	9.60832E-001	1.00389E-004	0.00000E+000	9.64565E-005	5.99601E-002	9.61223E-001	3.58020E+000	9	...........
	87	1.17333	9.65114E-001	1.01931E-004	0.00000E+000	9.83746E-005	5.99601E-002	9.65481E-001	3.58020E+000	9	...........
	88	1.18667	9.69301E-001	1.01338E-004	0.00000E+000	9.82267E-005	5.99601E-002	9.69688E-001	3.58020E+000	9	...........
	89	1.2	9.73472E-001	1.00093E-004	0.00000E+000	9.74374E-005	5.99601E-002	9.73810E-001	3.58020E+000	9	...........
	90	1.21333	9.77514E-001	1.01531E-004	0.00000E+000	9.92485E-005	5.99601E-002	9.77864E-001	3.58020E+000	9	...........
	91	1.22667	9.81435E-001	1.01126E-004	0.00000E+000	9.92488E-005	5.99601E-002	9.81782E-001	3.58020E+000	9	...........
	92	1.24	9.85306E-001	1.00653E-004	0.00000E+000	9.91742E-005	5.99601E-002	9.85665E-001	3.58020E+000	9	...........
	93	1.25333	9.89103E-001	1.01300E-004	0.00000E+000	1.00196E-004	5.99601E-002	9.89480E-001	3.58020E+000	9	...........
	94	1.26667	9.92796E-001	1.00930E-004	0.00000E+000	1.00203E-004	5.99601E-002	9.93181E-001	3.58020E+000	9	...........
	95	1.28	9.96452E-001	1.01195E-004	0.00000E+000	1.00836E-004	5.99601E-002	9.96837E-001	3.58020E+000	9	...........
	96	1.28833	9.99342E-001	1.01153E-004	0.00000E+000	1.01086E-004	5.99601E-002	9.99765E-001	3.58020E+000	9	...........
STARTTIMEOFFSET	QUANT	428.8382	Start Time Offset (s)
