EXPLAIN
TAG	PWR800_DISCHARGE
TITLE	LABEL	PWR Cyclic Charge Discharge (Cell) - Discharge Step	Test &Identifier
DATE	LABEL	13-7-2017	Date
TIME	LABEL	15:46:11	Time
NOTES	NOTES	2	&Notes...
	supercap test cell
	6M KOH
PSTAT	PSTAT	IFC5000-01520	Potentiostat
CAPACITY	QUANT	1.00000E-003	Capacity (A-hr)
CELLTYPE	SELECTOR	1	&Cell Type
WORKINGCONNECTION	SELECTOR	0	&Working Lead
MAXDISCHARGETIME	VARIABLEANDUNITS	1.00000E+002	s	1.00000E+002	second(s)	Max &Discharge Time
DISCHARGEMODE	MULTIPARAM	0	1.00000E-004	&Discharge Mode	Constant Current	Amp(s)
SAMPLETIME	QUANT	1.00000E-002	Sa&mple Period (s)
DISCHARGESTOPAT1	MULTIPARAM	3	0.00000E+000	Discharge Stop At &1	Voltage < Limit	V
DISCHARGESTOPAT2	MULTIPARAM	0	0.00000E+000	Discharge Stop At &2	None	N/A
AESBHCSELECTOR	TOGGLE	F	Save Both Half Cells
IRCOMP	TOGGLE	F	IR &Measure
EOC	QUANT	0	Open Circuit (V)
SEQUENCER	TOGGLE	TRUE	Run as Sequence
PSTATMODEL	IQUANT	53	Pstat Model
PSTATSECTION	LABEL	IFC5000-01520	Pstat Section
PSTATSERIALNO	LABEL	01520	Pstat Serial Number
CTRLMODE	IQUANT	0	Control Mode
ELECTROMETER	IQUANT	1	RE=0 or CS=1
IESTAB	IQUANT	0	I/E Stability
CASPEED	IQUANT	4	Control Amp Speed
CONVENTION	IQUANT	1	Current Convention
ICHRANGE	IQUANT	2	Ich Range
ICHRANGEMODE	TOGGLE	T	Ich Auto Range
ICHOFFSETENABLE	TOGGLE	F	Ich Offset Enable
ICHOFFSET	QUANT	0	Ich Offset (V)
ICHFILTER	IQUANT	1	Ich Filter
VCHRANGE	IQUANT	2	Vch Range
VCHRANGEMODE	TOGGLE	T	Vch Auto Range
VCHOFFSETENABLE	TOGGLE	F	Vch Offset Enable
VCHOFFSET	QUANT	0	Vch Offset (V)
VCHFILTER	IQUANT	1	Vch Filter
IERANGELOWERLIMIT	IQUANT	9	I/E Range Lower Limit
IERANGEMODE	TOGGLE	F	I/E AutoRange
IERANGE	IQUANT	9	I/E Range
ACHSELECT	IQUANT	1	Ach Select
ACHRANGE	IQUANT	2	Ach Range
ACHOFFSETENABLE	TOGGLE	F	Ach Offset Enable
ACHOFFSET	QUANT	0	Ach Offset (V)
ACHFILTER	IQUANT	1	Ach Filter
CABLEID	IQUANT	14	Cable ID
DCCALDATE	LABEL	5-7-2017	DC Calibration Date
ACCALDATE	LABEL	12/3/2015	AC Calibration Date
FRAMEWORKVERSION	QUANT	7.01	Framework Version
INSTRUMENTVERSION	LABEL	4.00	Instrument Version
CURVE	TABLE	86
	Pt	T	Vf	Im	Vu	Pwr	Sig	Ach	Temp	IERange	Over
	#	s	V	A	V	W	V	V	deg C	#	bits
	0	0.013333	8.45466E-001	-9.91072E-005	0.00000E+000	-8.37918E-005	-5.99601E-002	8.45787E-001	3.58000E+000	9	...........
	1	0.026667	8.31122E-001	-9.81737E-005	0.00000E+000	-8.15944E-005	-5.99601E-002	8.31446E-001	3.58000E+000	9	...........
	2	0.04	8.17644E-001	-9.81258E-005	0.00000E+000	-8.02319E-005	-5.99601E-002	8.17971E-001	3.58000E+000	9	...........
	3	0.053333	8.04736E-001	-9.96136E-005	0.00000E+000	-8.01627E-005	-5.99601E-002	8.05045E-001	3.58000E+000	9	...........
	4	0.066667	7.92229E-001	-9.90802E-005	0.00000E+000	-7.84942E-005	-5.99601E-002	7.92542E-001	3.58000E+000	9	...........
	5	0.08	7.80017E-001	-9.96355E-005	0.00000E+000	-7.77174E-005	-5.99601E-002	7.80304E-001	3.58000E+000	9	...........
	6	0.093333	7.68000E-001	-9.86248E-005	0.00000E+000	-7.57439E-005	-5.99601E-002	7.68307E-001	3.58000E+000	9	...........
	7	0.106667	7.56170E-001	-9.87707E-005	0.00000E+000	-7.46874E-005	-5.99601E-002	7.56437E-001	3.58000E+000	9	...........
	8	0.12	7.44457E-001	-9.90354E-005	0.00000E+000	-7.37275E-005	-5.99601E-002	7.44731E-001	3.58000E+000	9	...........
	9	0.133333	7.32806E-001	-9.88478E-005	0.00000E+000	-7.24363E-005	-5.99601E-002	7.33091E-001	3.58000E+000	9	...........
	10	0.146667	7.21279E-001	-9.92354E-005	0.00000E+000	-7.15764E-005	-5.99601E-002	7.21553E-001	3.58000E+000	9	...........
	11	0.16	7.09755E-001	-9.90656E-005	0.00000E+000	-7.03123E-005	-5.99601E-002	7.10049E-001	3.58000E+000	9	...........
	12	0.173333	6.98323E-001	-9.90729E-005	0.00000E+000	-6.91849E-005	-5.99601E-002	6.98614E-001	3.58000E+000	9	...........
	13	0.186667	6.86904E-001	-9.91687E-005	0.00000E+000	-6.81194E-005	-5.99601E-002	6.87200E-001	3.58000E+000	9	...........
	14	0.2	6.75536E-001	-9.84904E-005	0.00000E+000	-6.65339E-005	-5.99601E-002	6.75822E-001	3.58000E+000	9	...........
	15	0.213333	6.64184E-001	-9.93688E-005	0.00000E+000	-6.59992E-005	-5.99601E-002	6.64480E-001	3.58000E+000	9	...........
	16	0.226667	6.52860E-001	-9.87978E-005	0.00000E+000	-6.45011E-005	-5.99601E-002	6.53139E-001	3.58000E+000	9	...........
	17	0.24	6.41547E-001	-9.92927E-005	0.00000E+000	-6.37010E-005	-5.99601E-002	6.41836E-001	3.58000E+000	9	...........
	18	0.253333	6.30258E-001	-9.84363E-005	0.00000E+000	-6.20403E-005	-5.99601E-002	6.30524E-001	3.58000E+000	9	...........
	19	0.266667	6.19035E-001	-9.91781E-005	0.00000E+000	-6.13947E-005	-5.99601E-002	6.19294E-001	3.58000E+000	9	...........
	20	0.28	6.07731E-001	-9.90291E-005	0.00000E+000	-6.01831E-005	-5.99601E-002	6.08045E-001	3.58000E+000	9	...........
	21	0.293333	5.96571E-001	-9.85665E-005	0.00000E+000	-5.88019E-005	-5.99601E-002	5.96862E-001	3.58000E+000	9	...........
	22	0.306667	5.85398E-001	-9.88770E-005	0.00000E+000	-5.78824E-005	-5.99601E-002	5.85678E-001	3.58000E+000	9	...........
	23	0.32	5.74260E-001	-9.86040E-005	0.00000E+000	-5.66243E-005	-5.99601E-002	5.74505E-001	3.58000E+000	9	...........
	24	0.333333	5.63168E-001	-9.83331E-005	0.00000E+000	-5.53781E-005	-5.99601E-002	5.63417E-001	3.58000E+000	9	...........
	25	0.346667	5.52097E-001	-9.85675E-005	0.00000E+000	-5.44188E-005	-5.99601E-002	5.52345E-001	3.58000E+000	9	...........
	26	0.36	5.41076E-001	-9.83508E-005	0.00000E+000	-5.32153E-005	-5.99601E-002	5.41307E-001	3.57947E+000	9	...........
	27	0.373333	5.30085E-001	-9.78320E-005	0.00000E+000	-5.18592E-005	-5.99601E-002	5.30305E-001	3.57860E+000	9	...........
	28	0.386667	5.19151E-001	-9.92344E-005	0.00000E+000	-5.15176E-005	-5.99601E-002	5.19374E-001	3.57860E+000	9	...........
	29	0.4	5.08245E-001	-9.95469E-005	0.00000E+000	-5.05943E-005	-5.99601E-002	5.08490E-001	3.57860E+000	9	...........
	30	0.413333	4.97420E-001	-9.92583E-005	0.00000E+000	-4.93731E-005	-5.99601E-002	4.97666E-001	3.57860E+000	9	...........
	31	0.426667	4.86764E-001	-9.91812E-005	0.00000E+000	-4.82778E-005	-5.99601E-002	4.86981E-001	3.57860E+000	9	...........
	32	0.44	4.76357E-001	-9.80153E-005	0.00000E+000	-4.66903E-005	-5.99601E-002	4.76453E-001	3.57860E+000	9	...........
	33	0.453333	4.65721E-001	-9.88905E-005	0.00000E+000	-4.60554E-005	-5.99601E-002	4.65811E-001	3.57860E+000	9	...........
	34	0.466667	4.55155E-001	-9.93208E-005	0.00000E+000	-4.52063E-005	-5.99601E-002	4.55243E-001	3.57860E+000	9	...........
	35	0.48	4.44654E-001	-9.89260E-005	0.00000E+000	-4.39878E-005	-5.99601E-002	4.44741E-001	3.57860E+000	9	...........
	36	0.493333	4.34221E-001	-9.93260E-005	0.00000E+000	-4.31295E-005	-5.99601E-002	4.34308E-001	3.57860E+000	9	...........
	37	0.506667	4.23856E-001	-9.82216E-005	0.00000E+000	-4.16319E-005	-5.99601E-002	4.23944E-001	3.57860E+000	9	...........
	38	0.52	4.13570E-001	-9.94969E-005	0.00000E+000	-4.11489E-005	-5.99601E-002	4.13645E-001	3.57860E+000	9	...........
	39	0.533333	4.03352E-001	-9.84206E-005	0.00000E+000	-3.96982E-005	-5.99601E-002	4.03420E-001	3.57860E+000	9	...........
	40	0.546667	3.93195E-001	-9.91208E-005	0.00000E+000	-3.89738E-005	-5.99601E-002	3.93261E-001	3.57860E+000	9	...........
	41	0.56	3.83102E-001	-9.97761E-005	0.00000E+000	-3.82244E-005	-5.99601E-002	3.83164E-001	3.57860E+000	9	...........
	42	0.573333	3.73076E-001	-9.91354E-005	0.00000E+000	-3.69851E-005	-5.99601E-002	3.73139E-001	3.57860E+000	9	...........
	43	0.586667	3.63120E-001	-9.90083E-005	0.00000E+000	-3.59519E-005	-5.99601E-002	3.63190E-001	3.57860E+000	9	...........
	44	0.6	3.53228E-001	-9.96303E-005	0.00000E+000	-3.51922E-005	-5.99601E-002	3.53292E-001	3.57860E+000	9	...........
	45	0.613333	3.43390E-001	-9.92771E-005	0.00000E+000	-3.40908E-005	-5.99601E-002	3.43457E-001	3.57860E+000	9	...........
	46	0.626667	3.33619E-001	-9.85102E-005	0.00000E+000	-3.28649E-005	-5.99601E-002	3.33684E-001	3.57860E+000	9	...........
	47	0.64	3.23916E-001	-9.92573E-005	0.00000E+000	-3.21510E-005	-5.99601E-002	3.23973E-001	3.57860E+000	9	...........
	48	0.653333	3.14263E-001	-9.90833E-005	0.00000E+000	-3.11382E-005	-5.99601E-002	3.14324E-001	3.57860E+000	9	...........
	49	0.666667	3.04668E-001	-9.90479E-005	0.00000E+000	-3.01767E-005	-5.99601E-002	3.04722E-001	3.57860E+000	9	...........
	50	0.68	2.95122E-001	-9.85509E-005	0.00000E+000	-2.90846E-005	-5.99601E-002	2.95178E-001	3.57860E+000	9	...........
	51	0.693333	2.85643E-001	-9.81956E-005	0.00000E+000	-2.80489E-005	-5.99601E-002	2.85693E-001	3.57860E+000	9	...........
	52	0.706667	2.76213E-001	-9.94500E-005	0.00000E+000	-2.74694E-005	-5.99601E-002	2.76261E-001	3.57860E+000	9	...........
	53	0.72	2.66826E-001	-9.86196E-005	0.00000E+000	-2.63143E-005	-5.99601E-002	2.66877E-001	3.57860E+000	9	...........
	54	0.733333	2.57494E-001	-1.00111E-004	0.00000E+000	-2.57779E-005	-5.99601E-002	2.57537E-001	3.57860E+000	9	...........
	55	0.746667	2.48222E-001	-9.85415E-005	0.00000E+000	-2.44602E-005	-5.99601E-002	2.48263E-001	3.57860E+000	9	...........
	56	0.76	2.38995E-001	-9.90062E-005	0.00000E+000	-2.36620E-005	-5.99601E-002	2.39031E-001	3.57860E+000	9	...........
	57	0.773333	2.29816E-001	-9.80518E-005	0.00000E+000	-2.25338E-005	-5.99601E-002	2.29855E-001	3.57860E+000	9	...........
	58	0.786667	2.20694E-001	-9.91489E-005	0.00000E+000	-2.18816E-005	-5.99601E-002	2.20728E-001	3.57860E+000	9	...........
	59	0.8	2.11623E-001	-9.86926E-005	0.00000E+000	-2.08856E-005	-5.99601E-002	2.11656E-001	3.57860E+000	9	...........
	60	0.813333	2.02607E-001	-9.85207E-005	0.00000E+000	-1.99609E-005	-5.99601E-002	2.02641E-001	3.57860E+000	9	...........
	61	0.826667	1.93650E-001	-9.84946E-005	0.00000E+000	-1.90735E-005	-5.99601E-002	1.93680E-001	3.57860E+000	9	...........
	62	0.84	1.84755E-001	-9.88978E-005	0.00000E+000	-1.82719E-005	-5.99601E-002	1.84784E-001	3.57860E+000	9	...........
	63	0.853333	1.75922E-001	-9.76767E-005	0.00000E+000	-1.71835E-005	-5.99601E-002	1.75950E-001	3.57860E+000	9	...........
	64	0.866667	1.67156E-001	-9.87019E-005	0.00000E+000	-1.64987E-005	-5.99601E-002	1.67182E-001	3.57860E+000	9	...........
	65	0.88	1.58465E-001	-9.90187E-005	0.00000E+000	-1.56910E-005	-5.99601E-002	1.58480E-001	3.57860E+000	9	...........
	66	0.893333	1.49831E-001	-9.95011E-005	0.00000E+000	-1.49084E-005	-5.99601E-002	1.49847E-001	3.57860E+000	9	...........
	67	0.906667	1.41266E-001	-9.91208E-005	0.00000E+000	-1.40024E-005	-5.99601E-002	1.41287E-001	3.57860E+000	9	...........
	68	0.92	1.32785E-001	-9.83675E-005	0.00000E+000	-1.30618E-005	-5.99601E-002	1.32797E-001	3.57860E+000	9	...........
	69	0.933333	1.24372E-001	-9.86717E-005	0.00000E+000	-1.22720E-005	-5.99601E-002	1.24387E-001	3.57860E+000	9	...........
	70	0.946667	1.16042E-001	-9.91020E-005	0.00000E+000	-1.15000E-005	-5.99601E-002	1.16048E-001	3.57860E+000	9	...........
	71	0.96	1.07783E-001	-9.87311E-005	0.00000E+000	-1.06415E-005	-5.99601E-002	1.07789E-001	3.57860E+000	9	...........
	72	0.97333	9.96003E-002	-9.93813E-005	0.00000E+000	-9.89841E-006	-5.99601E-002	9.96092E-002	3.57860E+000	9	...........
	73	0.98667	9.14965E-002	-9.91531E-005	0.00000E+000	-9.07216E-006	-5.99601E-002	9.14981E-002	3.57860E+000	9	...........
	74	1	8.34647E-002	-9.84175E-005	0.00000E+000	-8.21439E-006	-5.99601E-002	8.34655E-002	3.57860E+000	9	...........
	75	1.01333	7.55118E-002	-9.92958E-005	0.00000E+000	-7.49801E-006	-5.99601E-002	7.55060E-002	3.57860E+000	9	...........
	76	1.02667	6.76223E-002	-9.81466E-005	0.00000E+000	-6.63690E-006	-5.99601E-002	6.76187E-002	3.57860E+000	9	...........
	77	1.04	5.98018E-002	-9.99939E-005	0.00000E+000	-5.97981E-006	-5.99601E-002	5.97997E-002	3.57860E+000	9	...........
	78	1.05333	5.20640E-002	-9.84873E-005	0.00000E+000	-5.12765E-006	-5.99601E-002	5.20544E-002	3.57860E+000	9	...........
	79	1.06667	4.44268E-002	-9.89978E-005	0.00000E+000	-4.39816E-006	-5.99601E-002	4.44117E-002	3.57860E+000	9	...........
	80	1.08	3.68152E-002	-9.86644E-005	0.00000E+000	-3.63235E-006	-5.99601E-002	3.68061E-002	3.57860E+000	9	...........
	81	1.09333	2.92763E-002	-9.79049E-005	0.00000E+000	-2.86629E-006	-5.99601E-002	2.92552E-002	3.57860E+000	9	...........
	82	1.10667	2.18013E-002	-9.94094E-005	0.00000E+000	-2.16725E-006	-5.99601E-002	2.17781E-002	3.57860E+000	9	...........
	83	1.12	1.43976E-002	-9.86269E-005	0.00000E+000	-1.41999E-006	-5.99601E-002	1.43714E-002	3.57860E+000	9	...........
	84	1.13333	7.05565E-003	-9.86217E-005	0.00000E+000	-6.95841E-007	-5.99601E-002	7.02713E-003	3.57860E+000	9	...........
	85	1.14167	1.14393E-003	-9.90203E-005	0.00000E+000	-1.13272E-007	-5.99601E-002	1.10430E-003	3.57860E+000	9	...........
STARTTIMEOFFSET	QUANT	1995.693	Start Time Offset (s)
