EXPLAIN
TAG	PWR800_DISCHARGE
TITLE	LABEL	PWR Cyclic Charge Discharge (Cell) - Discharge Step	Test &Identifier
DATE	LABEL	13-7-2017	Date
TIME	LABEL	15:36:14	Time
NOTES	NOTES	2	&Notes...
	supercap test cell
	6M KOH
PSTAT	PSTAT	IFC5000-01520	Potentiostat
CAPACITY	QUANT	1.00000E-003	Capacity (A-hr)
CELLTYPE	SELECTOR	1	&Cell Type
WORKINGCONNECTION	SELECTOR	0	&Working Lead
MAXDISCHARGETIME	VARIABLEANDUNITS	1.00000E+002	s	1.00000E+002	second(s)	Max &Discharge Time
DISCHARGEMODE	MULTIPARAM	0	1.00000E-004	&Discharge Mode	Constant Current	Amp(s)
SAMPLETIME	QUANT	1.00000E-002	Sa&mple Period (s)
DISCHARGESTOPAT1	MULTIPARAM	3	0.00000E+000	Discharge Stop At &1	Voltage < Limit	V
DISCHARGESTOPAT2	MULTIPARAM	0	0.00000E+000	Discharge Stop At &2	None	N/A
AESBHCSELECTOR	TOGGLE	F	Save Both Half Cells
IRCOMP	TOGGLE	F	IR &Measure
EOC	QUANT	0	Open Circuit (V)
SEQUENCER	TOGGLE	TRUE	Run as Sequence
PSTATMODEL	IQUANT	53	Pstat Model
PSTATSECTION	LABEL	IFC5000-01520	Pstat Section
PSTATSERIALNO	LABEL	01520	Pstat Serial Number
CTRLMODE	IQUANT	0	Control Mode
ELECTROMETER	IQUANT	1	RE=0 or CS=1
IESTAB	IQUANT	0	I/E Stability
CASPEED	IQUANT	4	Control Amp Speed
CONVENTION	IQUANT	1	Current Convention
ICHRANGE	IQUANT	2	Ich Range
ICHRANGEMODE	TOGGLE	T	Ich Auto Range
ICHOFFSETENABLE	TOGGLE	F	Ich Offset Enable
ICHOFFSET	QUANT	0	Ich Offset (V)
ICHFILTER	IQUANT	1	Ich Filter
VCHRANGE	IQUANT	2	Vch Range
VCHRANGEMODE	TOGGLE	T	Vch Auto Range
VCHOFFSETENABLE	TOGGLE	F	Vch Offset Enable
VCHOFFSET	QUANT	0	Vch Offset (V)
VCHFILTER	IQUANT	1	Vch Filter
IERANGELOWERLIMIT	IQUANT	9	I/E Range Lower Limit
IERANGEMODE	TOGGLE	F	I/E AutoRange
IERANGE	IQUANT	9	I/E Range
ACHSELECT	IQUANT	1	Ach Select
ACHRANGE	IQUANT	2	Ach Range
ACHOFFSETENABLE	TOGGLE	F	Ach Offset Enable
ACHOFFSET	QUANT	0	Ach Offset (V)
ACHFILTER	IQUANT	1	Ach Filter
CABLEID	IQUANT	14	Cable ID
DCCALDATE	LABEL	5-7-2017	DC Calibration Date
ACCALDATE	LABEL	12/3/2015	AC Calibration Date
FRAMEWORKVERSION	QUANT	7.01	Framework Version
INSTRUMENTVERSION	LABEL	4.00	Instrument Version
CURVE	TABLE	87
	Pt	T	Vf	Im	Vu	Pwr	Sig	Ach	Temp	IERange	Over
	#	s	V	A	V	W	V	V	deg C	#	bits
	0	0.013333	8.46949E-001	-9.89176E-005	0.00000E+000	-8.37782E-005	-5.99601E-002	8.47278E-001	3.57940E+000	9	...........
	1	0.026667	8.32844E-001	-9.83362E-005	0.00000E+000	-8.18988E-005	-5.99601E-002	8.33148E-001	3.57940E+000	9	...........
	2	0.04	8.19599E-001	-9.94969E-005	0.00000E+000	-8.15476E-005	-5.99601E-002	8.19896E-001	3.57940E+000	9	...........
	3	0.053333	8.06876E-001	-9.85967E-005	0.00000E+000	-7.95553E-005	-5.99601E-002	8.07162E-001	3.57940E+000	9	...........
	4	0.066667	7.94578E-001	-9.89801E-005	0.00000E+000	-7.86474E-005	-5.99601E-002	7.94859E-001	3.57940E+000	9	...........
	5	0.08	7.82571E-001	-1.00235E-004	0.00000E+000	-7.84406E-005	-5.99601E-002	7.82840E-001	3.57940E+000	9	...........
	6	0.093333	7.70763E-001	-9.96740E-005	0.00000E+000	-7.68250E-005	-5.99601E-002	7.71051E-001	3.57940E+000	9	...........
	7	0.106667	7.59127E-001	-9.91166E-005	0.00000E+000	-7.52421E-005	-5.99601E-002	7.59409E-001	3.57940E+000	9	...........
	8	0.12	7.47611E-001	-9.87905E-005	0.00000E+000	-7.38569E-005	-5.99601E-002	7.47891E-001	3.57940E+000	9	...........
	9	0.133333	7.36174E-001	-9.83446E-005	0.00000E+000	-7.23987E-005	-5.99601E-002	7.36473E-001	3.57940E+000	9	...........
	10	0.146667	7.24879E-001	-9.86051E-005	0.00000E+000	-7.14768E-005	-5.99601E-002	7.25131E-001	3.57940E+000	9	...........
	11	0.16	7.13540E-001	-9.86040E-005	0.00000E+000	-7.03579E-005	-5.99601E-002	7.13850E-001	3.57940E+000	9	...........
	12	0.173333	7.02289E-001	-9.76965E-005	0.00000E+000	-6.86112E-005	-5.99601E-002	7.02600E-001	3.57940E+000	9	...........
	13	0.186667	6.91117E-001	-9.94448E-005	0.00000E+000	-6.87280E-005	-5.99601E-002	6.91388E-001	3.57940E+000	9	...........
	14	0.2	6.79928E-001	-9.88905E-005	0.00000E+000	-6.72384E-005	-5.99601E-002	6.80224E-001	3.57940E+000	9	...........
	15	0.213333	6.68761E-001	-9.82039E-005	0.00000E+000	-6.56750E-005	-5.99601E-002	6.69070E-001	3.57940E+000	9	...........
	16	0.226667	6.57631E-001	-9.97094E-005	0.00000E+000	-6.55720E-005	-5.99601E-002	6.57955E-001	3.57940E+000	9	...........
	17	0.24	6.46550E-001	-9.88082E-005	0.00000E+000	-6.38845E-005	-5.99601E-002	6.46843E-001	3.57940E+000	9	...........
	18	0.253333	6.35448E-001	-9.86009E-005	0.00000E+000	-6.26557E-005	-5.99601E-002	6.35766E-001	3.57940E+000	9	...........
	19	0.266667	6.24386E-001	-9.88186E-005	0.00000E+000	-6.17010E-005	-5.99601E-002	6.24674E-001	3.57940E+000	9	...........
	20	0.28	6.13337E-001	-9.87759E-005	0.00000E+000	-6.05829E-005	-5.99601E-002	6.13618E-001	3.57940E+000	9	...........
	21	0.293333	6.02289E-001	-9.88968E-005	0.00000E+000	-5.95644E-005	-5.99601E-002	6.02601E-001	3.57940E+000	9	...........
	22	0.306667	5.91329E-001	-9.88009E-005	0.00000E+000	-5.84238E-005	-5.99601E-002	5.91580E-001	3.57940E+000	9	...........
	23	0.32	5.80336E-001	-9.89291E-005	0.00000E+000	-5.74121E-005	-5.99601E-002	5.80618E-001	3.57940E+000	9	...........
	24	0.333333	5.69419E-001	-9.98470E-005	0.00000E+000	-5.68548E-005	-5.99601E-002	5.69673E-001	3.57940E+000	9	...........
	25	0.346667	5.58484E-001	-9.83790E-005	0.00000E+000	-5.49431E-005	-5.99601E-002	5.58758E-001	3.57940E+000	9	...........
	26	0.36	5.47628E-001	-9.88687E-005	0.00000E+000	-5.41432E-005	-5.99601E-002	5.47875E-001	3.57940E+000	9	...........
	27	0.373333	5.36790E-001	-9.84040E-005	0.00000E+000	-5.28223E-005	-5.99601E-002	5.37022E-001	3.57940E+000	9	...........
	28	0.386667	5.25975E-001	-9.90572E-005	0.00000E+000	-5.21016E-005	-5.99601E-002	5.26232E-001	3.57940E+000	9	...........
	29	0.4	5.15241E-001	-9.87040E-005	0.00000E+000	-5.08563E-005	-5.99601E-002	5.15482E-001	3.57940E+000	9	...........
	30	0.413333	5.04493E-001	-9.91124E-005	0.00000E+000	-5.00015E-005	-5.99601E-002	5.04729E-001	3.57940E+000	9	...........
	31	0.426667	4.93863E-001	-9.84373E-005	0.00000E+000	-4.86145E-005	-5.99601E-002	4.94065E-001	3.57940E+000	9	...........
	32	0.44	4.83503E-001	-9.89478E-005	0.00000E+000	-4.78416E-005	-5.99601E-002	4.83614E-001	3.57940E+000	9	...........
	33	0.453333	4.73105E-001	-9.83029E-005	0.00000E+000	-4.65076E-005	-5.99601E-002	4.73204E-001	3.57940E+000	9	...........
	34	0.466667	4.62628E-001	-9.91489E-005	0.00000E+000	-4.58691E-005	-5.99601E-002	4.62720E-001	3.57940E+000	9	...........
	35	0.48	4.52212E-001	-9.92156E-005	0.00000E+000	-4.48665E-005	-5.99601E-002	4.52302E-001	3.57940E+000	9	...........
	36	0.493333	4.41861E-001	-9.83519E-005	0.00000E+000	-4.34578E-005	-5.99601E-002	4.41949E-001	3.57940E+000	9	...........
	37	0.506667	4.31572E-001	-9.92208E-005	0.00000E+000	-4.28209E-005	-5.99601E-002	4.31652E-001	3.57940E+000	9	...........
	38	0.52	4.21344E-001	-9.86478E-005	0.00000E+000	-4.15647E-005	-5.99601E-002	4.21425E-001	3.57940E+000	9	...........
	39	0.533333	4.11180E-001	-9.81133E-005	0.00000E+000	-4.03422E-005	-5.99601E-002	4.11263E-001	3.57940E+000	9	...........
	40	0.546667	4.01088E-001	-9.91520E-005	0.00000E+000	-3.97687E-005	-5.99601E-002	4.01163E-001	3.57940E+000	9	...........
	41	0.56	3.91050E-001	-9.95167E-005	0.00000E+000	-3.89161E-005	-5.99601E-002	3.91124E-001	3.57940E+000	9	...........
	42	0.573333	3.81071E-001	-9.97074E-005	0.00000E+000	-3.79956E-005	-5.99601E-002	3.81151E-001	3.57940E+000	9	...........
	43	0.586667	3.71163E-001	-9.95990E-005	0.00000E+000	-3.69675E-005	-5.99601E-002	3.71233E-001	3.57940E+000	9	...........
	44	0.6	3.61314E-001	-9.85696E-005	0.00000E+000	-3.56146E-005	-5.99601E-002	3.61385E-001	3.57940E+000	9	...........
	45	0.613333	3.51528E-001	-9.87936E-005	0.00000E+000	-3.47287E-005	-5.99601E-002	3.51598E-001	3.57940E+000	9	...........
	46	0.626667	3.41806E-001	-9.84790E-005	0.00000E+000	-3.36607E-005	-5.99601E-002	3.41866E-001	3.57940E+000	9	...........
	47	0.64	3.32134E-001	-9.75944E-005	0.00000E+000	-3.24144E-005	-5.99601E-002	3.32198E-001	3.57940E+000	9	...........
	48	0.653333	3.22520E-001	-9.92364E-005	0.00000E+000	-3.20057E-005	-5.99601E-002	3.22579E-001	3.57940E+000	9	...........
	49	0.666667	3.12955E-001	-9.92208E-005	0.00000E+000	-3.10517E-005	-5.99601E-002	3.13013E-001	3.57940E+000	9	...........
	50	0.68	3.03443E-001	-9.83227E-005	0.00000E+000	-2.98353E-005	-5.99601E-002	3.03503E-001	3.57940E+000	9	...........
	51	0.693333	2.93986E-001	-9.85446E-005	0.00000E+000	-2.89707E-005	-5.99601E-002	2.94038E-001	3.57940E+000	9	...........
	52	0.706667	2.84573E-001	-9.87051E-005	0.00000E+000	-2.80888E-005	-5.99601E-002	2.84629E-001	3.57940E+000	9	...........
	53	0.72	2.75218E-001	-9.88072E-005	0.00000E+000	-2.71935E-005	-5.99601E-002	2.75272E-001	3.57940E+000	9	...........
	54	0.733333	2.65908E-001	-9.91781E-005	0.00000E+000	-2.63723E-005	-5.99601E-002	2.65957E-001	3.57940E+000	9	...........
	55	0.746667	2.56643E-001	-9.92531E-005	0.00000E+000	-2.54726E-005	-5.99601E-002	2.56693E-001	3.57940E+000	9	...........
	56	0.76	2.47432E-001	-9.85050E-005	0.00000E+000	-2.43733E-005	-5.99601E-002	2.47478E-001	3.57940E+000	9	...........
	57	0.773333	2.38268E-001	-9.91302E-005	0.00000E+000	-2.36195E-005	-5.99601E-002	2.38308E-001	3.57940E+000	9	...........
	58	0.786667	2.29154E-001	-9.87968E-005	0.00000E+000	-2.26397E-005	-5.99601E-002	2.29188E-001	3.57940E+000	9	...........
	59	0.8	2.20083E-001	-9.95323E-005	0.00000E+000	-2.19054E-005	-5.99601E-002	2.20118E-001	3.57940E+000	9	...........
	60	0.813333	2.11065E-001	-9.90770E-005	0.00000E+000	-2.09117E-005	-5.99601E-002	2.11097E-001	3.57940E+000	9	...........
	61	0.826667	2.02098E-001	-9.93885E-005	0.00000E+000	-2.00862E-005	-5.99601E-002	2.02129E-001	3.57940E+000	9	...........
	62	0.84	1.93186E-001	-9.89301E-005	0.00000E+000	-1.91119E-005	-5.99601E-002	1.93214E-001	3.57940E+000	9	...........
	63	0.853333	1.84337E-001	-9.85175E-005	0.00000E+000	-1.81604E-005	-5.99601E-002	1.84358E-001	3.57940E+000	9	...........
	64	0.866667	1.75533E-001	-9.97918E-005	0.00000E+000	-1.75168E-005	-5.99601E-002	1.75563E-001	3.57940E+000	9	...........
	65	0.88	1.66803E-001	-9.87353E-005	0.00000E+000	-1.64694E-005	-5.99601E-002	1.66827E-001	3.57940E+000	9	...........
	66	0.893333	1.58138E-001	-9.91052E-005	0.00000E+000	-1.56723E-005	-5.99601E-002	1.58156E-001	3.57940E+000	9	...........
	67	0.906667	1.49532E-001	-9.81956E-005	0.00000E+000	-1.46834E-005	-5.99601E-002	1.49552E-001	3.57940E+000	9	...........
	68	0.92	1.40994E-001	-9.90739E-005	0.00000E+000	-1.39688E-005	-5.99601E-002	1.41011E-001	3.57952E+000	9	...........
	69	0.933333	1.32521E-001	-9.87863E-005	0.00000E+000	-1.30913E-005	-5.99601E-002	1.32543E-001	3.57990E+000	9	...........
	70	0.946667	1.24132E-001	-9.87811E-005	0.00000E+000	-1.22619E-005	-5.99601E-002	1.24146E-001	3.57990E+000	9	...........
	71	0.96	1.15807E-001	-9.90093E-005	0.00000E+000	-1.14660E-005	-5.99601E-002	1.15820E-001	3.57990E+000	9	...........
	72	0.97333	1.07559E-001	-9.82414E-005	0.00000E+000	-1.05667E-005	-5.99601E-002	1.07570E-001	3.57990E+000	9	...........
	73	0.98667	9.93839E-002	-9.89093E-005	0.00000E+000	-9.82999E-006	-5.99601E-002	9.93910E-002	3.57990E+000	9	...........
	74	1	9.12771E-002	-9.88884E-005	0.00000E+000	-9.02625E-006	-5.99601E-002	9.12867E-002	3.57990E+000	9	...........
	75	1.01333	8.32559E-002	-9.84477E-005	0.00000E+000	-8.19636E-006	-5.99601E-002	8.32537E-002	3.57990E+000	9	...........
	76	1.02667	7.52973E-002	-9.92531E-005	0.00000E+000	-7.47349E-006	-5.99601E-002	7.52963E-002	3.57990E+000	9	...........
	77	1.04	6.74170E-002	-9.84706E-005	0.00000E+000	-6.63860E-006	-5.99601E-002	6.74138E-002	3.57990E+000	9	...........
	78	1.05333	5.96002E-002	-9.91187E-005	0.00000E+000	-5.90750E-006	-5.99601E-002	5.95982E-002	3.57990E+000	9	...........
	79	1.06667	5.18576E-002	-9.83863E-005	0.00000E+000	-5.10208E-006	-5.99601E-002	5.18513E-002	3.57990E+000	9	...........
	80	1.08	4.42220E-002	-9.89978E-005	0.00000E+000	-4.37788E-006	-5.99601E-002	4.42150E-002	3.57990E+000	9	...........
	81	1.09333	3.66133E-002	-9.88228E-005	0.00000E+000	-3.61823E-006	-5.99601E-002	3.66035E-002	3.57990E+000	9	...........
	82	1.10667	2.90761E-002	-9.87759E-005	0.00000E+000	-2.87202E-006	-5.99601E-002	2.90638E-002	3.57990E+000	9	...........
	83	1.12	2.16018E-002	-9.93479E-005	0.00000E+000	-2.14609E-006	-5.99601E-002	2.15811E-002	3.57990E+000	9	...........
	84	1.13333	1.41918E-002	-9.96938E-005	0.00000E+000	-1.41483E-006	-5.99601E-002	1.41686E-002	3.57990E+000	9	...........
	85	1.14667	6.85336E-003	-9.94990E-005	0.00000E+000	-6.81902E-007	-5.99601E-002	6.82226E-003	3.57990E+000	9	...........
	86	1.155	9.29450E-004	-9.92254E-005	0.00000E+000	-9.22250E-008	-5.99601E-002	8.98451E-004	3.57990E+000	9	...........
STARTTIMEOFFSET	QUANT	1547.419	Start Time Offset (s)
