EXPLAIN
TAG	PWR800_DISCHARGE
TITLE	LABEL	PWR Cyclic Charge Discharge (Cell) - Discharge Step	Test &Identifier
DATE	LABEL	13-7-2017	Date
TIME	LABEL	15:29:55	Time
NOTES	NOTES	2	&Notes...
	supercap test cell
	6M KOH
PSTAT	PSTAT	IFC5000-01520	Potentiostat
CAPACITY	QUANT	1.00000E-003	Capacity (A-hr)
CELLTYPE	SELECTOR	1	&Cell Type
WORKINGCONNECTION	SELECTOR	0	&Working Lead
MAXDISCHARGETIME	VARIABLEANDUNITS	1.00000E+002	s	1.00000E+002	second(s)	Max &Discharge Time
DISCHARGEMODE	MULTIPARAM	0	1.00000E-004	&Discharge Mode	Constant Current	Amp(s)
SAMPLETIME	QUANT	1.00000E-002	Sa&mple Period (s)
DISCHARGESTOPAT1	MULTIPARAM	3	0.00000E+000	Discharge Stop At &1	Voltage < Limit	V
DISCHARGESTOPAT2	MULTIPARAM	0	0.00000E+000	Discharge Stop At &2	None	N/A
AESBHCSELECTOR	TOGGLE	F	Save Both Half Cells
IRCOMP	TOGGLE	F	IR &Measure
EOC	QUANT	0	Open Circuit (V)
SEQUENCER	TOGGLE	TRUE	Run as Sequence
PSTATMODEL	IQUANT	53	Pstat Model
PSTATSECTION	LABEL	IFC5000-01520	Pstat Section
PSTATSERIALNO	LABEL	01520	Pstat Serial Number
CTRLMODE	IQUANT	0	Control Mode
ELECTROMETER	IQUANT	1	RE=0 or CS=1
IESTAB	IQUANT	0	I/E Stability
CASPEED	IQUANT	4	Control Amp Speed
CONVENTION	IQUANT	1	Current Convention
ICHRANGE	IQUANT	2	Ich Range
ICHRANGEMODE	TOGGLE	T	Ich Auto Range
ICHOFFSETENABLE	TOGGLE	F	Ich Offset Enable
ICHOFFSET	QUANT	0	Ich Offset (V)
ICHFILTER	IQUANT	1	Ich Filter
VCHRANGE	IQUANT	2	Vch Range
VCHRANGEMODE	TOGGLE	T	Vch Auto Range
VCHOFFSETENABLE	TOGGLE	F	Vch Offset Enable
VCHOFFSET	QUANT	0	Vch Offset (V)
VCHFILTER	IQUANT	1	Vch Filter
IERANGELOWERLIMIT	IQUANT	9	I/E Range Lower Limit
IERANGEMODE	TOGGLE	F	I/E AutoRange
IERANGE	IQUANT	9	I/E Range
ACHSELECT	IQUANT	1	Ach Select
ACHRANGE	IQUANT	2	Ach Range
ACHOFFSETENABLE	TOGGLE	F	Ach Offset Enable
ACHOFFSET	QUANT	0	Ach Offset (V)
ACHFILTER	IQUANT	1	Ach Filter
CABLEID	IQUANT	14	Cable ID
DCCALDATE	LABEL	5-7-2017	DC Calibration Date
ACCALDATE	LABEL	12/3/2015	AC Calibration Date
FRAMEWORKVERSION	QUANT	7.01	Framework Version
INSTRUMENTVERSION	LABEL	4.00	Instrument Version
CURVE	TABLE	88
	Pt	T	Vf	Im	Vu	Pwr	Sig	Ach	Temp	IERange	Over
	#	s	V	A	V	W	V	V	deg C	#	bits
	0	0.013333	8.49659E-001	-9.85144E-005	0.00000E+000	-8.37037E-005	-5.99601E-002	8.50002E-001	3.57910E+000	9	...........
	1	0.026667	8.35655E-001	-9.97803E-005	0.00000E+000	-8.33819E-005	-5.99601E-002	8.35967E-001	3.57910E+000	9	...........
	2	0.04	8.22528E-001	-9.81143E-005	0.00000E+000	-8.07018E-005	-5.99601E-002	8.22843E-001	3.57910E+000	9	...........
	3	0.053333	8.09983E-001	-9.90687E-005	0.00000E+000	-8.02440E-005	-5.99601E-002	8.10300E-001	3.57910E+000	9	...........
	4	0.066667	7.97806E-001	-9.83894E-005	0.00000E+000	-7.84957E-005	-5.99601E-002	7.98121E-001	3.57910E+000	9	...........
	5	0.08	7.85919E-001	-9.85655E-005	0.00000E+000	-7.74645E-005	-5.99601E-002	7.86232E-001	3.57910E+000	9	...........
	6	0.093333	7.74266E-001	-9.91656E-005	0.00000E+000	-7.67806E-005	-5.99601E-002	7.74569E-001	3.57910E+000	9	...........
	7	0.106667	7.62781E-001	-9.84206E-005	0.00000E+000	-7.50734E-005	-5.99601E-002	7.63059E-001	3.57910E+000	9	...........
	8	0.12	7.51440E-001	-9.84936E-005	0.00000E+000	-7.40120E-005	-5.99601E-002	7.51704E-001	3.57910E+000	9	...........
	9	0.133333	7.40149E-001	-9.80591E-005	0.00000E+000	-7.25783E-005	-5.99601E-002	7.40428E-001	3.57910E+000	9	...........
	10	0.146667	7.28953E-001	-9.83717E-005	0.00000E+000	-7.17084E-005	-5.99601E-002	7.29239E-001	3.57910E+000	9	...........
	11	0.16	7.17793E-001	-9.90176E-005	0.00000E+000	-7.10742E-005	-5.99601E-002	7.18091E-001	3.57910E+000	9	...........
	12	0.173333	7.06695E-001	-9.81143E-005	0.00000E+000	-6.93369E-005	-5.99601E-002	7.06973E-001	3.57910E+000	9	...........
	13	0.186667	6.95669E-001	-9.90937E-005	0.00000E+000	-6.89364E-005	-5.99601E-002	6.95918E-001	3.57910E+000	9	...........
	14	0.2	6.84604E-001	-9.84217E-005	0.00000E+000	-6.73799E-005	-5.99601E-002	6.84860E-001	3.57910E+000	9	...........
	15	0.213333	6.73624E-001	-9.90864E-005	0.00000E+000	-6.67470E-005	-5.99601E-002	6.73878E-001	3.57910E+000	9	...........
	16	0.226667	6.62611E-001	-9.92114E-005	0.00000E+000	-6.57386E-005	-5.99601E-002	6.62902E-001	3.57910E+000	9	...........
	17	0.24	6.51659E-001	-9.89770E-005	0.00000E+000	-6.44992E-005	-5.99601E-002	6.51912E-001	3.57910E+000	9	...........
	18	0.253333	6.40719E-001	-9.82498E-005	0.00000E+000	-6.29505E-005	-5.99601E-002	6.40931E-001	3.57910E+000	9	...........
	19	0.266667	6.29778E-001	-9.87811E-005	0.00000E+000	-6.22102E-005	-5.99601E-002	6.30012E-001	3.57910E+000	9	...........
	20	0.28	6.18880E-001	-9.89645E-005	0.00000E+000	-6.12472E-005	-5.99601E-002	6.19109E-001	3.57910E+000	9	...........
	21	0.293333	6.07927E-001	-9.82070E-005	0.00000E+000	-5.97028E-005	-5.99601E-002	6.08231E-001	3.57910E+000	9	...........
	22	0.306667	5.97086E-001	-9.82987E-005	0.00000E+000	-5.86928E-005	-5.99601E-002	5.97371E-001	3.57910E+000	9	...........
	23	0.32	5.86226E-001	-9.89207E-005	0.00000E+000	-5.79899E-005	-5.99601E-002	5.86497E-001	3.57910E+000	9	...........
	24	0.333333	5.75410E-001	-9.84342E-005	0.00000E+000	-5.66401E-005	-5.99601E-002	5.75666E-001	3.57910E+000	9	...........
	25	0.346667	5.64608E-001	-9.89728E-005	0.00000E+000	-5.58808E-005	-5.99601E-002	5.64869E-001	3.57910E+000	9	...........
	26	0.36	5.53834E-001	-9.95636E-005	0.00000E+000	-5.51417E-005	-5.99601E-002	5.54087E-001	3.57910E+000	9	...........
	27	0.373333	5.43122E-001	-9.89030E-005	0.00000E+000	-5.37164E-005	-5.99601E-002	5.43370E-001	3.57910E+000	9	...........
	28	0.386667	5.32393E-001	-9.86238E-005	0.00000E+000	-5.25066E-005	-5.99601E-002	5.32659E-001	3.57910E+000	9	...........
	29	0.4	5.21723E-001	-9.90843E-005	0.00000E+000	-5.16946E-005	-5.99601E-002	5.21996E-001	3.57910E+000	9	...........
	30	0.413333	5.11090E-001	-9.90781E-005	0.00000E+000	-5.06378E-005	-5.99601E-002	5.11351E-001	3.57910E+000	9	...........
	31	0.426667	5.00496E-001	-9.91781E-005	0.00000E+000	-4.96383E-005	-5.99601E-002	5.00730E-001	3.57910E+000	9	...........
	32	0.44	4.90008E-001	-9.87363E-005	0.00000E+000	-4.83815E-005	-5.99601E-002	4.90218E-001	3.57910E+000	9	...........
	33	0.453333	4.79890E-001	-9.87207E-005	0.00000E+000	-4.73751E-005	-5.99601E-002	4.79961E-001	3.57910E+000	9	...........
	34	0.466667	4.69471E-001	-9.91864E-005	0.00000E+000	-4.65652E-005	-5.99601E-002	4.69572E-001	3.57910E+000	9	...........
	35	0.48	4.59110E-001	-9.88593E-005	0.00000E+000	-4.53872E-005	-5.99601E-002	4.59204E-001	3.57910E+000	9	...........
	36	0.493333	4.48804E-001	-9.81675E-005	0.00000E+000	-4.40580E-005	-5.99601E-002	4.48896E-001	3.57910E+000	9	...........
	37	0.506667	4.38559E-001	-9.87415E-005	0.00000E+000	-4.33040E-005	-5.99601E-002	4.38650E-001	3.57910E+000	9	...........
	38	0.52	4.28369E-001	-9.95157E-005	0.00000E+000	-4.26295E-005	-5.99601E-002	4.28453E-001	3.57910E+000	9	...........
	39	0.533333	4.18246E-001	-9.79966E-005	0.00000E+000	-4.09867E-005	-5.99601E-002	4.18326E-001	3.57910E+000	9	...........
	40	0.546667	4.08194E-001	-9.85623E-005	0.00000E+000	-4.02325E-005	-5.99601E-002	4.08262E-001	3.57910E+000	9	...........
	41	0.56	3.98194E-001	-9.87499E-005	0.00000E+000	-3.93216E-005	-5.99601E-002	3.98265E-001	3.57910E+000	9	...........
	42	0.573333	3.88254E-001	-9.79247E-005	0.00000E+000	-3.80197E-005	-5.99601E-002	3.88319E-001	3.57910E+000	9	...........
	43	0.586667	3.78371E-001	-9.94886E-005	0.00000E+000	-3.76436E-005	-5.99601E-002	3.78433E-001	3.57910E+000	9	...........
	44	0.6	3.68549E-001	-9.86978E-005	0.00000E+000	-3.63750E-005	-5.99601E-002	3.68617E-001	3.57910E+000	9	...........
	45	0.613333	3.58789E-001	-9.90718E-005	0.00000E+000	-3.55459E-005	-5.99601E-002	3.58856E-001	3.57910E+000	9	...........
	46	0.626667	3.49080E-001	-9.89593E-005	0.00000E+000	-3.45447E-005	-5.99601E-002	3.49143E-001	3.57910E+000	9	...........
	47	0.64	3.39434E-001	-9.78757E-005	0.00000E+000	-3.32223E-005	-5.99601E-002	3.39492E-001	3.57910E+000	9	...........
	48	0.653333	3.29836E-001	-9.84238E-005	0.00000E+000	-3.24637E-005	-5.99601E-002	3.29896E-001	3.57910E+000	9	...........
	49	0.666667	3.20302E-001	-9.89551E-005	0.00000E+000	-3.16955E-005	-5.99601E-002	3.20358E-001	3.57910E+000	9	...........
	50	0.68	3.10806E-001	-9.93146E-005	0.00000E+000	-3.08676E-005	-5.99601E-002	3.10873E-001	3.57910E+000	9	...........
	51	0.693333	3.01365E-001	-9.94656E-005	0.00000E+000	-2.99755E-005	-5.99601E-002	3.01427E-001	3.57910E+000	9	...........
	52	0.706667	2.91979E-001	-9.85384E-005	0.00000E+000	-2.87711E-005	-5.99601E-002	2.92034E-001	3.57910E+000	9	...........
	53	0.72	2.82636E-001	-9.86634E-005	0.00000E+000	-2.78858E-005	-5.99601E-002	2.82691E-001	3.57910E+000	9	...........
	54	0.733333	2.73343E-001	-9.97011E-005	0.00000E+000	-2.72526E-005	-5.99601E-002	2.73394E-001	3.57949E+000	9	...........
	55	0.746667	2.64090E-001	-9.91052E-005	0.00000E+000	-2.61726E-005	-5.99601E-002	2.64139E-001	3.57990E+000	9	...........
	56	0.76	2.54886E-001	-9.81998E-005	0.00000E+000	-2.50298E-005	-5.99601E-002	2.54931E-001	3.57990E+000	9	...........
	57	0.773333	2.45730E-001	-9.98553E-005	0.00000E+000	-2.45374E-005	-5.99601E-002	2.45769E-001	3.57990E+000	9	...........
	58	0.786667	2.36619E-001	-9.86269E-005	0.00000E+000	-2.33370E-005	-5.99601E-002	2.36653E-001	3.57990E+000	9	...........
	59	0.8	2.27551E-001	-9.87030E-005	0.00000E+000	-2.24600E-005	-5.99601E-002	2.27588E-001	3.57990E+000	9	...........
	60	0.813333	2.18538E-001	-9.92146E-005	0.00000E+000	-2.16821E-005	-5.99601E-002	2.18570E-001	3.57990E+000	9	...........
	61	0.826667	2.09563E-001	-9.97011E-005	0.00000E+000	-2.08937E-005	-5.99601E-002	2.09597E-001	3.57990E+000	9	...........
	62	0.84	2.00647E-001	-9.92635E-005	0.00000E+000	-1.99169E-005	-5.99601E-002	2.00686E-001	3.57990E+000	9	...........
	63	0.853333	1.91782E-001	-9.77830E-005	0.00000E+000	-1.87531E-005	-5.99601E-002	1.91813E-001	3.57990E+000	9	...........
	64	0.866667	1.82971E-001	-9.93708E-005	0.00000E+000	-1.81820E-005	-5.99601E-002	1.82998E-001	3.57990E+000	9	...........
	65	0.88	1.74216E-001	-9.91968E-005	0.00000E+000	-1.72817E-005	-5.99601E-002	1.74243E-001	3.57990E+000	9	...........
	66	0.893333	1.65517E-001	-9.88822E-005	0.00000E+000	-1.63667E-005	-5.99601E-002	1.65543E-001	3.57990E+000	9	...........
	67	0.906667	1.56887E-001	-9.80278E-005	0.00000E+000	-1.53793E-005	-5.99601E-002	1.56905E-001	3.57990E+000	9	...........
	68	0.92	1.48314E-001	-9.87634E-005	0.00000E+000	-1.46480E-005	-5.99601E-002	1.48328E-001	3.57990E+000	9	...........
	69	0.933333	1.39805E-001	-9.82591E-005	0.00000E+000	-1.37371E-005	-5.99601E-002	1.39825E-001	3.57990E+000	9	...........
	70	0.946667	1.31370E-001	-9.98605E-005	0.00000E+000	-1.31186E-005	-5.99601E-002	1.31382E-001	3.57990E+000	9	...........
	71	0.96	1.23000E-001	-9.90854E-005	0.00000E+000	-1.21875E-005	-5.99601E-002	1.23017E-001	3.57990E+000	9	...........
	72	0.97333	1.14705E-001	-9.84050E-005	0.00000E+000	-1.12875E-005	-5.99601E-002	1.14717E-001	3.57990E+000	9	...........
	73	0.98667	1.06478E-001	-9.92021E-005	0.00000E+000	-1.05629E-005	-5.99601E-002	1.06486E-001	3.57990E+000	9	...........
	74	1	9.83213E-002	-9.87020E-005	0.00000E+000	-9.70451E-006	-5.99601E-002	9.83299E-002	3.57990E+000	9	...........
	75	1.01333	9.02428E-002	-9.88436E-005	0.00000E+000	-8.91992E-006	-5.99601E-002	9.02519E-002	3.57990E+000	9	...........
	76	1.02667	8.22372E-002	-9.95625E-005	0.00000E+000	-8.18775E-006	-5.99601E-002	8.22440E-002	3.57990E+000	9	...........
	77	1.04	7.43052E-002	-9.87853E-005	0.00000E+000	-7.34026E-006	-5.99601E-002	7.43014E-002	3.57990E+000	9	...........
	78	1.05333	6.64434E-002	-9.84206E-005	0.00000E+000	-6.53940E-006	-5.99601E-002	6.64449E-002	3.57990E+000	9	...........
	79	1.06667	5.86463E-002	-9.93562E-005	0.00000E+000	-5.82688E-006	-5.99601E-002	5.86448E-002	3.57990E+000	9	...........
	80	1.08	5.09255E-002	-9.93135E-005	0.00000E+000	-5.05760E-006	-5.99601E-002	5.09183E-002	3.57990E+000	9	...........
	81	1.09333	4.33037E-002	-9.87999E-005	0.00000E+000	-4.27840E-006	-5.99601E-002	4.32983E-002	3.57990E+000	9	...........
	82	1.10667	3.57146E-002	-9.94063E-005	0.00000E+000	-3.55025E-006	-5.99601E-002	3.57018E-002	3.57990E+000	9	...........
	83	1.12	2.81875E-002	-9.88197E-005	0.00000E+000	-2.78548E-006	-5.99601E-002	2.81711E-002	3.57990E+000	9	...........
	84	1.13333	2.07266E-002	-9.98095E-005	0.00000E+000	-2.06871E-006	-5.99601E-002	2.07055E-002	3.57990E+000	9	...........
	85	1.14667	1.33271E-002	-9.92969E-005	0.00000E+000	-1.32333E-006	-5.99601E-002	1.33049E-002	3.57990E+000	9	...........
	86	1.16	5.99555E-003	-9.87540E-005	0.00000E+000	-5.92085E-007	-5.99601E-002	5.96537E-003	3.57990E+000	9	...........
	87	1.16667	5.37158E-004	-9.97626E-005	0.00000E+000	-5.35882E-008	-5.99601E-002	4.96700E-004	3.57990E+000	9	...........
STARTTIMEOFFSET	QUANT	1262.486	Start Time Offset (s)
