EXPLAIN
TAG	PWR800_DISCHARGE
TITLE	LABEL	PWR Cyclic Charge Discharge (Cell) - Discharge Step	Test &Identifier
DATE	LABEL	13-7-2017	Date
TIME	LABEL	15:49:15	Time
NOTES	NOTES	2	&Notes...
	supercap test cell
	6M KOH
PSTAT	PSTAT	IFC5000-01520	Potentiostat
CAPACITY	QUANT	1.00000E-003	Capacity (A-hr)
CELLTYPE	SELECTOR	1	&Cell Type
WORKINGCONNECTION	SELECTOR	0	&Working Lead
MAXDISCHARGETIME	VARIABLEANDUNITS	1.00000E+002	s	1.00000E+002	second(s)	Max &Discharge Time
DISCHARGEMODE	MULTIPARAM	0	1.00000E-004	&Discharge Mode	Constant Current	Amp(s)
SAMPLETIME	QUANT	1.00000E-002	Sa&mple Period (s)
DISCHARGESTOPAT1	MULTIPARAM	3	0.00000E+000	Discharge Stop At &1	Voltage < Limit	V
DISCHARGESTOPAT2	MULTIPARAM	0	0.00000E+000	Discharge Stop At &2	None	N/A
AESBHCSELECTOR	TOGGLE	F	Save Both Half Cells
IRCOMP	TOGGLE	F	IR &Measure
EOC	QUANT	0	Open Circuit (V)
SEQUENCER	TOGGLE	TRUE	Run as Sequence
PSTATMODEL	IQUANT	53	Pstat Model
PSTATSECTION	LABEL	IFC5000-01520	Pstat Section
PSTATSERIALNO	LABEL	01520	Pstat Serial Number
CTRLMODE	IQUANT	0	Control Mode
ELECTROMETER	IQUANT	1	RE=0 or CS=1
IESTAB	IQUANT	0	I/E Stability
CASPEED	IQUANT	4	Control Amp Speed
CONVENTION	IQUANT	1	Current Convention
ICHRANGE	IQUANT	2	Ich Range
ICHRANGEMODE	TOGGLE	T	Ich Auto Range
ICHOFFSETENABLE	TOGGLE	F	Ich Offset Enable
ICHOFFSET	QUANT	0	Ich Offset (V)
ICHFILTER	IQUANT	1	Ich Filter
VCHRANGE	IQUANT	2	Vch Range
VCHRANGEMODE	TOGGLE	T	Vch Auto Range
VCHOFFSETENABLE	TOGGLE	F	Vch Offset Enable
VCHOFFSET	QUANT	0	Vch Offset (V)
VCHFILTER	IQUANT	1	Vch Filter
IERANGELOWERLIMIT	IQUANT	9	I/E Range Lower Limit
IERANGEMODE	TOGGLE	F	I/E AutoRange
IERANGE	IQUANT	9	I/E Range
ACHSELECT	IQUANT	1	Ach Select
ACHRANGE	IQUANT	2	Ach Range
ACHOFFSETENABLE	TOGGLE	F	Ach Offset Enable
ACHOFFSET	QUANT	0	Ach Offset (V)
ACHFILTER	IQUANT	1	Ach Filter
CABLEID	IQUANT	14	Cable ID
DCCALDATE	LABEL	5-7-2017	DC Calibration Date
ACCALDATE	LABEL	12/3/2015	AC Calibration Date
FRAMEWORKVERSION	QUANT	7.01	Framework Version
INSTRUMENTVERSION	LABEL	4.00	Instrument Version
CURVE	TABLE	86
	Pt	T	Vf	Im	Vu	Pwr	Sig	Ach	Temp	IERange	Over
	#	s	V	A	V	W	V	V	deg C	#	bits
	0	0.013333	8.46015E-001	-9.97240E-005	0.00000E+000	-8.43681E-005	-5.99601E-002	8.46321E-001	3.58000E+000	9	...........
	1	0.026667	8.31785E-001	-9.88957E-005	0.00000E+000	-8.22600E-005	-5.99601E-002	8.32080E-001	3.58000E+000	9	...........
	2	0.04	8.18408E-001	-9.89582E-005	0.00000E+000	-8.09882E-005	-5.99601E-002	8.18693E-001	3.58000E+000	9	...........
	3	0.053333	8.05550E-001	-9.92323E-005	0.00000E+000	-7.99366E-005	-5.99601E-002	8.05826E-001	3.58000E+000	9	...........
	4	0.066667	7.93112E-001	-9.93927E-005	0.00000E+000	-7.88296E-005	-5.99601E-002	7.93372E-001	3.58000E+000	9	...........
	5	0.08	7.80918E-001	-9.94167E-005	0.00000E+000	-7.76362E-005	-5.99601E-002	7.81184E-001	3.58000E+000	9	...........
	6	0.093333	7.68922E-001	-9.89583E-005	0.00000E+000	-7.60912E-005	-5.99601E-002	7.69197E-001	3.58000E+000	9	...........
	7	0.106667	7.57097E-001	-9.88884E-005	0.00000E+000	-7.48682E-005	-5.99601E-002	7.57354E-001	3.58000E+000	9	...........
	8	0.12	7.45369E-001	-9.88780E-005	0.00000E+000	-7.37007E-005	-5.99601E-002	7.45641E-001	3.58000E+000	9	...........
	9	0.133333	7.33721E-001	-9.92687E-005	0.00000E+000	-7.28356E-005	-5.99601E-002	7.33996E-001	3.58000E+000	9	...........
	10	0.146667	7.22176E-001	-9.88770E-005	0.00000E+000	-7.14066E-005	-5.99601E-002	7.22444E-001	3.58000E+000	9	...........
	11	0.16	7.10629E-001	-9.91239E-005	0.00000E+000	-7.04403E-005	-5.99601E-002	7.10943E-001	3.58000E+000	9	...........
	12	0.173333	6.99175E-001	-9.93083E-005	0.00000E+000	-6.94339E-005	-5.99601E-002	6.99464E-001	3.58000E+000	9	...........
	13	0.186667	6.87747E-001	-9.86051E-005	0.00000E+000	-6.78153E-005	-5.99601E-002	6.88038E-001	3.58000E+000	9	...........
	14	0.2	6.76350E-001	-9.87311E-005	0.00000E+000	-6.67768E-005	-5.99601E-002	6.76637E-001	3.58000E+000	9	...........
	15	0.213333	6.64945E-001	-9.84394E-005	0.00000E+000	-6.54568E-005	-5.99601E-002	6.65249E-001	3.58000E+000	9	...........
	16	0.226667	6.53565E-001	-9.87968E-005	0.00000E+000	-6.45702E-005	-5.99601E-002	6.53849E-001	3.58000E+000	9	...........
	17	0.24	6.42231E-001	-9.87801E-005	0.00000E+000	-6.34397E-005	-5.99601E-002	6.42509E-001	3.58000E+000	9	...........
	18	0.253333	6.30901E-001	-9.86342E-005	0.00000E+000	-6.22284E-005	-5.99601E-002	6.31169E-001	3.58000E+000	9	...........
	19	0.266667	6.19648E-001	-9.97480E-005	0.00000E+000	-6.18086E-005	-5.99601E-002	6.19881E-001	3.58000E+000	9	...........
	20	0.28	6.08311E-001	-9.91760E-005	0.00000E+000	-6.03299E-005	-5.99601E-002	6.08593E-001	3.58000E+000	9	...........
	21	0.293333	5.97097E-001	-9.85050E-005	0.00000E+000	-5.88171E-005	-5.99601E-002	5.97348E-001	3.58000E+000	9	...........
	22	0.306667	5.85865E-001	-9.88426E-005	0.00000E+000	-5.79085E-005	-5.99601E-002	5.86127E-001	3.58000E+000	9	...........
	23	0.32	5.74686E-001	-9.82810E-005	0.00000E+000	-5.64808E-005	-5.99601E-002	5.74943E-001	3.57925E+000	9	...........
	24	0.333333	5.63530E-001	-9.87520E-005	0.00000E+000	-5.56497E-005	-5.99601E-002	5.63782E-001	3.57880E+000	9	...........
	25	0.346667	5.52399E-001	-9.89041E-005	0.00000E+000	-5.46345E-005	-5.99601E-002	5.52649E-001	3.57880E+000	9	...........
	26	0.36	5.41340E-001	-9.88780E-005	0.00000E+000	-5.35267E-005	-5.99601E-002	5.41577E-001	3.57880E+000	9	...........
	27	0.373333	5.30305E-001	-9.87540E-005	0.00000E+000	-5.23698E-005	-5.99601E-002	5.30536E-001	3.57880E+000	9	...........
	28	0.386667	5.19340E-001	-9.85227E-005	0.00000E+000	-5.11668E-005	-5.99601E-002	5.19593E-001	3.57880E+000	9	...........
	29	0.4	5.08394E-001	-9.92031E-005	0.00000E+000	-5.04343E-005	-5.99601E-002	5.08653E-001	3.57880E+000	9	...........
	30	0.413333	4.97512E-001	-9.90989E-005	0.00000E+000	-4.93028E-005	-5.99601E-002	4.97773E-001	3.57880E+000	9	...........
	31	0.426667	4.86820E-001	-9.86436E-005	0.00000E+000	-4.80217E-005	-5.99601E-002	4.87017E-001	3.57880E+000	9	...........
	32	0.44	4.76345E-001	-9.89770E-005	0.00000E+000	-4.71472E-005	-5.99601E-002	4.76442E-001	3.57880E+000	9	...........
	33	0.453333	4.65661E-001	-9.98574E-005	0.00000E+000	-4.64997E-005	-5.99601E-002	4.65752E-001	3.57880E+000	9	...........
	34	0.466667	4.55048E-001	-9.86822E-005	0.00000E+000	-4.49051E-005	-5.99601E-002	4.55142E-001	3.57880E+000	9	...........
	35	0.48	4.44503E-001	-9.91385E-005	0.00000E+000	-4.40674E-005	-5.99601E-002	4.44591E-001	3.57880E+000	9	...........
	36	0.493333	4.34031E-001	-9.83935E-005	0.00000E+000	-4.27058E-005	-5.99601E-002	4.34112E-001	3.57880E+000	9	...........
	37	0.506667	4.23625E-001	-9.95584E-005	0.00000E+000	-4.21754E-005	-5.99601E-002	4.23710E-001	3.57880E+000	9	...........
	38	0.52	4.13286E-001	-9.89312E-005	0.00000E+000	-4.08869E-005	-5.99601E-002	4.13374E-001	3.57880E+000	9	...........
	39	0.533333	4.03026E-001	-9.91052E-005	0.00000E+000	-3.99419E-005	-5.99601E-002	4.03103E-001	3.57880E+000	9	...........
	40	0.546667	3.92827E-001	-9.89437E-005	0.00000E+000	-3.88678E-005	-5.99601E-002	3.92901E-001	3.57880E+000	9	...........
	41	0.56	3.82702E-001	-9.92531E-005	0.00000E+000	-3.79844E-005	-5.99601E-002	3.82772E-001	3.57880E+000	9	...........
	42	0.573333	3.72645E-001	-9.94146E-005	0.00000E+000	-3.70463E-005	-5.99601E-002	3.72712E-001	3.57880E+000	9	...........
	43	0.586667	3.62658E-001	-9.92000E-005	0.00000E+000	-3.59756E-005	-5.99601E-002	3.62726E-001	3.57880E+000	9	...........
	44	0.6	3.52729E-001	-9.87374E-005	0.00000E+000	-3.48275E-005	-5.99601E-002	3.52802E-001	3.57880E+000	9	...........
	45	0.613333	3.42868E-001	-9.93521E-005	0.00000E+000	-3.40647E-005	-5.99601E-002	3.42934E-001	3.57880E+000	9	...........
	46	0.626667	3.33067E-001	-9.83842E-005	0.00000E+000	-3.27685E-005	-5.99601E-002	3.33132E-001	3.57880E+000	9	...........
	47	0.64	3.23332E-001	-9.84342E-005	0.00000E+000	-3.18269E-005	-5.99601E-002	3.23390E-001	3.57880E+000	9	...........
	48	0.653333	3.13647E-001	-9.84456E-005	0.00000E+000	-3.08772E-005	-5.99601E-002	3.13706E-001	3.57880E+000	9	...........
	49	0.666667	3.04021E-001	-9.88624E-005	0.00000E+000	-3.00562E-005	-5.99601E-002	3.04078E-001	3.57880E+000	9	...........
	50	0.68	2.94451E-001	-9.88113E-005	0.00000E+000	-2.90951E-005	-5.99601E-002	2.94498E-001	3.57880E+000	9	...........
	51	0.693333	2.84927E-001	-9.87426E-005	0.00000E+000	-2.81344E-005	-5.99601E-002	2.84979E-001	3.57880E+000	9	...........
	52	0.706667	2.75466E-001	-9.85655E-005	0.00000E+000	-2.71514E-005	-5.99601E-002	2.75515E-001	3.57880E+000	9	...........
	53	0.72	2.66051E-001	-9.91552E-005	0.00000E+000	-2.63803E-005	-5.99601E-002	2.66099E-001	3.57880E+000	9	...........
	54	0.733333	2.56687E-001	-9.91020E-005	0.00000E+000	-2.54382E-005	-5.99601E-002	2.56736E-001	3.57880E+000	9	...........
	55	0.746667	2.47386E-001	-9.87009E-005	0.00000E+000	-2.44172E-005	-5.99601E-002	2.47425E-001	3.57880E+000	9	...........
	56	0.76	2.38127E-001	-9.85832E-005	0.00000E+000	-2.34753E-005	-5.99601E-002	2.38169E-001	3.57880E+000	9	...........
	57	0.773333	2.28924E-001	-9.91948E-005	0.00000E+000	-2.27080E-005	-5.99601E-002	2.28963E-001	3.57880E+000	9	...........
	58	0.786667	2.19769E-001	-9.97292E-005	0.00000E+000	-2.19174E-005	-5.99601E-002	2.19809E-001	3.57880E+000	9	...........
	59	0.8	2.10682E-001	-9.84800E-005	0.00000E+000	-2.07480E-005	-5.99601E-002	2.10715E-001	3.57880E+000	9	...........
	60	0.813333	2.01643E-001	-9.81706E-005	0.00000E+000	-1.97954E-005	-5.99601E-002	2.01675E-001	3.57880E+000	9	...........
	61	0.826667	1.92665E-001	-1.00027E-004	0.00000E+000	-1.92717E-005	-5.99601E-002	1.92694E-001	3.57880E+000	9	...........
	62	0.84	1.83751E-001	-9.85509E-005	0.00000E+000	-1.81088E-005	-5.99601E-002	1.83779E-001	3.57880E+000	9	...........
	63	0.853333	1.74897E-001	-9.93646E-005	0.00000E+000	-1.73785E-005	-5.99601E-002	1.74921E-001	3.57880E+000	9	...........
	64	0.866667	1.66105E-001	-9.90791E-005	0.00000E+000	-1.64575E-005	-5.99601E-002	1.66128E-001	3.57880E+000	9	...........
	65	0.88	1.57382E-001	-9.91614E-005	0.00000E+000	-1.56062E-005	-5.99601E-002	1.57401E-001	3.57880E+000	9	...........
	66	0.893333	1.48731E-001	-9.93052E-005	0.00000E+000	-1.47698E-005	-5.99601E-002	1.48749E-001	3.57880E+000	9	...........
	67	0.906667	1.40147E-001	-9.93219E-005	0.00000E+000	-1.39197E-005	-5.99601E-002	1.40167E-001	3.57880E+000	9	...........
	68	0.92	1.31641E-001	-9.84727E-005	0.00000E+000	-1.29631E-005	-5.99601E-002	1.31655E-001	3.57880E+000	9	...........
	69	0.933333	1.23211E-001	-9.88197E-005	0.00000E+000	-1.21757E-005	-5.99601E-002	1.23225E-001	3.57880E+000	9	...........
	70	0.946667	1.14856E-001	-9.78684E-005	0.00000E+000	-1.12408E-005	-5.99601E-002	1.14869E-001	3.57880E+000	9	...........
	71	0.96	1.06578E-001	-9.96855E-005	0.00000E+000	-1.06243E-005	-5.99601E-002	1.06583E-001	3.57880E+000	9	...........
	72	0.97333	9.83699E-002	-9.91646E-005	0.00000E+000	-9.75480E-006	-5.99601E-002	9.83764E-002	3.57880E+000	9	...........
	73	0.98667	9.02429E-002	-9.86155E-005	0.00000E+000	-8.89935E-006	-5.99601E-002	9.02542E-002	3.57880E+000	9	...........
	74	1	8.21958E-002	-9.92562E-005	0.00000E+000	-8.15845E-006	-5.99601E-002	8.21975E-002	3.57880E+000	9	...........
	75	1.01333	7.42162E-002	-9.83758E-005	0.00000E+000	-7.30108E-006	-5.99601E-002	7.42178E-002	3.57880E+000	9	...........
	76	1.02667	6.63111E-002	-9.90354E-005	0.00000E+000	-6.56715E-006	-5.99601E-002	6.63106E-002	3.57880E+000	9	...........
	77	1.04	5.84784E-002	-9.91312E-005	0.00000E+000	-5.79703E-006	-5.99601E-002	5.84721E-002	3.57880E+000	9	...........
	78	1.05333	5.07171E-002	-9.99293E-005	0.00000E+000	-5.06813E-006	-5.99601E-002	5.07129E-002	3.57880E+000	9	...........
	79	1.06667	4.30564E-002	-9.87728E-005	0.00000E+000	-4.25280E-006	-5.99601E-002	4.30527E-002	3.57880E+000	9	...........
	80	1.08	3.54358E-002	-9.84373E-005	0.00000E+000	-3.48821E-006	-5.99601E-002	3.54256E-002	3.57880E+000	9	...........
	81	1.09333	2.78851E-002	-9.85498E-005	0.00000E+000	-2.74808E-006	-5.99601E-002	2.78666E-002	3.57880E+000	9	...........
	82	1.10667	2.03969E-002	-9.90239E-005	0.00000E+000	-2.01978E-006	-5.99601E-002	2.03761E-002	3.57880E+000	9	...........
	83	1.12	1.29729E-002	-9.87447E-005	0.00000E+000	-1.28100E-006	-5.99601E-002	1.29468E-002	3.57880E+000	9	...........
	84	1.13333	5.62214E-003	-9.91166E-005	0.00000E+000	-5.57247E-007	-5.99601E-002	5.58931E-003	3.57880E+000	9	...........
	85	1.13833	6.06801E-004	-9.97744E-005	0.00000E+000	-6.05432E-008	-5.99601E-002	5.67895E-004	3.57880E+000	9	...........
STARTTIMEOFFSET	QUANT	2133.447	Start Time Offset (s)
