EXPLAIN
TAG	PWR800_DISCHARGE
TITLE	LABEL	PWR Cyclic Charge Discharge (Cell) - Discharge Step	Test &Identifier
DATE	LABEL	13-7-2017	Date
TIME	LABEL	15:47:33	Time
NOTES	NOTES	2	&Notes...
	supercap test cell
	6M KOH
PSTAT	PSTAT	IFC5000-01520	Potentiostat
CAPACITY	QUANT	1.00000E-003	Capacity (A-hr)
CELLTYPE	SELECTOR	1	&Cell Type
WORKINGCONNECTION	SELECTOR	0	&Working Lead
MAXDISCHARGETIME	VARIABLEANDUNITS	1.00000E+002	s	1.00000E+002	second(s)	Max &Discharge Time
DISCHARGEMODE	MULTIPARAM	0	1.00000E-004	&Discharge Mode	Constant Current	Amp(s)
SAMPLETIME	QUANT	1.00000E-002	Sa&mple Period (s)
DISCHARGESTOPAT1	MULTIPARAM	3	0.00000E+000	Discharge Stop At &1	Voltage < Limit	V
DISCHARGESTOPAT2	MULTIPARAM	0	0.00000E+000	Discharge Stop At &2	None	N/A
AESBHCSELECTOR	TOGGLE	F	Save Both Half Cells
IRCOMP	TOGGLE	F	IR &Measure
EOC	QUANT	0	Open Circuit (V)
SEQUENCER	TOGGLE	TRUE	Run as Sequence
PSTATMODEL	IQUANT	53	Pstat Model
PSTATSECTION	LABEL	IFC5000-01520	Pstat Section
PSTATSERIALNO	LABEL	01520	Pstat Serial Number
CTRLMODE	IQUANT	0	Control Mode
ELECTROMETER	IQUANT	1	RE=0 or CS=1
IESTAB	IQUANT	0	I/E Stability
CASPEED	IQUANT	4	Control Amp Speed
CONVENTION	IQUANT	1	Current Convention
ICHRANGE	IQUANT	2	Ich Range
ICHRANGEMODE	TOGGLE	T	Ich Auto Range
ICHOFFSETENABLE	TOGGLE	F	Ich Offset Enable
ICHOFFSET	QUANT	0	Ich Offset (V)
ICHFILTER	IQUANT	1	Ich Filter
VCHRANGE	IQUANT	2	Vch Range
VCHRANGEMODE	TOGGLE	T	Vch Auto Range
VCHOFFSETENABLE	TOGGLE	F	Vch Offset Enable
VCHOFFSET	QUANT	0	Vch Offset (V)
VCHFILTER	IQUANT	1	Vch Filter
IERANGELOWERLIMIT	IQUANT	9	I/E Range Lower Limit
IERANGEMODE	TOGGLE	F	I/E AutoRange
IERANGE	IQUANT	9	I/E Range
ACHSELECT	IQUANT	1	Ach Select
ACHRANGE	IQUANT	2	Ach Range
ACHOFFSETENABLE	TOGGLE	F	Ach Offset Enable
ACHOFFSET	QUANT	0	Ach Offset (V)
ACHFILTER	IQUANT	1	Ach Filter
CABLEID	IQUANT	14	Cable ID
DCCALDATE	LABEL	5-7-2017	DC Calibration Date
ACCALDATE	LABEL	12/3/2015	AC Calibration Date
FRAMEWORKVERSION	QUANT	7.01	Framework Version
INSTRUMENTVERSION	LABEL	4.00	Instrument Version
CURVE	TABLE	86
	Pt	T	Vf	Im	Vu	Pwr	Sig	Ach	Temp	IERange	Over
	#	s	V	A	V	W	V	V	deg C	#	bits
	0	0.013333	8.46727E-001	-9.86311E-005	0.00000E+000	-8.35136E-005	-5.99601E-002	8.46994E-001	3.57940E+000	9	...........
	1	0.026667	8.32530E-001	-9.91854E-005	0.00000E+000	-8.25748E-005	-5.99601E-002	8.32821E-001	3.57940E+000	9	...........
	2	0.04	8.19173E-001	-9.88468E-005	0.00000E+000	-8.09726E-005	-5.99601E-002	8.19478E-001	3.57940E+000	9	...........
	3	0.053333	8.06373E-001	-9.86134E-005	0.00000E+000	-7.95192E-005	-5.99601E-002	8.06638E-001	3.57940E+000	9	...........
	4	0.066667	7.93934E-001	-9.86915E-005	0.00000E+000	-7.83545E-005	-5.99601E-002	7.94212E-001	3.57940E+000	9	...........
	5	0.08	7.81768E-001	-9.98553E-005	0.00000E+000	-7.80637E-005	-5.99601E-002	7.82065E-001	3.57940E+000	9	...........
	6	0.093333	7.69820E-001	-9.88113E-005	0.00000E+000	-7.60669E-005	-5.99601E-002	7.70102E-001	3.57940E+000	9	...........
	7	0.106667	7.58008E-001	-9.93146E-005	0.00000E+000	-7.52812E-005	-5.99601E-002	7.58294E-001	3.57940E+000	9	...........
	8	0.12	7.46319E-001	-9.92708E-005	0.00000E+000	-7.40876E-005	-5.99601E-002	7.46615E-001	3.57940E+000	9	...........
	9	0.133333	7.34705E-001	-9.95584E-005	0.00000E+000	-7.31461E-005	-5.99601E-002	7.34993E-001	3.57940E+000	9	...........
	10	0.146667	7.23190E-001	-9.86207E-005	0.00000E+000	-7.13215E-005	-5.99601E-002	7.23473E-001	3.57940E+000	9	...........
	11	0.16	7.11679E-001	-9.84852E-005	0.00000E+000	-7.00899E-005	-5.99601E-002	7.12000E-001	3.57940E+000	9	...........
	12	0.173333	7.00243E-001	-9.92406E-005	0.00000E+000	-6.94925E-005	-5.99601E-002	7.00544E-001	3.57940E+000	9	...........
	13	0.186667	6.88845E-001	-9.88145E-005	0.00000E+000	-6.80678E-005	-5.99601E-002	6.89129E-001	3.57940E+000	9	...........
	14	0.2	6.77458E-001	-9.81393E-005	0.00000E+000	-6.64853E-005	-5.99601E-002	6.77762E-001	3.57940E+000	9	...........
	15	0.213333	6.66110E-001	-9.97459E-005	0.00000E+000	-6.64418E-005	-5.99601E-002	6.66362E-001	3.57940E+000	9	...........
	16	0.226667	6.54757E-001	-9.86363E-005	0.00000E+000	-6.45828E-005	-5.99601E-002	6.55017E-001	3.57940E+000	9	...........
	17	0.24	6.43438E-001	-9.86082E-005	0.00000E+000	-6.34482E-005	-5.99601E-002	6.43716E-001	3.57940E+000	9	...........
	18	0.253333	6.32136E-001	-9.84706E-005	0.00000E+000	-6.22469E-005	-5.99601E-002	6.32392E-001	3.57940E+000	9	...........
	19	0.266667	6.20895E-001	-9.88759E-005	0.00000E+000	-6.13915E-005	-5.99601E-002	6.21124E-001	3.57940E+000	9	...........
	20	0.28	6.09597E-001	-9.86999E-005	0.00000E+000	-6.01671E-005	-5.99601E-002	6.09891E-001	3.57940E+000	9	...........
	21	0.293333	5.98410E-001	-9.88780E-005	0.00000E+000	-5.91696E-005	-5.99601E-002	5.98697E-001	3.57940E+000	9	...........
	22	0.306667	5.87230E-001	-9.86884E-005	0.00000E+000	-5.79528E-005	-5.99601E-002	5.87498E-001	3.57940E+000	9	...........
	23	0.32	5.76057E-001	-9.87124E-005	0.00000E+000	-5.68639E-005	-5.99601E-002	5.76362E-001	3.57940E+000	9	...........
	24	0.333333	5.64951E-001	-9.93948E-005	0.00000E+000	-5.61532E-005	-5.99601E-002	5.65222E-001	3.57940E+000	9	...........
	25	0.346667	5.53834E-001	-9.89134E-005	0.00000E+000	-5.47816E-005	-5.99601E-002	5.54136E-001	3.57940E+000	9	...........
	26	0.36	5.42808E-001	-9.88978E-005	0.00000E+000	-5.36826E-005	-5.99601E-002	5.43084E-001	3.57940E+000	9	...........
	27	0.373333	5.31768E-001	-9.92802E-005	0.00000E+000	-5.27940E-005	-5.99601E-002	5.32057E-001	3.57940E+000	9	...........
	28	0.386667	5.20839E-001	-9.76382E-005	0.00000E+000	-5.08538E-005	-5.99601E-002	5.21106E-001	3.57940E+000	9	...........
	29	0.4	5.09914E-001	-9.92979E-005	0.00000E+000	-5.06334E-005	-5.99601E-002	5.10199E-001	3.57940E+000	9	...........
	30	0.413333	4.99042E-001	-9.86113E-005	0.00000E+000	-4.92112E-005	-5.99601E-002	4.99341E-001	3.57940E+000	9	...........
	31	0.426667	4.88346E-001	-9.88926E-005	0.00000E+000	-4.82938E-005	-5.99601E-002	4.88576E-001	3.57940E+000	9	...........
	32	0.44	4.77922E-001	-9.84811E-005	0.00000E+000	-4.70663E-005	-5.99601E-002	4.78021E-001	3.57940E+000	9	...........
	33	0.453333	4.67257E-001	-9.92083E-005	0.00000E+000	-4.63558E-005	-5.99601E-002	4.67356E-001	3.57940E+000	9	...........
	34	0.466667	4.56660E-001	-9.81800E-005	0.00000E+000	-4.48348E-005	-5.99601E-002	4.56748E-001	3.57940E+000	9	...........
	35	0.48	4.46130E-001	-9.94896E-005	0.00000E+000	-4.43853E-005	-5.99601E-002	4.46215E-001	3.57940E+000	9	...........
	36	0.493333	4.35664E-001	-9.85592E-005	0.00000E+000	-4.29387E-005	-5.99601E-002	4.35747E-001	3.57940E+000	9	...........
	37	0.506667	4.25272E-001	-9.81112E-005	0.00000E+000	-4.17240E-005	-5.99601E-002	4.25354E-001	3.57940E+000	9	...........
	38	0.52	4.14944E-001	-9.87426E-005	0.00000E+000	-4.09726E-005	-5.99601E-002	4.15031E-001	3.57940E+000	9	...........
	39	0.533333	4.04696E-001	-9.83665E-005	0.00000E+000	-3.98085E-005	-5.99601E-002	4.04777E-001	3.57940E+000	9	...........
	40	0.546667	3.94512E-001	-9.92792E-005	0.00000E+000	-3.91668E-005	-5.99601E-002	3.94581E-001	3.57940E+000	9	...........
	41	0.56	3.84393E-001	-9.93115E-005	0.00000E+000	-3.81747E-005	-5.99601E-002	3.84462E-001	3.57940E+000	9	...........
	42	0.573333	3.74339E-001	-9.90593E-005	0.00000E+000	-3.70818E-005	-5.99601E-002	3.74408E-001	3.57940E+000	9	...........
	43	0.586667	3.64359E-001	-9.81810E-005	0.00000E+000	-3.57731E-005	-5.99601E-002	3.64427E-001	3.57940E+000	9	...........
	44	0.6	3.54445E-001	-9.96959E-005	0.00000E+000	-3.53367E-005	-5.99601E-002	3.54507E-001	3.57940E+000	9	...........
	45	0.613333	3.44592E-001	-9.91916E-005	0.00000E+000	-3.41807E-005	-5.99601E-002	3.44658E-001	3.57940E+000	9	...........
	46	0.626667	3.34802E-001	-9.85884E-005	0.00000E+000	-3.30076E-005	-5.99601E-002	3.34861E-001	3.57940E+000	9	...........
	47	0.64	3.25070E-001	-9.88739E-005	0.00000E+000	-3.21409E-005	-5.99601E-002	3.25128E-001	3.57940E+000	9	...........
	48	0.653333	3.15388E-001	-9.82883E-005	0.00000E+000	-3.09990E-005	-5.99601E-002	3.15451E-001	3.57940E+000	9	...........
	49	0.666667	3.05773E-001	-9.91750E-005	0.00000E+000	-3.03250E-005	-5.99601E-002	3.05831E-001	3.57940E+000	9	...........
	50	0.68	2.96215E-001	-9.86290E-005	0.00000E+000	-2.92154E-005	-5.99601E-002	2.96270E-001	3.57940E+000	9	...........
	51	0.693333	2.86714E-001	-9.84477E-005	0.00000E+000	-2.82263E-005	-5.99601E-002	2.86769E-001	3.57940E+000	9	...........
	52	0.706667	2.77260E-001	-9.89437E-005	0.00000E+000	-2.74331E-005	-5.99601E-002	2.77314E-001	3.57940E+000	9	...........
	53	0.72	2.67864E-001	-9.89207E-005	0.00000E+000	-2.64973E-005	-5.99601E-002	2.67912E-001	3.57940E+000	9	...........
	54	0.733333	2.58511E-001	-9.98709E-005	0.00000E+000	-2.58178E-005	-5.99601E-002	2.58565E-001	3.57940E+000	9	...........
	55	0.746667	2.49219E-001	-9.88822E-005	0.00000E+000	-2.46433E-005	-5.99601E-002	2.49261E-001	3.57940E+000	9	...........
	56	0.76	2.39973E-001	-9.92052E-005	0.00000E+000	-2.38065E-005	-5.99601E-002	2.40012E-001	3.57940E+000	9	...........
	57	0.773333	2.30779E-001	-9.91104E-005	0.00000E+000	-2.28726E-005	-5.99601E-002	2.30821E-001	3.57940E+000	9	...........
	58	0.786667	2.21636E-001	-9.89030E-005	0.00000E+000	-2.19205E-005	-5.99601E-002	2.21674E-001	3.57940E+000	9	...........
	59	0.8	2.12556E-001	-9.81789E-005	0.00000E+000	-2.08686E-005	-5.99601E-002	2.12588E-001	3.57940E+000	9	...........
	60	0.813333	2.03522E-001	-9.90031E-005	0.00000E+000	-2.01493E-005	-5.99601E-002	2.03556E-001	3.57940E+000	9	...........
	61	0.826667	1.94554E-001	-9.82717E-005	0.00000E+000	-1.91191E-005	-5.99601E-002	1.94580E-001	3.57940E+000	9	...........
	62	0.84	1.85638E-001	-9.88655E-005	0.00000E+000	-1.83532E-005	-5.99601E-002	1.85673E-001	3.57940E+000	9	...........
	63	0.853333	1.76788E-001	-9.85623E-005	0.00000E+000	-1.74246E-005	-5.99601E-002	1.76818E-001	3.57940E+000	9	...........
	64	0.866667	1.68005E-001	-9.85915E-005	0.00000E+000	-1.65639E-005	-5.99601E-002	1.68035E-001	3.57940E+000	9	...........
	65	0.88	1.59298E-001	-9.80820E-005	0.00000E+000	-1.56242E-005	-5.99601E-002	1.59320E-001	3.57940E+000	9	...........
	66	0.893333	1.50652E-001	-9.86123E-005	0.00000E+000	-1.48562E-005	-5.99601E-002	1.50673E-001	3.57940E+000	9	...........
	67	0.906667	1.42070E-001	-9.97720E-005	0.00000E+000	-1.41746E-005	-5.99601E-002	1.42091E-001	3.57970E+000	9	...........
	68	0.92	1.33567E-001	-9.93240E-005	0.00000E+000	-1.32664E-005	-5.99601E-002	1.33586E-001	3.58000E+000	9	...........
	69	0.933333	1.25134E-001	-9.96074E-005	0.00000E+000	-1.24642E-005	-5.99601E-002	1.25150E-001	3.58000E+000	9	...........
	70	0.946667	1.16779E-001	-9.80581E-005	0.00000E+000	-1.14511E-005	-5.99601E-002	1.16799E-001	3.58000E+000	9	...........
	71	0.96	1.08502E-001	-9.83290E-005	0.00000E+000	-1.06689E-005	-5.99601E-002	1.08521E-001	3.58000E+000	9	...........
	72	0.97333	1.00302E-001	-9.83873E-005	0.00000E+000	-9.86841E-006	-5.99601E-002	1.00313E-001	3.58000E+000	9	...........
	73	0.98667	9.21766E-002	-9.87030E-005	0.00000E+000	-9.09810E-006	-5.99601E-002	9.21843E-002	3.58000E+000	9	...........
	74	1	8.41245E-002	-9.88166E-005	0.00000E+000	-8.31290E-006	-5.99601E-002	8.41357E-002	3.58000E+000	9	...........
	75	1.01333	7.61536E-002	-9.86561E-005	0.00000E+000	-7.51302E-006	-5.99601E-002	7.61498E-002	3.58000E+000	9	...........
	76	1.02667	6.82437E-002	-9.89166E-005	0.00000E+000	-6.75043E-006	-5.99601E-002	6.82428E-002	3.58000E+000	9	...........
	77	1.04	6.04103E-002	-9.95490E-005	0.00000E+000	-6.01378E-006	-5.99601E-002	6.04083E-002	3.58000E+000	9	...........
	78	1.05333	5.26459E-002	-9.81675E-005	0.00000E+000	-5.16812E-006	-5.99601E-002	5.26453E-002	3.58000E+000	9	...........
	79	1.06667	4.49877E-002	-9.87144E-005	0.00000E+000	-4.44094E-006	-5.99601E-002	4.49823E-002	3.58000E+000	9	...........
	80	1.08	3.73735E-002	-9.86749E-005	0.00000E+000	-3.68782E-006	-5.99601E-002	3.73627E-002	3.58000E+000	9	...........
	81	1.09333	2.98173E-002	-9.90583E-005	0.00000E+000	-2.95365E-006	-5.99601E-002	2.98018E-002	3.58000E+000	9	...........
	82	1.10667	2.23319E-002	-9.91573E-005	0.00000E+000	-2.21437E-006	-5.99601E-002	2.23110E-002	3.58000E+000	9	...........
	83	1.12	1.49110E-002	-9.90218E-005	0.00000E+000	-1.47652E-006	-5.99601E-002	1.48865E-002	3.58000E+000	9	...........
	84	1.13333	7.55878E-003	-9.88780E-005	0.00000E+000	-7.47398E-007	-5.99601E-002	7.53210E-003	3.58000E+000	9	...........
	85	1.14167	1.63571E-003	-9.82635E-005	0.00000E+000	-1.60730E-007	-5.99601E-002	1.60098E-003	3.58000E+000	9	...........
STARTTIMEOFFSET	QUANT	2056.439	Start Time Offset (s)
