EXPLAIN
TAG	PWR800_DISCHARGE
TITLE	LABEL	PWR Cyclic Charge Discharge (Cell) - Discharge Step	Test &Identifier
DATE	LABEL	13-7-2017	Date
TIME	LABEL	15:05:49	Time
NOTES	NOTES	2	&Notes...
	supercap test cell
	6M KOH
PSTAT	PSTAT	IFC5000-01520	Potentiostat
CAPACITY	QUANT	1.00000E-003	Capacity (A-hr)
CELLTYPE	SELECTOR	1	&Cell Type
WORKINGCONNECTION	SELECTOR	0	&Working Lead
MAXDISCHARGETIME	VARIABLEANDUNITS	1.00000E+002	s	1.00000E+002	second(s)	Max &Discharge Time
DISCHARGEMODE	MULTIPARAM	0	1.00000E-004	&Discharge Mode	Constant Current	Amp(s)
SAMPLETIME	QUANT	1.00000E-002	Sa&mple Period (s)
DISCHARGESTOPAT1	MULTIPARAM	3	0.00000E+000	Discharge Stop At &1	Voltage < Limit	V
DISCHARGESTOPAT2	MULTIPARAM	0	0.00000E+000	Discharge Stop At &2	None	N/A
AESBHCSELECTOR	TOGGLE	F	Save Both Half Cells
IRCOMP	TOGGLE	F	IR &Measure
EOC	QUANT	0	Open Circuit (V)
SEQUENCER	TOGGLE	TRUE	Run as Sequence
PSTATMODEL	IQUANT	53	Pstat Model
PSTATSECTION	LABEL	IFC5000-01520	Pstat Section
PSTATSERIALNO	LABEL	01520	Pstat Serial Number
CTRLMODE	IQUANT	0	Control Mode
ELECTROMETER	IQUANT	1	RE=0 or CS=1
IESTAB	IQUANT	0	I/E Stability
CASPEED	IQUANT	4	Control Amp Speed
CONVENTION	IQUANT	1	Current Convention
ICHRANGE	IQUANT	2	Ich Range
ICHRANGEMODE	TOGGLE	T	Ich Auto Range
ICHOFFSETENABLE	TOGGLE	F	Ich Offset Enable
ICHOFFSET	QUANT	0	Ich Offset (V)
ICHFILTER	IQUANT	1	Ich Filter
VCHRANGE	IQUANT	2	Vch Range
VCHRANGEMODE	TOGGLE	T	Vch Auto Range
VCHOFFSETENABLE	TOGGLE	F	Vch Offset Enable
VCHOFFSET	QUANT	0	Vch Offset (V)
VCHFILTER	IQUANT	1	Vch Filter
IERANGELOWERLIMIT	IQUANT	9	I/E Range Lower Limit
IERANGEMODE	TOGGLE	F	I/E AutoRange
IERANGE	IQUANT	9	I/E Range
ACHSELECT	IQUANT	1	Ach Select
ACHRANGE	IQUANT	2	Ach Range
ACHOFFSETENABLE	TOGGLE	F	Ach Offset Enable
ACHOFFSET	QUANT	0	Ach Offset (V)
ACHFILTER	IQUANT	1	Ach Filter
CABLEID	IQUANT	14	Cable ID
DCCALDATE	LABEL	5-7-2017	DC Calibration Date
ACCALDATE	LABEL	12/3/2015	AC Calibration Date
FRAMEWORKVERSION	QUANT	7.01	Framework Version
INSTRUMENTVERSION	LABEL	4.00	Instrument Version
CURVE	TABLE	93
	Pt	T	Vf	Im	Vu	Pwr	Sig	Ach	Temp	IERange	Over
	#	s	V	A	V	W	V	V	deg C	#	bits
	0	0.013333	8.57057E-001	-9.87676E-005	0.00000E+000	-8.46495E-005	-5.99601E-002	8.57393E-001	3.57910E+000	9	...........
	1	0.026667	8.44235E-001	-9.89468E-005	0.00000E+000	-8.35343E-005	-5.99601E-002	8.44572E-001	3.57910E+000	9	...........
	2	0.04	8.32191E-001	-9.91562E-005	0.00000E+000	-8.25170E-005	-5.99601E-002	8.32518E-001	3.57910E+000	9	...........
	3	0.053333	8.20720E-001	-9.86624E-005	0.00000E+000	-8.09741E-005	-5.99601E-002	8.21056E-001	3.57910E+000	9	...........
	4	0.066667	8.09637E-001	-9.84748E-005	0.00000E+000	-7.97288E-005	-5.99601E-002	8.09971E-001	3.57910E+000	9	...........
	5	0.08	7.98872E-001	-9.94396E-005	0.00000E+000	-7.94395E-005	-5.99601E-002	7.99182E-001	3.57910E+000	9	...........
	6	0.093333	7.88287E-001	-9.86321E-005	0.00000E+000	-7.77504E-005	-5.99601E-002	7.88606E-001	3.57910E+000	9	...........
	7	0.106667	7.77909E-001	-9.92562E-005	0.00000E+000	-7.72123E-005	-5.99601E-002	7.78200E-001	3.57910E+000	9	...........
	8	0.12	7.67633E-001	-9.89489E-005	0.00000E+000	-7.59564E-005	-5.99601E-002	7.67920E-001	3.57910E+000	9	...........
	9	0.133333	7.57471E-001	-9.85696E-005	0.00000E+000	-7.46637E-005	-5.99601E-002	7.57761E-001	3.57910E+000	9	...........
	10	0.146667	7.47385E-001	-9.90156E-005	0.00000E+000	-7.40028E-005	-5.99601E-002	7.47691E-001	3.57910E+000	9	...........
	11	0.16	7.37371E-001	-9.97438E-005	0.00000E+000	-7.35483E-005	-5.99601E-002	7.37654E-001	3.57910E+000	9	...........
	12	0.173333	7.27429E-001	-9.91052E-005	0.00000E+000	-7.20920E-005	-5.99601E-002	7.27721E-001	3.57910E+000	9	...........
	13	0.186667	7.17493E-001	-9.90354E-005	0.00000E+000	-7.10572E-005	-5.99601E-002	7.17793E-001	3.57910E+000	9	...........
	14	0.2	7.07570E-001	-9.88061E-005	0.00000E+000	-6.99123E-005	-5.99601E-002	7.07886E-001	3.57910E+000	9	...........
	15	0.213333	6.97701E-001	-9.91072E-005	0.00000E+000	-6.91472E-005	-5.99601E-002	6.98012E-001	3.57910E+000	9	...........
	16	0.226667	6.87842E-001	-9.91010E-005	0.00000E+000	-6.81658E-005	-5.99601E-002	6.88149E-001	3.57910E+000	9	...........
	17	0.24	6.77999E-001	-9.92583E-005	0.00000E+000	-6.72971E-005	-5.99601E-002	6.78309E-001	3.57910E+000	9	...........
	18	0.253333	6.68168E-001	-9.89999E-005	0.00000E+000	-6.61486E-005	-5.99601E-002	6.68472E-001	3.57910E+000	9	...........
	19	0.266667	6.58311E-001	-9.91312E-005	0.00000E+000	-6.52592E-005	-5.99601E-002	6.58596E-001	3.57910E+000	9	...........
	20	0.28	6.48490E-001	-9.87092E-005	0.00000E+000	-6.40119E-005	-5.99601E-002	6.48772E-001	3.57910E+000	9	...........
	21	0.293333	6.38644E-001	-9.81216E-005	0.00000E+000	-6.26648E-005	-5.99601E-002	6.38926E-001	3.57910E+000	9	...........
	22	0.306667	6.28821E-001	-9.82977E-005	0.00000E+000	-6.18117E-005	-5.99601E-002	6.29091E-001	3.57910E+000	9	...........
	23	0.32	6.19019E-001	-9.93615E-005	0.00000E+000	-6.15066E-005	-5.99601E-002	6.19258E-001	3.57899E+000	9	...........
	24	0.333333	6.09142E-001	-9.92093E-005	0.00000E+000	-6.04325E-005	-5.99601E-002	6.09407E-001	3.57880E+000	9	...........
	25	0.346667	5.99313E-001	-9.87728E-005	0.00000E+000	-5.91958E-005	-5.99601E-002	5.99610E-001	3.57880E+000	9	...........
	26	0.36	5.89499E-001	-9.94771E-005	0.00000E+000	-5.86417E-005	-5.99601E-002	5.89800E-001	3.57880E+000	9	...........
	27	0.373333	5.79674E-001	-9.88843E-005	0.00000E+000	-5.73207E-005	-5.99601E-002	5.79966E-001	3.57880E+000	9	...........
	28	0.386667	5.69871E-001	-9.89583E-005	0.00000E+000	-5.63934E-005	-5.99601E-002	5.70125E-001	3.57880E+000	9	...........
	29	0.4	5.60020E-001	-9.95198E-005	0.00000E+000	-5.57331E-005	-5.99601E-002	5.60295E-001	3.57880E+000	9	...........
	30	0.413333	5.50247E-001	-9.88207E-005	0.00000E+000	-5.43758E-005	-5.99601E-002	5.50476E-001	3.57880E+000	9	...........
	31	0.426667	5.40469E-001	-9.84571E-005	0.00000E+000	-5.32130E-005	-5.99601E-002	5.40692E-001	3.57880E+000	9	...........
	32	0.44	5.30661E-001	-9.89499E-005	0.00000E+000	-5.25089E-005	-5.99601E-002	5.30907E-001	3.57880E+000	9	...........
	33	0.453333	5.20935E-001	-9.95844E-005	0.00000E+000	-5.18770E-005	-5.99601E-002	5.21152E-001	3.57880E+000	9	...........
	34	0.466667	5.11158E-001	-9.95855E-005	0.00000E+000	-5.09039E-005	-5.99601E-002	5.11410E-001	3.57880E+000	9	...........
	35	0.48	5.01412E-001	-9.92573E-005	0.00000E+000	-4.97688E-005	-5.99601E-002	5.01671E-001	3.57880E+000	9	...........
	36	0.493333	4.91729E-001	-9.80539E-005	0.00000E+000	-4.82160E-005	-5.99601E-002	4.91964E-001	3.57880E+000	9	...........
	37	0.506667	4.82326E-001	-9.88822E-005	0.00000E+000	-4.76935E-005	-5.99601E-002	4.82440E-001	3.57880E+000	9	...........
	38	0.52	4.72770E-001	-9.80935E-005	0.00000E+000	-4.63756E-005	-5.99601E-002	4.72874E-001	3.57880E+000	9	...........
	39	0.533333	4.63134E-001	-9.86321E-005	0.00000E+000	-4.56799E-005	-5.99601E-002	4.63230E-001	3.57880E+000	9	...........
	40	0.546667	4.53519E-001	-9.91864E-005	0.00000E+000	-4.49829E-005	-5.99601E-002	4.53615E-001	3.57880E+000	9	...........
	41	0.56	4.43934E-001	-9.94542E-005	0.00000E+000	-4.41511E-005	-5.99601E-002	4.44029E-001	3.57880E+000	9	...........
	42	0.573333	4.34380E-001	-9.85519E-005	0.00000E+000	-4.28090E-005	-5.99601E-002	4.34476E-001	3.57880E+000	9	...........
	43	0.586667	4.24856E-001	-9.86384E-005	0.00000E+000	-4.19071E-005	-5.99601E-002	4.24949E-001	3.57880E+000	9	...........
	44	0.6	4.15365E-001	-9.84811E-005	0.00000E+000	-4.09056E-005	-5.99601E-002	4.15455E-001	3.57880E+000	9	...........
	45	0.613333	4.05905E-001	-9.95969E-005	0.00000E+000	-4.04269E-005	-5.99601E-002	4.05987E-001	3.57880E+000	9	...........
	46	0.626667	3.96479E-001	-9.87540E-005	0.00000E+000	-3.91539E-005	-5.99601E-002	3.96557E-001	3.57880E+000	9	...........
	47	0.64	3.87086E-001	-9.92760E-005	0.00000E+000	-3.84283E-005	-5.99601E-002	3.87164E-001	3.57880E+000	9	...........
	48	0.653333	3.77723E-001	-9.88780E-005	0.00000E+000	-3.73485E-005	-5.99601E-002	3.77799E-001	3.57880E+000	9	...........
	49	0.666667	3.68392E-001	-9.91281E-005	0.00000E+000	-3.65180E-005	-5.99601E-002	3.68464E-001	3.57880E+000	9	...........
	50	0.68	3.59094E-001	-9.82310E-005	0.00000E+000	-3.52741E-005	-5.99601E-002	3.59166E-001	3.57880E+000	9	...........
	51	0.693333	3.49831E-001	-9.86478E-005	0.00000E+000	-3.45101E-005	-5.99601E-002	3.49898E-001	3.57880E+000	9	...........
	52	0.706667	3.40597E-001	-9.78736E-005	0.00000E+000	-3.33354E-005	-5.99601E-002	3.40664E-001	3.57880E+000	9	...........
	53	0.72	3.31399E-001	-9.97282E-005	0.00000E+000	-3.30498E-005	-5.99601E-002	3.31463E-001	3.57880E+000	9	...........
	54	0.733333	3.22235E-001	-9.88905E-005	0.00000E+000	-3.18660E-005	-5.99601E-002	3.22300E-001	3.57880E+000	9	...........
	55	0.746667	3.13098E-001	-9.89843E-005	0.00000E+000	-3.09917E-005	-5.99601E-002	3.13160E-001	3.57880E+000	9	...........
	56	0.76	3.03990E-001	-9.81487E-005	0.00000E+000	-2.98362E-005	-5.99601E-002	3.04050E-001	3.57880E+000	9	...........
	57	0.773333	2.94907E-001	-9.81477E-005	0.00000E+000	-2.89445E-005	-5.99601E-002	2.94972E-001	3.57880E+000	9	...........
	58	0.786667	2.85865E-001	-9.82133E-005	0.00000E+000	-2.80758E-005	-5.99601E-002	2.85922E-001	3.57880E+000	9	...........
	59	0.8	2.76844E-001	-9.83925E-005	0.00000E+000	-2.72394E-005	-5.99601E-002	2.76900E-001	3.57880E+000	9	...........
	60	0.813333	2.67847E-001	-9.89978E-005	0.00000E+000	-2.65163E-005	-5.99601E-002	2.67903E-001	3.57880E+000	9	...........
	61	0.826667	2.58891E-001	-9.88176E-005	0.00000E+000	-2.55830E-005	-5.99601E-002	2.58943E-001	3.57880E+000	9	...........
	62	0.84	2.49963E-001	-9.82258E-005	0.00000E+000	-2.45528E-005	-5.99601E-002	2.50010E-001	3.57880E+000	9	...........
	63	0.853333	2.41056E-001	-9.90322E-005	0.00000E+000	-2.38723E-005	-5.99601E-002	2.41102E-001	3.57880E+000	9	...........
	64	0.866667	2.32188E-001	-9.76403E-005	0.00000E+000	-2.26709E-005	-5.99601E-002	2.32223E-001	3.57880E+000	9	...........
	65	0.88	2.23338E-001	-9.85988E-005	0.00000E+000	-2.20208E-005	-5.99601E-002	2.23382E-001	3.57880E+000	9	...........
	66	0.893333	2.14521E-001	-9.93677E-005	0.00000E+000	-2.13165E-005	-5.99601E-002	2.14564E-001	3.57880E+000	9	...........
	67	0.906667	2.05742E-001	-9.83946E-005	0.00000E+000	-2.02439E-005	-5.99601E-002	2.05781E-001	3.57880E+000	9	...........
	68	0.92	1.96994E-001	-9.93635E-005	0.00000E+000	-1.95740E-005	-5.99601E-002	1.97027E-001	3.57880E+000	9	...........
	69	0.933333	1.88278E-001	-9.89676E-005	0.00000E+000	-1.86335E-005	-5.99601E-002	1.88314E-001	3.57880E+000	9	...........
	70	0.946667	1.79600E-001	-9.84800E-005	0.00000E+000	-1.76870E-005	-5.99601E-002	1.79632E-001	3.57880E+000	9	...........
	71	0.96	1.70955E-001	-9.86915E-005	0.00000E+000	-1.68718E-005	-5.99601E-002	1.70989E-001	3.57880E+000	9	...........
	72	0.97333	1.62353E-001	-9.87072E-005	0.00000E+000	-1.60255E-005	-5.99601E-002	1.62383E-001	3.57880E+000	9	...........
	73	0.98667	1.53797E-001	-9.92198E-005	0.00000E+000	-1.52597E-005	-5.99601E-002	1.53821E-001	3.57880E+000	9	...........
	74	1	1.45283E-001	-9.87811E-005	0.00000E+000	-1.43512E-005	-5.99601E-002	1.45305E-001	3.57880E+000	9	...........
	75	1.01333	1.36816E-001	-9.87343E-005	0.00000E+000	-1.35084E-005	-5.99601E-002	1.36837E-001	3.57880E+000	9	...........
	76	1.02667	1.28398E-001	-9.85113E-005	0.00000E+000	-1.26486E-005	-5.99601E-002	1.28418E-001	3.57880E+000	9	...........
	77	1.04	1.20032E-001	-9.83550E-005	0.00000E+000	-1.18058E-005	-5.99601E-002	1.20050E-001	3.57880E+000	9	...........
	78	1.05333	1.11722E-001	-9.90947E-005	0.00000E+000	-1.10711E-005	-5.99601E-002	1.11743E-001	3.57880E+000	9	...........
	79	1.06667	1.03473E-001	-9.85978E-005	0.00000E+000	-1.02022E-005	-5.99601E-002	1.03489E-001	3.57880E+000	9	...........
	80	1.08	9.52835E-002	-9.90562E-005	0.00000E+000	-9.43842E-006	-5.99601E-002	9.52918E-002	3.57880E+000	9	...........
	81	1.09333	8.71507E-002	-9.88270E-005	0.00000E+000	-8.61284E-006	-5.99601E-002	8.71640E-002	3.57880E+000	9	...........
	82	1.10667	7.90837E-002	-9.79289E-005	0.00000E+000	-7.74458E-006	-5.99601E-002	7.90906E-002	3.57880E+000	9	...........
	83	1.12	7.10737E-002	-9.85415E-005	0.00000E+000	-7.00371E-006	-5.99601E-002	7.10729E-002	3.57880E+000	9	...........
	84	1.13333	6.31275E-002	-9.79497E-005	0.00000E+000	-6.18332E-006	-5.99601E-002	6.31243E-002	3.57880E+000	9	...........
	85	1.14667	5.52433E-002	-9.84717E-005	0.00000E+000	-5.43990E-006	-5.99601E-002	5.52367E-002	3.57880E+000	9	...........
	86	1.16	4.74425E-002	-1.00190E-004	0.00000E+000	-4.75325E-006	-5.99601E-002	4.74348E-002	3.57880E+000	9	...........
	87	1.17333	3.97004E-002	-9.93052E-005	0.00000E+000	-3.94245E-006	-5.99601E-002	3.96879E-002	3.57880E+000	9	...........
	88	1.18667	3.19967E-002	-9.91291E-005	0.00000E+000	-3.17180E-006	-5.99601E-002	3.19849E-002	3.57880E+000	9	...........
	89	1.2	2.43577E-002	-9.99126E-005	0.00000E+000	-2.43364E-006	-5.99601E-002	2.43409E-002	3.57880E+000	9	...........
	90	1.21333	1.67801E-002	-9.95500E-005	0.00000E+000	-1.67046E-006	-5.99601E-002	1.67536E-002	3.57880E+000	9	...........
	91	1.22667	9.25549E-003	-9.82842E-005	0.00000E+000	-9.09668E-007	-5.99601E-002	9.22999E-003	3.57880E+000	9	...........
	92	1.23833	2.25684E-003	-9.80209E-005	0.00000E+000	-2.21217E-007	-5.99601E-002	2.22452E-003	3.57880E+000	9	...........
STARTTIMEOFFSET	QUANT	166.7833	Start Time Offset (s)
