EXPLAIN
TAG	PWR800_DISCHARGE
TITLE	LABEL	PWR Cyclic Charge Discharge (Cell) - Discharge Step	Test &Identifier
DATE	LABEL	13-7-2017	Date
TIME	LABEL	15:45:06	Time
NOTES	NOTES	2	&Notes...
	supercap test cell
	6M KOH
PSTAT	PSTAT	IFC5000-01520	Potentiostat
CAPACITY	QUANT	1.00000E-003	Capacity (A-hr)
CELLTYPE	SELECTOR	1	&Cell Type
WORKINGCONNECTION	SELECTOR	0	&Working Lead
MAXDISCHARGETIME	VARIABLEANDUNITS	1.00000E+002	s	1.00000E+002	second(s)	Max &Discharge Time
DISCHARGEMODE	MULTIPARAM	0	1.00000E-004	&Discharge Mode	Constant Current	Amp(s)
SAMPLETIME	QUANT	1.00000E-002	Sa&mple Period (s)
DISCHARGESTOPAT1	MULTIPARAM	3	0.00000E+000	Discharge Stop At &1	Voltage < Limit	V
DISCHARGESTOPAT2	MULTIPARAM	0	0.00000E+000	Discharge Stop At &2	None	N/A
AESBHCSELECTOR	TOGGLE	F	Save Both Half Cells
IRCOMP	TOGGLE	F	IR &Measure
EOC	QUANT	0	Open Circuit (V)
SEQUENCER	TOGGLE	TRUE	Run as Sequence
PSTATMODEL	IQUANT	53	Pstat Model
PSTATSECTION	LABEL	IFC5000-01520	Pstat Section
PSTATSERIALNO	LABEL	01520	Pstat Serial Number
CTRLMODE	IQUANT	0	Control Mode
ELECTROMETER	IQUANT	1	RE=0 or CS=1
IESTAB	IQUANT	0	I/E Stability
CASPEED	IQUANT	4	Control Amp Speed
CONVENTION	IQUANT	1	Current Convention
ICHRANGE	IQUANT	2	Ich Range
ICHRANGEMODE	TOGGLE	T	Ich Auto Range
ICHOFFSETENABLE	TOGGLE	F	Ich Offset Enable
ICHOFFSET	QUANT	0	Ich Offset (V)
ICHFILTER	IQUANT	1	Ich Filter
VCHRANGE	IQUANT	2	Vch Range
VCHRANGEMODE	TOGGLE	T	Vch Auto Range
VCHOFFSETENABLE	TOGGLE	F	Vch Offset Enable
VCHOFFSET	QUANT	0	Vch Offset (V)
VCHFILTER	IQUANT	1	Vch Filter
IERANGELOWERLIMIT	IQUANT	9	I/E Range Lower Limit
IERANGEMODE	TOGGLE	F	I/E AutoRange
IERANGE	IQUANT	9	I/E Range
ACHSELECT	IQUANT	1	Ach Select
ACHRANGE	IQUANT	2	Ach Range
ACHOFFSETENABLE	TOGGLE	F	Ach Offset Enable
ACHOFFSET	QUANT	0	Ach Offset (V)
ACHFILTER	IQUANT	1	Ach Filter
CABLEID	IQUANT	14	Cable ID
DCCALDATE	LABEL	5-7-2017	DC Calibration Date
ACCALDATE	LABEL	12/3/2015	AC Calibration Date
FRAMEWORKVERSION	QUANT	7.01	Framework Version
INSTRUMENTVERSION	LABEL	4.00	Instrument Version
CURVE	TABLE	86
	Pt	T	Vf	Im	Vu	Pwr	Sig	Ach	Temp	IERange	Over
	#	s	V	A	V	W	V	V	deg C	#	bits
	0	0.013333	8.45925E-001	-9.87551E-005	0.00000E+000	-8.35394E-005	-5.99601E-002	8.46259E-001	3.58000E+000	9	...........
	1	0.026667	8.31601E-001	-9.85957E-005	0.00000E+000	-8.19923E-005	-5.99601E-002	8.31943E-001	3.58000E+000	9	...........
	2	0.04	8.18151E-001	-9.88322E-005	0.00000E+000	-8.08597E-005	-5.99601E-002	8.18467E-001	3.58000E+000	9	...........
	3	0.053333	8.05239E-001	-9.86415E-005	0.00000E+000	-7.94300E-005	-5.99601E-002	8.05570E-001	3.58000E+000	9	...........
	4	0.066667	7.92773E-001	-9.91979E-005	0.00000E+000	-7.86414E-005	-5.99601E-002	7.93069E-001	3.58000E+000	9	...........
	5	0.08	7.80585E-001	-9.85613E-005	0.00000E+000	-7.69355E-005	-5.99601E-002	7.80837E-001	3.58000E+000	9	...........
	6	0.093333	7.68595E-001	-9.86478E-005	0.00000E+000	-7.58202E-005	-5.99601E-002	7.68844E-001	3.58000E+000	9	...........
	7	0.106667	7.56795E-001	-9.97209E-005	0.00000E+000	-7.54683E-005	-5.99601E-002	7.57036E-001	3.58000E+000	9	...........
	8	0.12	7.45073E-001	-9.74267E-005	0.00000E+000	-7.25900E-005	-5.99601E-002	7.45338E-001	3.58000E+000	9	...........
	9	0.133333	7.33478E-001	-9.86561E-005	0.00000E+000	-7.23620E-005	-5.99601E-002	7.33721E-001	3.58000E+000	9	...........
	10	0.146667	7.21985E-001	-9.84404E-005	0.00000E+000	-7.10725E-005	-5.99601E-002	7.22211E-001	3.57906E+000	9	...........
	11	0.16	7.10484E-001	-9.85477E-005	0.00000E+000	-7.00166E-005	-5.99601E-002	7.10755E-001	3.57850E+000	9	...........
	12	0.173333	6.99067E-001	-9.76621E-005	0.00000E+000	-6.82724E-005	-5.99601E-002	6.99339E-001	3.57850E+000	9	...........
	13	0.186667	6.87714E-001	-9.93281E-005	0.00000E+000	-6.83094E-005	-5.99601E-002	6.87937E-001	3.57850E+000	9	...........
	14	0.2	6.76358E-001	-9.88426E-005	0.00000E+000	-6.68530E-005	-5.99601E-002	6.76614E-001	3.57850E+000	9	...........
	15	0.213333	6.65041E-001	-9.84300E-005	0.00000E+000	-6.54600E-005	-5.99601E-002	6.65287E-001	3.57850E+000	9	...........
	16	0.226667	6.53732E-001	-1.00000E-004	0.00000E+000	-6.53733E-005	-5.99601E-002	6.53983E-001	3.57850E+000	9	...........
	17	0.24	6.42465E-001	-9.92312E-005	0.00000E+000	-6.37526E-005	-5.99601E-002	6.42716E-001	3.57850E+000	9	...........
	18	0.253333	6.31190E-001	-9.91177E-005	0.00000E+000	-6.25620E-005	-5.99601E-002	6.31419E-001	3.57850E+000	9	...........
	19	0.266667	6.19976E-001	-9.87926E-005	0.00000E+000	-6.12490E-005	-5.99601E-002	6.20182E-001	3.57850E+000	9	...........
	20	0.28	6.08709E-001	-9.89853E-005	0.00000E+000	-6.02533E-005	-5.99601E-002	6.08946E-001	3.57850E+000	9	...........
	21	0.293333	5.97561E-001	-9.79205E-005	0.00000E+000	-5.85135E-005	-5.99601E-002	5.97792E-001	3.57850E+000	9	...........
	22	0.306667	5.86403E-001	-9.94438E-005	0.00000E+000	-5.83141E-005	-5.99601E-002	5.86645E-001	3.57850E+000	9	...........
	23	0.32	5.75292E-001	-9.93167E-005	0.00000E+000	-5.71360E-005	-5.99601E-002	5.75513E-001	3.57850E+000	9	...........
	24	0.333333	5.64207E-001	-9.78632E-005	0.00000E+000	-5.52152E-005	-5.99601E-002	5.64434E-001	3.57850E+000	9	...........
	25	0.346667	5.53137E-001	-9.83810E-005	0.00000E+000	-5.44182E-005	-5.99601E-002	5.53374E-001	3.57850E+000	9	...........
	26	0.36	5.42124E-001	-9.92500E-005	0.00000E+000	-5.38058E-005	-5.99601E-002	5.42380E-001	3.57850E+000	9	...........
	27	0.373333	5.31159E-001	-9.80070E-005	0.00000E+000	-5.20573E-005	-5.99601E-002	5.31391E-001	3.57850E+000	9	...........
	28	0.386667	5.20239E-001	-9.86144E-005	0.00000E+000	-5.13030E-005	-5.99601E-002	5.20505E-001	3.57850E+000	9	...........
	29	0.4	5.09365E-001	-9.87645E-005	0.00000E+000	-5.03071E-005	-5.99601E-002	5.09630E-001	3.57850E+000	9	...........
	30	0.413333	4.98542E-001	-9.95844E-005	0.00000E+000	-4.96470E-005	-5.99601E-002	4.98824E-001	3.57850E+000	9	...........
	31	0.426667	4.87858E-001	-9.88051E-005	0.00000E+000	-4.82028E-005	-5.99601E-002	4.88097E-001	3.57850E+000	9	...........
	32	0.44	4.77507E-001	-9.85582E-005	0.00000E+000	-4.70622E-005	-5.99601E-002	4.77598E-001	3.57850E+000	9	...........
	33	0.453333	4.66874E-001	-9.91031E-005	0.00000E+000	-4.62686E-005	-5.99601E-002	4.66967E-001	3.57850E+000	9	...........
	34	0.466667	4.56305E-001	-9.89624E-005	0.00000E+000	-4.51570E-005	-5.99601E-002	4.56399E-001	3.57850E+000	9	...........
	35	0.48	4.45814E-001	-9.90333E-005	0.00000E+000	-4.41504E-005	-5.99601E-002	4.45903E-001	3.57850E+000	9	...........
	36	0.493333	4.35378E-001	-9.87832E-005	0.00000E+000	-4.30081E-005	-5.99601E-002	4.35469E-001	3.57850E+000	9	...........
	37	0.506667	4.25021E-001	-9.90093E-005	0.00000E+000	-4.20811E-005	-5.99601E-002	4.25108E-001	3.57850E+000	9	...........
	38	0.52	4.14729E-001	-9.78434E-005	0.00000E+000	-4.05785E-005	-5.99601E-002	4.14813E-001	3.57850E+000	9	...........
	39	0.533333	4.04508E-001	-9.93771E-005	0.00000E+000	-4.01989E-005	-5.99601E-002	4.04587E-001	3.57850E+000	9	...........
	40	0.546667	3.94349E-001	-9.95125E-005	0.00000E+000	-3.92427E-005	-5.99601E-002	3.94429E-001	3.57850E+000	9	...........
	41	0.56	3.84261E-001	-9.87290E-005	0.00000E+000	-3.79377E-005	-5.99601E-002	3.84333E-001	3.57850E+000	9	...........
	42	0.573333	3.74235E-001	-9.96032E-005	0.00000E+000	-3.72750E-005	-5.99601E-002	3.74309E-001	3.57850E+000	9	...........
	43	0.586667	3.64281E-001	-9.92771E-005	0.00000E+000	-3.61647E-005	-5.99601E-002	3.64352E-001	3.57850E+000	9	...........
	44	0.6	3.54395E-001	-9.89499E-005	0.00000E+000	-3.50673E-005	-5.99601E-002	3.54459E-001	3.57850E+000	9	...........
	45	0.613333	3.44563E-001	-9.97209E-005	0.00000E+000	-3.43601E-005	-5.99601E-002	3.44626E-001	3.57850E+000	9	...........
	46	0.626667	3.34793E-001	-9.87395E-005	0.00000E+000	-3.30573E-005	-5.99601E-002	3.34854E-001	3.57850E+000	9	...........
	47	0.64	3.25087E-001	-9.84186E-005	0.00000E+000	-3.19946E-005	-5.99601E-002	3.25147E-001	3.57850E+000	9	...........
	48	0.653333	3.15439E-001	-9.86155E-005	0.00000E+000	-3.11071E-005	-5.99601E-002	3.15492E-001	3.57850E+000	9	...........
	49	0.666667	3.05842E-001	-9.90218E-005	0.00000E+000	-3.02850E-005	-5.99601E-002	3.05895E-001	3.57850E+000	9	...........
	50	0.68	2.96294E-001	-9.96073E-005	0.00000E+000	-2.95130E-005	-5.99601E-002	2.96347E-001	3.57850E+000	9	...........
	51	0.693333	2.86798E-001	-9.88020E-005	0.00000E+000	-2.83362E-005	-5.99601E-002	2.86853E-001	3.57850E+000	9	...........
	52	0.706667	2.77358E-001	-9.87395E-005	0.00000E+000	-2.73862E-005	-5.99601E-002	2.77415E-001	3.57850E+000	9	...........
	53	0.72	2.67966E-001	-9.91135E-005	0.00000E+000	-2.65591E-005	-5.99601E-002	2.68020E-001	3.57850E+000	9	...........
	54	0.733333	2.58626E-001	-9.89291E-005	0.00000E+000	-2.55857E-005	-5.99601E-002	2.58679E-001	3.57850E+000	9	...........
	55	0.746667	2.49348E-001	-9.89322E-005	0.00000E+000	-2.46686E-005	-5.99601E-002	2.49390E-001	3.57850E+000	9	...........
	56	0.76	2.40115E-001	-9.76121E-005	0.00000E+000	-2.34382E-005	-5.99601E-002	2.40157E-001	3.57850E+000	9	...........
	57	0.773333	2.30928E-001	-9.95688E-005	0.00000E+000	-2.29932E-005	-5.99601E-002	2.30966E-001	3.57850E+000	9	...........
	58	0.786667	2.21795E-001	-9.91666E-005	0.00000E+000	-2.19947E-005	-5.99601E-002	2.21829E-001	3.57850E+000	9	...........
	59	0.8	2.12721E-001	-9.89895E-005	0.00000E+000	-2.10572E-005	-5.99601E-002	2.12754E-001	3.57850E+000	9	...........
	60	0.813333	2.03699E-001	-9.81768E-005	0.00000E+000	-1.99985E-005	-5.99601E-002	2.03731E-001	3.57850E+000	9	...........
	61	0.826667	1.94733E-001	-9.93802E-005	0.00000E+000	-1.93526E-005	-5.99601E-002	1.94764E-001	3.57850E+000	9	...........
	62	0.84	1.85830E-001	-9.84352E-005	0.00000E+000	-1.82922E-005	-5.99601E-002	1.85853E-001	3.57850E+000	9	...........
	63	0.853333	1.76982E-001	-9.84352E-005	0.00000E+000	-1.74213E-005	-5.99601E-002	1.77007E-001	3.57850E+000	9	...........
	64	0.866667	1.68200E-001	-9.89218E-005	0.00000E+000	-1.66386E-005	-5.99601E-002	1.68223E-001	3.57850E+000	9	...........
	65	0.88	1.59487E-001	-9.83435E-005	0.00000E+000	-1.56846E-005	-5.99601E-002	1.59507E-001	3.57850E+000	9	...........
	66	0.893333	1.50837E-001	-9.88124E-005	0.00000E+000	-1.49046E-005	-5.99601E-002	1.50852E-001	3.57850E+000	9	...........
	67	0.906667	1.42263E-001	-9.86665E-005	0.00000E+000	-1.40366E-005	-5.99601E-002	1.42274E-001	3.57850E+000	9	...........
	68	0.92	1.33760E-001	-9.90354E-005	0.00000E+000	-1.32470E-005	-5.99601E-002	1.33771E-001	3.57850E+000	9	...........
	69	0.933333	1.25326E-001	-1.00081E-004	0.00000E+000	-1.25428E-005	-5.99601E-002	1.25339E-001	3.57850E+000	9	...........
	70	0.946667	1.16971E-001	-9.89822E-005	0.00000E+000	-1.15781E-005	-5.99601E-002	1.16989E-001	3.57850E+000	9	...........
	71	0.96	1.08691E-001	-9.86696E-005	0.00000E+000	-1.07245E-005	-5.99601E-002	1.08711E-001	3.57850E+000	9	...........
	72	0.97333	1.00491E-001	-9.86801E-005	0.00000E+000	-9.91641E-006	-5.99601E-002	1.00501E-001	3.57850E+000	9	...........
	73	0.98667	9.23624E-002	-9.92083E-005	0.00000E+000	-9.16312E-006	-5.99601E-002	9.23683E-002	3.57850E+000	9	...........
	74	1	8.43093E-002	-9.90333E-005	0.00000E+000	-8.34942E-006	-5.99601E-002	8.43106E-002	3.57850E+000	9	...........
	75	1.01333	7.63325E-002	-9.91364E-005	0.00000E+000	-7.56733E-006	-5.99601E-002	7.63260E-002	3.57850E+000	9	...........
	76	1.02667	6.84272E-002	-9.87561E-005	0.00000E+000	-6.75760E-006	-5.99601E-002	6.84290E-002	3.57850E+000	9	...........
	77	1.04	6.05923E-002	-9.95771E-005	0.00000E+000	-6.03361E-006	-5.99601E-002	6.05924E-002	3.57850E+000	9	...........
	78	1.05333	5.28264E-002	-9.79883E-005	0.00000E+000	-5.17637E-006	-5.99601E-002	5.28244E-002	3.57850E+000	9	...........
	79	1.06667	4.51688E-002	-9.87270E-005	0.00000E+000	-4.45938E-006	-5.99601E-002	4.51638E-002	3.57850E+000	9	...........
	80	1.08	3.75553E-002	-9.81529E-005	0.00000E+000	-3.68616E-006	-5.99601E-002	3.75400E-002	3.57850E+000	9	...........
	81	1.09333	2.99977E-002	-9.90999E-005	0.00000E+000	-2.97277E-006	-5.99601E-002	2.99821E-002	3.57850E+000	9	...........
	82	1.10667	2.25110E-002	-9.84092E-005	0.00000E+000	-2.21529E-006	-5.99601E-002	2.24879E-002	3.57850E+000	9	...........
	83	1.12	1.50835E-002	-9.84998E-005	0.00000E+000	-1.48573E-006	-5.99601E-002	1.50593E-002	3.57850E+000	9	...........
	84	1.13333	7.72468E-003	-9.87613E-005	0.00000E+000	-7.62900E-007	-5.99601E-002	7.69499E-003	3.57850E+000	9	...........
	85	1.14167	1.79270E-003	-9.89370E-005	0.00000E+000	-1.77364E-007	-5.99601E-002	1.75975E-003	3.57850E+000	9	...........
STARTTIMEOFFSET	QUANT	1946.692	Start Time Offset (s)
