EXPLAIN
TAG	PWR800_DISCHARGE
TITLE	LABEL	PWR Cyclic Charge Discharge (Cell) - Discharge Step	Test &Identifier
DATE	LABEL	13-7-2017	Date
TIME	LABEL	15:34:33	Time
NOTES	NOTES	2	&Notes...
	supercap test cell
	6M KOH
PSTAT	PSTAT	IFC5000-01520	Potentiostat
CAPACITY	QUANT	1.00000E-003	Capacity (A-hr)
CELLTYPE	SELECTOR	1	&Cell Type
WORKINGCONNECTION	SELECTOR	0	&Working Lead
MAXDISCHARGETIME	VARIABLEANDUNITS	1.00000E+002	s	1.00000E+002	second(s)	Max &Discharge Time
DISCHARGEMODE	MULTIPARAM	0	1.00000E-004	&Discharge Mode	Constant Current	Amp(s)
SAMPLETIME	QUANT	1.00000E-002	Sa&mple Period (s)
DISCHARGESTOPAT1	MULTIPARAM	3	0.00000E+000	Discharge Stop At &1	Voltage < Limit	V
DISCHARGESTOPAT2	MULTIPARAM	0	0.00000E+000	Discharge Stop At &2	None	N/A
AESBHCSELECTOR	TOGGLE	F	Save Both Half Cells
IRCOMP	TOGGLE	F	IR &Measure
EOC	QUANT	0	Open Circuit (V)
SEQUENCER	TOGGLE	TRUE	Run as Sequence
PSTATMODEL	IQUANT	53	Pstat Model
PSTATSECTION	LABEL	IFC5000-01520	Pstat Section
PSTATSERIALNO	LABEL	01520	Pstat Serial Number
CTRLMODE	IQUANT	0	Control Mode
ELECTROMETER	IQUANT	1	RE=0 or CS=1
IESTAB	IQUANT	0	I/E Stability
CASPEED	IQUANT	4	Control Amp Speed
CONVENTION	IQUANT	1	Current Convention
ICHRANGE	IQUANT	2	Ich Range
ICHRANGEMODE	TOGGLE	T	Ich Auto Range
ICHOFFSETENABLE	TOGGLE	F	Ich Offset Enable
ICHOFFSET	QUANT	0	Ich Offset (V)
ICHFILTER	IQUANT	1	Ich Filter
VCHRANGE	IQUANT	2	Vch Range
VCHRANGEMODE	TOGGLE	T	Vch Auto Range
VCHOFFSETENABLE	TOGGLE	F	Vch Offset Enable
VCHOFFSET	QUANT	0	Vch Offset (V)
VCHFILTER	IQUANT	1	Vch Filter
IERANGELOWERLIMIT	IQUANT	9	I/E Range Lower Limit
IERANGEMODE	TOGGLE	F	I/E AutoRange
IERANGE	IQUANT	9	I/E Range
ACHSELECT	IQUANT	1	Ach Select
ACHRANGE	IQUANT	2	Ach Range
ACHOFFSETENABLE	TOGGLE	F	Ach Offset Enable
ACHOFFSET	QUANT	0	Ach Offset (V)
ACHFILTER	IQUANT	1	Ach Filter
CABLEID	IQUANT	14	Cable ID
DCCALDATE	LABEL	5-7-2017	DC Calibration Date
ACCALDATE	LABEL	12/3/2015	AC Calibration Date
FRAMEWORKVERSION	QUANT	7.01	Framework Version
INSTRUMENTVERSION	LABEL	4.00	Instrument Version
CURVE	TABLE	87
	Pt	T	Vf	Im	Vu	Pwr	Sig	Ach	Temp	IERange	Over
	#	s	V	A	V	W	V	V	deg C	#	bits
	0	0.013333	8.47220E-001	-9.82519E-005	0.00000E+000	-8.32409E-005	-5.99601E-002	8.47566E-001	3.58000E+000	9	...........
	1	0.026667	8.33124E-001	-9.90551E-005	0.00000E+000	-8.25253E-005	-5.99601E-002	8.33433E-001	3.58000E+000	9	...........
	2	0.04	8.19872E-001	-9.89301E-005	0.00000E+000	-8.11100E-005	-5.99601E-002	8.20203E-001	3.58000E+000	9	...........
	3	0.053333	8.07200E-001	-9.82644E-005	0.00000E+000	-7.93190E-005	-5.99601E-002	8.07492E-001	3.58000E+000	9	...........
	4	0.066667	7.94923E-001	-9.91093E-005	0.00000E+000	-7.87843E-005	-5.99601E-002	7.95222E-001	3.58000E+000	9	...........
	5	0.08	7.82943E-001	-9.92906E-005	0.00000E+000	-7.77389E-005	-5.99601E-002	7.83209E-001	3.58000E+000	9	...........
	6	0.093333	7.71173E-001	-9.89218E-005	0.00000E+000	-7.62858E-005	-5.99601E-002	7.71456E-001	3.58000E+000	9	...........
	7	0.106667	7.59567E-001	-9.86884E-005	0.00000E+000	-7.49605E-005	-5.99601E-002	7.59831E-001	3.58000E+000	9	...........
	8	0.12	7.48094E-001	-9.89853E-005	0.00000E+000	-7.40504E-005	-5.99601E-002	7.48356E-001	3.58000E+000	9	...........
	9	0.133333	7.36700E-001	-9.90635E-005	0.00000E+000	-7.29801E-005	-5.99601E-002	7.36971E-001	3.58000E+000	9	...........
	10	0.146667	7.25403E-001	-9.88301E-005	0.00000E+000	-7.16917E-005	-5.99601E-002	7.25658E-001	3.58000E+000	9	...........
	11	0.16	7.14127E-001	-9.95261E-005	0.00000E+000	-7.10742E-005	-5.99601E-002	7.14391E-001	3.58000E+000	9	...........
	12	0.173333	7.02927E-001	-9.90385E-005	0.00000E+000	-6.96169E-005	-5.99601E-002	7.03210E-001	3.57904E+000	9	...........
	13	0.186667	6.91747E-001	-9.86926E-005	0.00000E+000	-6.82703E-005	-5.99601E-002	6.92009E-001	3.57890E+000	9	...........
	14	0.2	6.80627E-001	-9.88812E-005	0.00000E+000	-6.73012E-005	-5.99601E-002	6.80892E-001	3.57890E+000	9	...........
	15	0.213333	6.69494E-001	-9.85717E-005	0.00000E+000	-6.59932E-005	-5.99601E-002	6.69782E-001	3.57890E+000	9	...........
	16	0.226667	6.58381E-001	-9.89051E-005	0.00000E+000	-6.51173E-005	-5.99601E-002	6.58657E-001	3.57890E+000	9	...........
	17	0.24	6.47327E-001	-9.83925E-005	0.00000E+000	-6.36921E-005	-5.99601E-002	6.47596E-001	3.57890E+000	9	...........
	18	0.253333	6.36248E-001	-9.87197E-005	0.00000E+000	-6.28102E-005	-5.99601E-002	6.36522E-001	3.57890E+000	9	...........
	19	0.266667	6.25243E-001	-9.85519E-005	0.00000E+000	-6.16188E-005	-5.99601E-002	6.25501E-001	3.57890E+000	9	...........
	20	0.28	6.14182E-001	-9.88207E-005	0.00000E+000	-6.06939E-005	-5.99601E-002	6.14482E-001	3.57890E+000	9	...........
	21	0.293333	6.03186E-001	-9.87530E-005	0.00000E+000	-5.95664E-005	-5.99601E-002	6.03495E-001	3.57890E+000	9	...........
	22	0.306667	5.92227E-001	-9.87103E-005	0.00000E+000	-5.84589E-005	-5.99601E-002	5.92542E-001	3.57890E+000	9	...........
	23	0.32	5.81289E-001	-9.93021E-005	0.00000E+000	-5.77232E-005	-5.99601E-002	5.81590E-001	3.57890E+000	9	...........
	24	0.333333	5.70388E-001	-9.92531E-005	0.00000E+000	-5.66128E-005	-5.99601E-002	5.70673E-001	3.57890E+000	9	...........
	25	0.346667	5.59488E-001	-9.90354E-005	0.00000E+000	-5.54091E-005	-5.99601E-002	5.59781E-001	3.57890E+000	9	...........
	26	0.36	5.48625E-001	-9.87697E-005	0.00000E+000	-5.41876E-005	-5.99601E-002	5.48930E-001	3.57890E+000	9	...........
	27	0.373333	5.37848E-001	-9.86196E-005	0.00000E+000	-5.30423E-005	-5.99601E-002	5.38104E-001	3.57890E+000	9	...........
	28	0.386667	5.27035E-001	-9.85800E-005	0.00000E+000	-5.19551E-005	-5.99601E-002	5.27344E-001	3.57890E+000	9	...........
	29	0.4	5.16330E-001	-9.91104E-005	0.00000E+000	-5.11736E-005	-5.99601E-002	5.16579E-001	3.57890E+000	9	...........
	30	0.413333	5.05602E-001	-9.93677E-005	0.00000E+000	-5.02405E-005	-5.99601E-002	5.05883E-001	3.57890E+000	9	...........
	31	0.426667	4.95006E-001	-9.99230E-005	0.00000E+000	-4.94625E-005	-5.99601E-002	4.95243E-001	3.57890E+000	9	...........
	32	0.44	4.84625E-001	-9.93458E-005	0.00000E+000	-4.81455E-005	-5.99601E-002	4.84746E-001	3.57890E+000	9	...........
	33	0.453333	4.74292E-001	-9.83373E-005	0.00000E+000	-4.66406E-005	-5.99601E-002	4.74387E-001	3.57890E+000	9	...........
	34	0.466667	4.63828E-001	-9.92666E-005	0.00000E+000	-4.60426E-005	-5.99601E-002	4.63920E-001	3.57890E+000	9	...........
	35	0.48	4.53424E-001	-9.93479E-005	0.00000E+000	-4.50467E-005	-5.99601E-002	4.53517E-001	3.57890E+000	9	...........
	36	0.493333	4.43084E-001	-9.85248E-005	0.00000E+000	-4.36548E-005	-5.99601E-002	4.43178E-001	3.57890E+000	9	...........
	37	0.506667	4.32815E-001	-9.91520E-005	0.00000E+000	-4.29145E-005	-5.99601E-002	4.32896E-001	3.57890E+000	9	...........
	38	0.52	4.22599E-001	-9.87540E-005	0.00000E+000	-4.17333E-005	-5.99601E-002	4.22678E-001	3.57890E+000	9	...........
	39	0.533333	4.12447E-001	-9.84363E-005	0.00000E+000	-4.05997E-005	-5.99601E-002	4.12520E-001	3.57890E+000	9	...........
	40	0.546667	4.02362E-001	-9.91041E-005	0.00000E+000	-3.98757E-005	-5.99601E-002	4.02435E-001	3.57890E+000	9	...........
	41	0.56	3.92340E-001	-9.92666E-005	0.00000E+000	-3.89462E-005	-5.99601E-002	3.92415E-001	3.57890E+000	9	...........
	42	0.573333	3.82388E-001	-9.96928E-005	0.00000E+000	-3.81214E-005	-5.99601E-002	3.82456E-001	3.57890E+000	9	...........
	43	0.586667	3.72491E-001	-9.85592E-005	0.00000E+000	-3.67124E-005	-5.99601E-002	3.72557E-001	3.57890E+000	9	...........
	44	0.6	3.62653E-001	-9.90374E-005	0.00000E+000	-3.59162E-005	-5.99601E-002	3.62721E-001	3.57890E+000	9	...........
	45	0.613333	3.52878E-001	-9.90020E-005	0.00000E+000	-3.49356E-005	-5.99601E-002	3.52940E-001	3.57890E+000	9	...........
	46	0.626667	3.43154E-001	-9.84873E-005	0.00000E+000	-3.37963E-005	-5.99601E-002	3.43219E-001	3.57890E+000	9	...........
	47	0.64	3.33493E-001	-9.86717E-005	0.00000E+000	-3.29064E-005	-5.99601E-002	3.33552E-001	3.57890E+000	9	...........
	48	0.653333	3.23887E-001	-9.93167E-005	0.00000E+000	-3.21673E-005	-5.99601E-002	3.23944E-001	3.57890E+000	9	...........
	49	0.666667	3.14331E-001	-9.83894E-005	0.00000E+000	-3.09269E-005	-5.99601E-002	3.14386E-001	3.57890E+000	9	...........
	50	0.68	3.04833E-001	-9.84456E-005	0.00000E+000	-3.00095E-005	-5.99601E-002	3.04883E-001	3.57890E+000	9	...........
	51	0.693333	2.95382E-001	-9.88770E-005	0.00000E+000	-2.92065E-005	-5.99601E-002	2.95430E-001	3.57890E+000	9	...........
	52	0.706667	2.85980E-001	-9.92667E-005	0.00000E+000	-2.83883E-005	-5.99601E-002	2.86028E-001	3.57890E+000	9	...........
	53	0.72	2.76630E-001	-9.95063E-005	0.00000E+000	-2.75264E-005	-5.99601E-002	2.76674E-001	3.57890E+000	9	...........
	54	0.733333	2.67320E-001	-9.82935E-005	0.00000E+000	-2.62759E-005	-5.99601E-002	2.67372E-001	3.57890E+000	9	...........
	55	0.746667	2.58068E-001	-9.92375E-005	0.00000E+000	-2.56100E-005	-5.99601E-002	2.58114E-001	3.57890E+000	9	...........
	56	0.76	2.48863E-001	-9.83592E-005	0.00000E+000	-2.44779E-005	-5.99601E-002	2.48902E-001	3.57890E+000	9	...........
	57	0.773333	2.39705E-001	-9.83123E-005	0.00000E+000	-2.35659E-005	-5.99601E-002	2.39739E-001	3.57890E+000	9	...........
	58	0.786667	2.30587E-001	-9.86457E-005	0.00000E+000	-2.27464E-005	-5.99601E-002	2.30625E-001	3.57890E+000	9	...........
	59	0.8	2.21520E-001	-9.80695E-005	0.00000E+000	-2.17244E-005	-5.99601E-002	2.21554E-001	3.57890E+000	9	...........
	60	0.813333	2.12502E-001	-9.90239E-005	0.00000E+000	-2.10427E-005	-5.99601E-002	2.12532E-001	3.57890E+000	9	...........
	61	0.826667	2.03538E-001	-9.87030E-005	0.00000E+000	-2.00898E-005	-5.99601E-002	2.03568E-001	3.57890E+000	9	...........
	62	0.84	1.94625E-001	-9.93271E-005	0.00000E+000	-1.93315E-005	-5.99601E-002	1.94659E-001	3.57890E+000	9	...........
	63	0.853333	1.85780E-001	-9.85905E-005	0.00000E+000	-1.83161E-005	-5.99601E-002	1.85805E-001	3.57890E+000	9	...........
	64	0.866667	1.76978E-001	-9.88103E-005	0.00000E+000	-1.74873E-005	-5.99601E-002	1.77004E-001	3.57890E+000	9	...........
	65	0.88	1.68239E-001	-9.89614E-005	0.00000E+000	-1.66491E-005	-5.99601E-002	1.68264E-001	3.57890E+000	9	...........
	66	0.893333	1.59567E-001	-9.83852E-005	0.00000E+000	-1.56990E-005	-5.99601E-002	1.59587E-001	3.57890E+000	9	...........
	67	0.906667	1.50958E-001	-9.85071E-005	0.00000E+000	-1.48704E-005	-5.99601E-002	1.50975E-001	3.57890E+000	9	...........
	68	0.92	1.42408E-001	-9.87957E-005	0.00000E+000	-1.40693E-005	-5.99601E-002	1.42427E-001	3.57890E+000	9	...........
	69	0.933333	1.33935E-001	-9.95886E-005	0.00000E+000	-1.33384E-005	-5.99601E-002	1.33940E-001	3.57890E+000	9	...........
	70	0.946667	1.25530E-001	-9.89343E-005	0.00000E+000	-1.24193E-005	-5.99601E-002	1.25538E-001	3.57890E+000	9	...........
	71	0.96	1.17200E-001	-9.97980E-005	0.00000E+000	-1.16964E-005	-5.99601E-002	1.17204E-001	3.57890E+000	9	...........
	72	0.97333	1.08942E-001	-9.85738E-005	0.00000E+000	-1.07388E-005	-5.99601E-002	1.08945E-001	3.57890E+000	9	...........
	73	0.98667	1.00756E-001	-9.87999E-005	0.00000E+000	-9.95465E-006	-5.99601E-002	1.00760E-001	3.57890E+000	9	...........
	74	1	9.26468E-002	-9.87728E-005	0.00000E+000	-9.15098E-006	-5.99601E-002	9.26515E-002	3.57890E+000	9	...........
	75	1.01333	8.46115E-002	-9.93750E-005	0.00000E+000	-8.40827E-006	-5.99601E-002	8.46174E-002	3.57890E+000	9	...........
	76	1.02667	7.66535E-002	-9.92448E-005	0.00000E+000	-7.60746E-006	-5.99601E-002	7.66489E-002	3.57890E+000	9	...........
	77	1.04	6.87623E-002	-9.95302E-005	0.00000E+000	-6.84393E-006	-5.99601E-002	6.87554E-002	3.57890E+000	9	...........
	78	1.05333	6.09349E-002	-9.82289E-005	0.00000E+000	-5.98557E-006	-5.99601E-002	6.09294E-002	3.57890E+000	9	...........
	79	1.06667	5.31818E-002	-9.94167E-005	0.00000E+000	-5.28716E-006	-5.99601E-002	5.31764E-002	3.57890E+000	9	...........
	80	1.08	4.55329E-002	-9.89978E-005	0.00000E+000	-4.50766E-006	-5.99601E-002	4.55217E-002	3.57890E+000	9	...........
	81	1.09333	3.79230E-002	-9.90343E-005	0.00000E+000	-3.75568E-006	-5.99601E-002	3.79101E-002	3.57890E+000	9	...........
	82	1.10667	3.03731E-002	-9.92448E-005	0.00000E+000	-3.01437E-006	-5.99601E-002	3.03555E-002	3.57890E+000	9	...........
	83	1.12	2.28908E-002	-9.89134E-005	0.00000E+000	-2.26421E-006	-5.99601E-002	2.28709E-002	3.57890E+000	9	...........
	84	1.13333	1.54749E-002	-9.79956E-005	0.00000E+000	-1.51648E-006	-5.99601E-002	1.54487E-002	3.57890E+000	9	...........
	85	1.14667	8.12135E-003	-9.87697E-005	0.00000E+000	-8.02143E-007	-5.99601E-002	8.08742E-003	3.57890E+000	9	...........
	86	1.15667	1.74008E-003	-9.82380E-005	0.00000E+000	-1.70942E-007	-5.99601E-002	1.70608E-003	3.57890E+000	9	...........
STARTTIMEOFFSET	QUANT	1471.746	Start Time Offset (s)
