EXPLAIN
TAG	PWR800_DISCHARGE
TITLE	LABEL	PWR Cyclic Charge Discharge (Cell) - Discharge Step	Test &Identifier
DATE	LABEL	13-7-2017	Date
TIME	LABEL	15:16:31	Time
NOTES	NOTES	2	&Notes...
	supercap test cell
	6M KOH
PSTAT	PSTAT	IFC5000-01520	Potentiostat
CAPACITY	QUANT	1.00000E-003	Capacity (A-hr)
CELLTYPE	SELECTOR	1	&Cell Type
WORKINGCONNECTION	SELECTOR	0	&Working Lead
MAXDISCHARGETIME	VARIABLEANDUNITS	1.00000E+002	s	1.00000E+002	second(s)	Max &Discharge Time
DISCHARGEMODE	MULTIPARAM	0	1.00000E-004	&Discharge Mode	Constant Current	Amp(s)
SAMPLETIME	QUANT	1.00000E-002	Sa&mple Period (s)
DISCHARGESTOPAT1	MULTIPARAM	3	0.00000E+000	Discharge Stop At &1	Voltage < Limit	V
DISCHARGESTOPAT2	MULTIPARAM	0	0.00000E+000	Discharge Stop At &2	None	N/A
AESBHCSELECTOR	TOGGLE	F	Save Both Half Cells
IRCOMP	TOGGLE	F	IR &Measure
EOC	QUANT	0	Open Circuit (V)
SEQUENCER	TOGGLE	TRUE	Run as Sequence
PSTATMODEL	IQUANT	53	Pstat Model
PSTATSECTION	LABEL	IFC5000-01520	Pstat Section
PSTATSERIALNO	LABEL	01520	Pstat Serial Number
CTRLMODE	IQUANT	0	Control Mode
ELECTROMETER	IQUANT	1	RE=0 or CS=1
IESTAB	IQUANT	0	I/E Stability
CASPEED	IQUANT	4	Control Amp Speed
CONVENTION	IQUANT	1	Current Convention
ICHRANGE	IQUANT	2	Ich Range
ICHRANGEMODE	TOGGLE	T	Ich Auto Range
ICHOFFSETENABLE	TOGGLE	F	Ich Offset Enable
ICHOFFSET	QUANT	0	Ich Offset (V)
ICHFILTER	IQUANT	1	Ich Filter
VCHRANGE	IQUANT	2	Vch Range
VCHRANGEMODE	TOGGLE	T	Vch Auto Range
VCHOFFSETENABLE	TOGGLE	F	Vch Offset Enable
VCHOFFSET	QUANT	0	Vch Offset (V)
VCHFILTER	IQUANT	1	Vch Filter
IERANGELOWERLIMIT	IQUANT	9	I/E Range Lower Limit
IERANGEMODE	TOGGLE	F	I/E AutoRange
IERANGE	IQUANT	9	I/E Range
ACHSELECT	IQUANT	1	Ach Select
ACHRANGE	IQUANT	2	Ach Range
ACHOFFSETENABLE	TOGGLE	F	Ach Offset Enable
ACHOFFSET	QUANT	0	Ach Offset (V)
ACHFILTER	IQUANT	1	Ach Filter
CABLEID	IQUANT	14	Cable ID
DCCALDATE	LABEL	5-7-2017	DC Calibration Date
ACCALDATE	LABEL	12/3/2015	AC Calibration Date
FRAMEWORKVERSION	QUANT	7.01	Framework Version
INSTRUMENTVERSION	LABEL	4.00	Instrument Version
CURVE	TABLE	90
	Pt	T	Vf	Im	Vu	Pwr	Sig	Ach	Temp	IERange	Over
	#	s	V	A	V	W	V	V	deg C	#	bits
	0	0.013333	8.52948E-001	-9.92052E-005	0.00000E+000	-8.46169E-005	-5.99601E-002	8.53291E-001	3.57920E+000	9	...........
	1	0.026667	8.39403E-001	-9.92073E-005	0.00000E+000	-8.32749E-005	-5.99601E-002	8.39758E-001	3.57920E+000	9	...........
	2	0.04	8.26708E-001	-9.94511E-005	0.00000E+000	-8.22170E-005	-5.99601E-002	8.27045E-001	3.57920E+000	9	...........
	3	0.053333	8.14599E-001	-9.89280E-005	0.00000E+000	-8.05867E-005	-5.99601E-002	8.14885E-001	3.57920E+000	9	...........
	4	0.066667	8.02862E-001	-9.90260E-005	0.00000E+000	-7.95042E-005	-5.99601E-002	8.03182E-001	3.57920E+000	9	...........
	5	0.08	7.91413E-001	-9.80487E-005	0.00000E+000	-7.75970E-005	-5.99601E-002	7.91717E-001	3.57920E+000	9	...........
	6	0.093333	7.80174E-001	-9.85821E-005	0.00000E+000	-7.69112E-005	-5.99601E-002	7.80499E-001	3.57920E+000	9	...........
	7	0.106667	7.69132E-001	-9.91218E-005	0.00000E+000	-7.62378E-005	-5.99601E-002	7.69437E-001	3.57920E+000	9	...........
	8	0.12	7.58180E-001	-9.86728E-005	0.00000E+000	-7.48118E-005	-5.99601E-002	7.58491E-001	3.57920E+000	9	...........
	9	0.133333	7.47370E-001	-9.88103E-005	0.00000E+000	-7.38479E-005	-5.99601E-002	7.47661E-001	3.57920E+000	9	...........
	10	0.146667	7.36589E-001	-9.86311E-005	0.00000E+000	-7.26505E-005	-5.99601E-002	7.36899E-001	3.57920E+000	9	...........
	11	0.16	7.25925E-001	-9.91614E-005	0.00000E+000	-7.19837E-005	-5.99601E-002	7.26205E-001	3.57920E+000	9	...........
	12	0.173333	7.15253E-001	-9.87718E-005	0.00000E+000	-7.06468E-005	-5.99601E-002	7.15539E-001	3.57920E+000	9	...........
	13	0.186667	7.04632E-001	-9.80351E-005	0.00000E+000	-6.90787E-005	-5.99601E-002	7.04918E-001	3.57920E+000	9	...........
	14	0.2	6.94054E-001	-9.89937E-005	0.00000E+000	-6.87070E-005	-5.99601E-002	6.94339E-001	3.57920E+000	9	...........
	15	0.213333	6.83477E-001	-9.81560E-005	0.00000E+000	-6.70873E-005	-5.99601E-002	6.83752E-001	3.57920E+000	9	...........
	16	0.226667	6.72931E-001	-9.93781E-005	0.00000E+000	-6.68747E-005	-5.99601E-002	6.73203E-001	3.57920E+000	9	...........
	17	0.24	6.62385E-001	-9.88655E-005	0.00000E+000	-6.54870E-005	-5.99601E-002	6.62659E-001	3.57920E+000	9	...........
	18	0.253333	6.51870E-001	-9.85967E-005	0.00000E+000	-6.42722E-005	-5.99601E-002	6.52147E-001	3.57920E+000	9	...........
	19	0.266667	6.41366E-001	-9.89541E-005	0.00000E+000	-6.34658E-005	-5.99601E-002	6.41629E-001	3.57920E+000	9	...........
	20	0.28	6.30841E-001	-9.95167E-005	0.00000E+000	-6.27792E-005	-5.99601E-002	6.31089E-001	3.57920E+000	9	...........
	21	0.293333	6.20363E-001	-9.80685E-005	0.00000E+000	-6.08381E-005	-5.99601E-002	6.20608E-001	3.57920E+000	9	...........
	22	0.306667	6.09831E-001	-9.93906E-005	0.00000E+000	-6.06114E-005	-5.99601E-002	6.10126E-001	3.57920E+000	9	...........
	23	0.32	5.99383E-001	-9.95907E-005	0.00000E+000	-5.96929E-005	-5.99601E-002	5.99653E-001	3.57920E+000	9	...........
	24	0.333333	5.88933E-001	-9.85780E-005	0.00000E+000	-5.80558E-005	-5.99601E-002	5.89182E-001	3.57920E+000	9	...........
	25	0.346667	5.78473E-001	-9.97490E-005	0.00000E+000	-5.77021E-005	-5.99601E-002	5.78740E-001	3.57920E+000	9	...........
	26	0.36	5.68094E-001	-9.85967E-005	0.00000E+000	-5.60122E-005	-5.99601E-002	5.68327E-001	3.57920E+000	9	...........
	27	0.373333	5.57655E-001	-9.81154E-005	0.00000E+000	-5.47145E-005	-5.99601E-002	5.57916E-001	3.57920E+000	9	...........
	28	0.386667	5.47295E-001	-9.79289E-005	0.00000E+000	-5.35960E-005	-5.99601E-002	5.47531E-001	3.57920E+000	9	...........
	29	0.4	5.36945E-001	-9.89833E-005	0.00000E+000	-5.31486E-005	-5.99601E-002	5.37192E-001	3.57920E+000	9	...........
	30	0.413333	5.26595E-001	-9.91322E-005	0.00000E+000	-5.22025E-005	-5.99601E-002	5.26846E-001	3.57920E+000	9	...........
	31	0.426667	5.16311E-001	-9.86884E-005	0.00000E+000	-5.09539E-005	-5.99601E-002	5.16537E-001	3.57920E+000	9	...........
	32	0.44	5.06008E-001	-9.89718E-005	0.00000E+000	-5.00806E-005	-5.99601E-002	5.06274E-001	3.57920E+000	9	...........
	33	0.453333	4.95818E-001	-9.85738E-005	0.00000E+000	-4.88747E-005	-5.99601E-002	4.96058E-001	3.57920E+000	9	...........
	34	0.466667	4.85775E-001	-9.92198E-005	0.00000E+000	-4.81985E-005	-5.99601E-002	4.85954E-001	3.57920E+000	9	...........
	35	0.48	4.75849E-001	-1.00196E-004	0.00000E+000	-4.76781E-005	-5.99601E-002	4.75956E-001	3.57920E+000	9	...........
	36	0.493333	4.65755E-001	-9.87259E-005	0.00000E+000	-4.59820E-005	-5.99601E-002	4.65851E-001	3.57920E+000	9	...........
	37	0.506667	4.55702E-001	-9.84123E-005	0.00000E+000	-4.48467E-005	-5.99601E-002	4.55797E-001	3.57920E+000	9	...........
	38	0.52	4.45692E-001	-9.83300E-005	0.00000E+000	-4.38249E-005	-5.99601E-002	4.45790E-001	3.57920E+000	9	...........
	39	0.533333	4.35741E-001	-9.89259E-005	0.00000E+000	-4.31061E-005	-5.99601E-002	4.35829E-001	3.57920E+000	9	...........
	40	0.546667	4.25837E-001	-9.90739E-005	0.00000E+000	-4.21893E-005	-5.99601E-002	4.25927E-001	3.57920E+000	9	...........
	41	0.56	4.15985E-001	-9.86801E-005	0.00000E+000	-4.10494E-005	-5.99601E-002	4.16072E-001	3.57920E+000	9	...........
	42	0.573333	4.06182E-001	-9.80195E-005	0.00000E+000	-3.98137E-005	-5.99601E-002	4.06263E-001	3.57920E+000	9	...........
	43	0.586667	3.96429E-001	-9.79403E-005	0.00000E+000	-3.88264E-005	-5.99601E-002	3.96509E-001	3.57920E+000	9	...........
	44	0.6	3.86729E-001	-9.91823E-005	0.00000E+000	-3.83567E-005	-5.99601E-002	3.86805E-001	3.57920E+000	9	...........
	45	0.613333	3.77079E-001	-9.89301E-005	0.00000E+000	-3.73045E-005	-5.99601E-002	3.77153E-001	3.57920E+000	9	...........
	46	0.626667	3.67481E-001	-9.83685E-005	0.00000E+000	-3.61486E-005	-5.99601E-002	3.67551E-001	3.57920E+000	9	...........
	47	0.64	3.57925E-001	-9.94677E-005	0.00000E+000	-3.56020E-005	-5.99601E-002	3.57994E-001	3.57920E+000	9	...........
	48	0.653333	3.48426E-001	-9.86238E-005	0.00000E+000	-3.43631E-005	-5.99601E-002	3.48492E-001	3.57920E+000	9	...........
	49	0.666667	3.38971E-001	-9.95282E-005	0.00000E+000	-3.37372E-005	-5.99601E-002	3.39039E-001	3.57920E+000	9	...........
	50	0.68	3.29573E-001	-9.87020E-005	0.00000E+000	-3.25295E-005	-5.99601E-002	3.29631E-001	3.57920E+000	9	...........
	51	0.693333	3.20215E-001	-9.93437E-005	0.00000E+000	-3.18114E-005	-5.99601E-002	3.20276E-001	3.57920E+000	9	...........
	52	0.706667	3.10909E-001	-9.83769E-005	0.00000E+000	-3.05862E-005	-5.99601E-002	3.10960E-001	3.57950E+000	9	...........
	53	0.72	3.01635E-001	-9.87645E-005	0.00000E+000	-2.97908E-005	-5.99601E-002	3.01695E-001	3.58000E+000	9	...........
	54	0.733333	2.92408E-001	-9.88926E-005	0.00000E+000	-2.89170E-005	-5.99601E-002	2.92468E-001	3.58000E+000	9	...........
	55	0.746667	2.83226E-001	-1.00217E-004	0.00000E+000	-2.83840E-005	-5.99601E-002	2.83282E-001	3.58000E+000	9	...........
	56	0.76	2.74085E-001	-9.83779E-005	0.00000E+000	-2.69640E-005	-5.99601E-002	2.74139E-001	3.58000E+000	9	...........
	57	0.773333	2.64979E-001	-9.90406E-005	0.00000E+000	-2.62437E-005	-5.99601E-002	2.65035E-001	3.58000E+000	9	...........
	58	0.786667	2.55920E-001	-9.87092E-005	0.00000E+000	-2.52617E-005	-5.99601E-002	2.55970E-001	3.58000E+000	9	...........
	59	0.8	2.46906E-001	-9.73829E-005	0.00000E+000	-2.40444E-005	-5.99601E-002	2.46949E-001	3.58000E+000	9	...........
	60	0.813333	2.37926E-001	-9.89801E-005	0.00000E+000	-2.35500E-005	-5.99601E-002	2.37965E-001	3.58000E+000	9	...........
	61	0.826667	2.28984E-001	-9.91093E-005	0.00000E+000	-2.26944E-005	-5.99601E-002	2.29024E-001	3.58000E+000	9	...........
	62	0.84	2.20087E-001	-9.85728E-005	0.00000E+000	-2.16946E-005	-5.99601E-002	2.20121E-001	3.58000E+000	9	...........
	63	0.853333	2.11227E-001	-9.89895E-005	0.00000E+000	-2.09093E-005	-5.99601E-002	2.11265E-001	3.58000E+000	9	...........
	64	0.866667	2.02420E-001	-9.95698E-005	0.00000E+000	-2.01549E-005	-5.99601E-002	2.02450E-001	3.58000E+000	9	...........
	65	0.88	1.93646E-001	-9.87582E-005	0.00000E+000	-1.91241E-005	-5.99601E-002	1.93678E-001	3.58000E+000	9	...........
	66	0.893333	1.84925E-001	-9.90489E-005	0.00000E+000	-1.83166E-005	-5.99601E-002	1.84957E-001	3.58000E+000	9	...........
	67	0.906667	1.76250E-001	-9.84602E-005	0.00000E+000	-1.73536E-005	-5.99601E-002	1.76282E-001	3.58000E+000	9	...........
	68	0.92	1.67631E-001	-9.90229E-005	0.00000E+000	-1.65993E-005	-5.99601E-002	1.67655E-001	3.58000E+000	9	...........
	69	0.933333	1.59066E-001	-9.90458E-005	0.00000E+000	-1.57548E-005	-5.99601E-002	1.59088E-001	3.58000E+000	9	...........
	70	0.946667	1.50553E-001	-9.89426E-005	0.00000E+000	-1.48961E-005	-5.99601E-002	1.50567E-001	3.58000E+000	9	...........
	71	0.96	1.42095E-001	-9.93292E-005	0.00000E+000	-1.41141E-005	-5.99601E-002	1.42112E-001	3.58000E+000	9	...........
	72	0.97333	1.33700E-001	-9.86863E-005	0.00000E+000	-1.31944E-005	-5.99601E-002	1.33717E-001	3.58000E+000	9	...........
	73	0.98667	1.25367E-001	-9.89874E-005	0.00000E+000	-1.24097E-005	-5.99601E-002	1.25382E-001	3.58000E+000	9	...........
	74	1	1.17095E-001	-9.91812E-005	0.00000E+000	-1.16136E-005	-5.99601E-002	1.17110E-001	3.58000E+000	9	...........
	75	1.01333	1.08893E-001	-9.87259E-005	0.00000E+000	-1.07505E-005	-5.99601E-002	1.08901E-001	3.58000E+000	9	...........
	76	1.02667	1.00761E-001	-9.89833E-005	0.00000E+000	-9.97364E-006	-5.99601E-002	1.00771E-001	3.58000E+000	9	...........
	77	1.04	9.26915E-002	-9.79987E-005	0.00000E+000	-9.08365E-006	-5.99601E-002	9.27012E-002	3.58000E+000	9	...........
	78	1.05333	8.46891E-002	-9.89708E-005	0.00000E+000	-8.38175E-006	-5.99601E-002	8.46951E-002	3.58000E+000	9	...........
	79	1.06667	7.67576E-002	-9.85550E-005	0.00000E+000	-7.56484E-006	-5.99601E-002	7.67602E-002	3.58000E+000	9	...........
	80	1.08	6.88910E-002	-9.85165E-005	0.00000E+000	-6.78690E-006	-5.99601E-002	6.88928E-002	3.58000E+000	9	...........
	81	1.09333	6.10909E-002	-9.86676E-005	0.00000E+000	-6.02769E-006	-5.99601E-002	6.10907E-002	3.58000E+000	9	...........
	82	1.10667	5.33598E-002	-9.90614E-005	0.00000E+000	-5.28589E-006	-5.99601E-002	5.33526E-002	3.58000E+000	9	...........
	83	1.12	4.57192E-002	-1.00200E-004	0.00000E+000	-4.58107E-006	-5.99601E-002	4.57106E-002	3.58000E+000	9	...........
	84	1.13333	3.81231E-002	-9.92802E-005	0.00000E+000	-3.78487E-006	-5.99601E-002	3.81097E-002	3.58000E+000	9	...........
	85	1.14667	3.05772E-002	-9.92729E-005	0.00000E+000	-3.03548E-006	-5.99601E-002	3.05649E-002	3.58000E+000	9	...........
	86	1.16	2.31023E-002	-9.95865E-005	0.00000E+000	-2.30068E-006	-5.99601E-002	2.30793E-002	3.58000E+000	9	...........
	87	1.17333	1.56817E-002	-9.87113E-005	0.00000E+000	-1.54796E-006	-5.99601E-002	1.56560E-002	3.58000E+000	9	...........
	88	1.18667	8.33000E-003	-9.92781E-005	0.00000E+000	-8.26986E-007	-5.99601E-002	8.30255E-003	3.58000E+000	9	...........
	89	1.19667	1.93635E-003	-9.99453E-005	0.00000E+000	-1.93529E-007	-5.99601E-002	1.90631E-003	3.58000E+000	9	...........
STARTTIMEOFFSET	QUANT	655.4991	Start Time Offset (s)
