EXPLAIN
TAG	PWR800_DISCHARGE
TITLE	LABEL	PWR Cyclic Charge Discharge (Cell) - Discharge Step	Test &Identifier
DATE	LABEL	13-7-2017	Date
TIME	LABEL	15:09:38	Time
NOTES	NOTES	2	&Notes...
	supercap test cell
	6M KOH
PSTAT	PSTAT	IFC5000-01520	Potentiostat
CAPACITY	QUANT	1.00000E-003	Capacity (A-hr)
CELLTYPE	SELECTOR	1	&Cell Type
WORKINGCONNECTION	SELECTOR	0	&Working Lead
MAXDISCHARGETIME	VARIABLEANDUNITS	1.00000E+002	s	1.00000E+002	second(s)	Max &Discharge Time
DISCHARGEMODE	MULTIPARAM	0	1.00000E-004	&Discharge Mode	Constant Current	Amp(s)
SAMPLETIME	QUANT	1.00000E-002	Sa&mple Period (s)
DISCHARGESTOPAT1	MULTIPARAM	3	0.00000E+000	Discharge Stop At &1	Voltage < Limit	V
DISCHARGESTOPAT2	MULTIPARAM	0	0.00000E+000	Discharge Stop At &2	None	N/A
AESBHCSELECTOR	TOGGLE	F	Save Both Half Cells
IRCOMP	TOGGLE	F	IR &Measure
EOC	QUANT	0	Open Circuit (V)
SEQUENCER	TOGGLE	TRUE	Run as Sequence
PSTATMODEL	IQUANT	53	Pstat Model
PSTATSECTION	LABEL	IFC5000-01520	Pstat Section
PSTATSERIALNO	LABEL	01520	Pstat Serial Number
CTRLMODE	IQUANT	0	Control Mode
ELECTROMETER	IQUANT	1	RE=0 or CS=1
IESTAB	IQUANT	0	I/E Stability
CASPEED	IQUANT	4	Control Amp Speed
CONVENTION	IQUANT	1	Current Convention
ICHRANGE	IQUANT	2	Ich Range
ICHRANGEMODE	TOGGLE	T	Ich Auto Range
ICHOFFSETENABLE	TOGGLE	F	Ich Offset Enable
ICHOFFSET	QUANT	0	Ich Offset (V)
ICHFILTER	IQUANT	1	Ich Filter
VCHRANGE	IQUANT	2	Vch Range
VCHRANGEMODE	TOGGLE	T	Vch Auto Range
VCHOFFSETENABLE	TOGGLE	F	Vch Offset Enable
VCHOFFSET	QUANT	0	Vch Offset (V)
VCHFILTER	IQUANT	1	Vch Filter
IERANGELOWERLIMIT	IQUANT	9	I/E Range Lower Limit
IERANGEMODE	TOGGLE	F	I/E AutoRange
IERANGE	IQUANT	9	I/E Range
ACHSELECT	IQUANT	1	Ach Select
ACHRANGE	IQUANT	2	Ach Range
ACHOFFSETENABLE	TOGGLE	F	Ach Offset Enable
ACHOFFSET	QUANT	0	Ach Offset (V)
ACHFILTER	IQUANT	1	Ach Filter
CABLEID	IQUANT	14	Cable ID
DCCALDATE	LABEL	5-7-2017	DC Calibration Date
ACCALDATE	LABEL	12/3/2015	AC Calibration Date
FRAMEWORKVERSION	QUANT	7.01	Framework Version
INSTRUMENTVERSION	LABEL	4.00	Instrument Version
CURVE	TABLE	92
	Pt	T	Vf	Im	Vu	Pwr	Sig	Ach	Temp	IERange	Over
	#	s	V	A	V	W	V	V	deg C	#	bits
	0	0.013333	8.54722E-001	-9.88593E-005	0.00000E+000	-8.44972E-005	-5.99601E-002	8.55077E-001	3.57880E+000	9	...........
	1	0.026667	8.41579E-001	-9.87520E-005	0.00000E+000	-8.31075E-005	-5.99601E-002	8.41926E-001	3.57880E+000	9	...........
	2	0.04	8.29264E-001	-9.88864E-005	0.00000E+000	-8.20029E-005	-5.99601E-002	8.29561E-001	3.57880E+000	9	...........
	3	0.053333	8.17477E-001	-9.86415E-005	0.00000E+000	-8.06372E-005	-5.99601E-002	8.17790E-001	3.57880E+000	9	...........
	4	0.066667	8.06097E-001	-9.84654E-005	0.00000E+000	-7.93727E-005	-5.99601E-002	8.06411E-001	3.57880E+000	9	...........
	5	0.08	7.95010E-001	-9.76038E-005	0.00000E+000	-7.75960E-005	-5.99601E-002	7.95317E-001	3.57880E+000	9	...........
	6	0.093333	7.84124E-001	-9.84175E-005	0.00000E+000	-7.71715E-005	-5.99601E-002	7.84426E-001	3.57880E+000	9	...........
	7	0.106667	7.73410E-001	-9.91093E-005	0.00000E+000	-7.66521E-005	-5.99601E-002	7.73729E-001	3.57880E+000	9	...........
	8	0.12	7.62846E-001	-9.87697E-005	0.00000E+000	-7.53460E-005	-5.99601E-002	7.63149E-001	3.57880E+000	9	...........
	9	0.133333	7.52358E-001	-9.97522E-005	0.00000E+000	-7.50494E-005	-5.99601E-002	7.52660E-001	3.57880E+000	9	...........
	10	0.146667	7.41962E-001	-9.95469E-005	0.00000E+000	-7.38600E-005	-5.99601E-002	7.42261E-001	3.57880E+000	9	...........
	11	0.16	7.31629E-001	-9.91843E-005	0.00000E+000	-7.25662E-005	-5.99601E-002	7.31919E-001	3.57880E+000	9	...........
	12	0.173333	7.21362E-001	-9.87301E-005	0.00000E+000	-7.12201E-005	-5.99601E-002	7.21639E-001	3.57880E+000	9	...........
	13	0.186667	7.11069E-001	-9.84102E-005	0.00000E+000	-6.99765E-005	-5.99601E-002	7.11370E-001	3.57880E+000	9	...........
	14	0.2	7.00864E-001	-9.82373E-005	0.00000E+000	-6.88510E-005	-5.99601E-002	7.01162E-001	3.57880E+000	9	...........
	15	0.213333	6.90653E-001	-9.93333E-005	0.00000E+000	-6.86049E-005	-5.99601E-002	6.90944E-001	3.57880E+000	9	...........
	16	0.226667	6.80495E-001	-9.91927E-005	0.00000E+000	-6.75002E-005	-5.99601E-002	6.80778E-001	3.57880E+000	9	...........
	17	0.24	6.70350E-001	-9.90541E-005	0.00000E+000	-6.64010E-005	-5.99601E-002	6.70605E-001	3.57880E+000	9	...........
	18	0.253333	6.60157E-001	-9.85519E-005	0.00000E+000	-6.50597E-005	-5.99601E-002	6.60441E-001	3.57880E+000	9	...........
	19	0.266667	6.50010E-001	-9.91666E-005	0.00000E+000	-6.44593E-005	-5.99601E-002	6.50267E-001	3.57880E+000	9	...........
	20	0.28	6.39848E-001	-9.89468E-005	0.00000E+000	-6.33109E-005	-5.99601E-002	6.40122E-001	3.57880E+000	9	...........
	21	0.293333	6.29693E-001	-9.90531E-005	0.00000E+000	-6.23730E-005	-5.99601E-002	6.29958E-001	3.57880E+000	9	...........
	22	0.306667	6.19569E-001	-9.90708E-005	0.00000E+000	-6.13812E-005	-5.99601E-002	6.19829E-001	3.57880E+000	9	...........
	23	0.32	6.09373E-001	-9.84581E-005	0.00000E+000	-5.99977E-005	-5.99601E-002	6.09687E-001	3.57911E+000	9	...........
	24	0.333333	5.99257E-001	-9.92344E-005	0.00000E+000	-5.94668E-005	-5.99601E-002	5.99567E-001	3.57930E+000	9	...........
	25	0.346667	5.89144E-001	-9.90104E-005	0.00000E+000	-5.83314E-005	-5.99601E-002	5.89440E-001	3.57930E+000	9	...........
	26	0.36	5.79038E-001	-9.93510E-005	0.00000E+000	-5.75280E-005	-5.99601E-002	5.79308E-001	3.57930E+000	9	...........
	27	0.373333	5.68940E-001	-9.89781E-005	0.00000E+000	-5.63126E-005	-5.99601E-002	5.69216E-001	3.57930E+000	9	...........
	28	0.386667	5.58842E-001	-9.77809E-005	0.00000E+000	-5.46441E-005	-5.99601E-002	5.59116E-001	3.57930E+000	9	...........
	29	0.4	5.48752E-001	-9.89457E-005	0.00000E+000	-5.42966E-005	-5.99601E-002	5.49020E-001	3.57930E+000	9	...........
	30	0.413333	5.38683E-001	-9.89999E-005	0.00000E+000	-5.33296E-005	-5.99601E-002	5.38961E-001	3.57930E+000	9	...........
	31	0.426667	5.28636E-001	-9.83477E-005	0.00000E+000	-5.19901E-005	-5.99601E-002	5.28906E-001	3.57930E+000	9	...........
	32	0.44	5.18628E-001	-9.82029E-005	0.00000E+000	-5.09308E-005	-5.99601E-002	5.18867E-001	3.57930E+000	9	...........
	33	0.453333	5.08602E-001	-9.93917E-005	0.00000E+000	-5.05508E-005	-5.99601E-002	5.08861E-001	3.57930E+000	9	...........
	34	0.466667	4.98639E-001	-9.95698E-005	0.00000E+000	-4.96495E-005	-5.99601E-002	4.98900E-001	3.57930E+000	9	...........
	35	0.48	4.88735E-001	-9.97334E-005	0.00000E+000	-4.87432E-005	-5.99601E-002	4.88964E-001	3.57930E+000	9	...........
	36	0.493333	4.79203E-001	-9.95698E-005	0.00000E+000	-4.77142E-005	-5.99601E-002	4.79295E-001	3.57930E+000	9	...........
	37	0.506667	4.69331E-001	-9.98522E-005	0.00000E+000	-4.68637E-005	-5.99601E-002	4.69425E-001	3.57930E+000	9	...........
	38	0.52	4.59504E-001	-9.77507E-005	0.00000E+000	-4.49168E-005	-5.99601E-002	4.59594E-001	3.57930E+000	9	...........
	39	0.533333	4.49702E-001	-9.84738E-005	0.00000E+000	-4.42839E-005	-5.99601E-002	4.49795E-001	3.57930E+000	9	...........
	40	0.546667	4.39948E-001	-9.90770E-005	0.00000E+000	-4.35887E-005	-5.99601E-002	4.40038E-001	3.57930E+000	9	...........
	41	0.56	4.30234E-001	-9.83560E-005	0.00000E+000	-4.23161E-005	-5.99601E-002	4.30321E-001	3.57930E+000	9	...........
	42	0.573333	4.20560E-001	-9.87863E-005	0.00000E+000	-4.15455E-005	-5.99601E-002	4.20646E-001	3.57930E+000	9	...........
	43	0.586667	4.10934E-001	-9.88218E-005	0.00000E+000	-4.06092E-005	-5.99601E-002	4.11009E-001	3.57930E+000	9	...........
	44	0.6	4.01346E-001	-9.86707E-005	0.00000E+000	-3.96011E-005	-5.99601E-002	4.01418E-001	3.57930E+000	9	...........
	45	0.613333	3.91805E-001	-9.78799E-005	0.00000E+000	-3.83498E-005	-5.99601E-002	3.91869E-001	3.57930E+000	9	...........
	46	0.626667	3.82296E-001	-9.81643E-005	0.00000E+000	-3.75278E-005	-5.99601E-002	3.82370E-001	3.57930E+000	9	...........
	47	0.64	3.72839E-001	-9.84852E-005	0.00000E+000	-3.67191E-005	-5.99601E-002	3.72907E-001	3.57930E+000	9	...........
	48	0.653333	3.63418E-001	-9.86488E-005	0.00000E+000	-3.58507E-005	-5.99601E-002	3.63490E-001	3.57930E+000	9	...........
	49	0.666667	3.54042E-001	-9.97115E-005	0.00000E+000	-3.53021E-005	-5.99601E-002	3.54109E-001	3.57930E+000	9	...........
	50	0.68	3.44710E-001	-9.91333E-005	0.00000E+000	-3.41722E-005	-5.99601E-002	3.44772E-001	3.57930E+000	9	...........
	51	0.693333	3.35414E-001	-9.98053E-005	0.00000E+000	-3.34761E-005	-5.99601E-002	3.35481E-001	3.57930E+000	9	...........
	52	0.706667	3.26164E-001	-9.92416E-005	0.00000E+000	-3.23690E-005	-5.99601E-002	3.26224E-001	3.57930E+000	9	...........
	53	0.72	3.16954E-001	-9.86665E-005	0.00000E+000	-3.12728E-005	-5.99601E-002	3.17014E-001	3.57930E+000	9	...........
	54	0.733333	3.07776E-001	-9.91395E-005	0.00000E+000	-3.05128E-005	-5.99601E-002	3.07831E-001	3.57930E+000	9	...........
	55	0.746667	2.98640E-001	-9.94125E-005	0.00000E+000	-2.96886E-005	-5.99601E-002	2.98691E-001	3.57930E+000	9	...........
	56	0.76	2.89544E-001	-9.79487E-005	0.00000E+000	-2.83605E-005	-5.99601E-002	2.89587E-001	3.57930E+000	9	...........
	57	0.773333	2.80476E-001	-9.93875E-005	0.00000E+000	-2.78758E-005	-5.99601E-002	2.80524E-001	3.57930E+000	9	...........
	58	0.786667	2.71445E-001	-9.88343E-005	0.00000E+000	-2.68281E-005	-5.99601E-002	2.71493E-001	3.57930E+000	9	...........
	59	0.8	2.62455E-001	-9.95532E-005	0.00000E+000	-2.61282E-005	-5.99601E-002	2.62498E-001	3.57930E+000	9	...........
	60	0.813333	2.53494E-001	-9.83560E-005	0.00000E+000	-2.49326E-005	-5.99601E-002	2.53537E-001	3.57930E+000	9	...........
	61	0.826667	2.44573E-001	-9.88739E-005	0.00000E+000	-2.41819E-005	-5.99601E-002	2.44614E-001	3.57930E+000	9	...........
	62	0.84	2.35691E-001	-9.93594E-005	0.00000E+000	-2.34181E-005	-5.99601E-002	2.35722E-001	3.57930E+000	9	...........
	63	0.853333	2.26837E-001	-9.94000E-005	0.00000E+000	-2.25476E-005	-5.99601E-002	2.26868E-001	3.57930E+000	9	...........
	64	0.866667	2.18022E-001	-9.90781E-005	0.00000E+000	-2.16012E-005	-5.99601E-002	2.18056E-001	3.57930E+000	9	...........
	65	0.88	2.09239E-001	-1.00153E-004	0.00000E+000	-2.09560E-005	-5.99601E-002	2.09269E-001	3.57930E+000	9	...........
	66	0.893333	2.00496E-001	-9.89145E-005	0.00000E+000	-1.98320E-005	-5.99601E-002	2.00530E-001	3.57930E+000	9	...........
	67	0.906667	1.91796E-001	-9.92135E-005	0.00000E+000	-1.90287E-005	-5.99601E-002	1.91826E-001	3.57930E+000	9	...........
	68	0.92	1.83136E-001	-9.89958E-005	0.00000E+000	-1.81297E-005	-5.99601E-002	1.83164E-001	3.57930E+000	9	...........
	69	0.933333	1.74518E-001	-9.83831E-005	0.00000E+000	-1.71696E-005	-5.99601E-002	1.74547E-001	3.57930E+000	9	...........
	70	0.946667	1.65949E-001	-9.90354E-005	0.00000E+000	-1.64348E-005	-5.99601E-002	1.65976E-001	3.57930E+000	9	...........
	71	0.96	1.57428E-001	-9.86280E-005	0.00000E+000	-1.55268E-005	-5.99601E-002	1.57450E-001	3.57930E+000	9	...........
	72	0.97333	1.48956E-001	-9.85415E-005	0.00000E+000	-1.46784E-005	-5.99601E-002	1.48979E-001	3.57930E+000	9	...........
	73	0.98667	1.40534E-001	-9.82883E-005	0.00000E+000	-1.38129E-005	-5.99601E-002	1.40549E-001	3.57930E+000	9	...........
	74	1	1.32172E-001	-9.93292E-005	0.00000E+000	-1.31285E-005	-5.99601E-002	1.32188E-001	3.57930E+000	9	...........
	75	1.01333	1.23868E-001	-9.88384E-005	0.00000E+000	-1.22429E-005	-5.99601E-002	1.23883E-001	3.57930E+000	9	...........
	76	1.02667	1.15621E-001	-9.96282E-005	0.00000E+000	-1.15191E-005	-5.99601E-002	1.15635E-001	3.57930E+000	9	...........
	77	1.04	1.07434E-001	-9.91510E-005	0.00000E+000	-1.06522E-005	-5.99601E-002	1.07448E-001	3.57930E+000	9	...........
	78	1.05333	9.93118E-002	-9.84686E-005	0.00000E+000	-9.77909E-006	-5.99601E-002	9.93202E-002	3.57930E+000	9	...........
	79	1.06667	9.12487E-002	-9.86259E-005	0.00000E+000	-8.99948E-006	-5.99601E-002	9.12599E-002	3.57930E+000	9	...........
	80	1.08	8.32469E-002	-9.84196E-005	0.00000E+000	-8.19313E-006	-5.99601E-002	8.32547E-002	3.57930E+000	9	...........
	81	1.09333	7.53111E-002	-9.98491E-005	0.00000E+000	-7.51974E-006	-5.99601E-002	7.53146E-002	3.57930E+000	9	...........
	82	1.10667	6.74373E-002	-9.88822E-005	0.00000E+000	-6.66835E-006	-5.99601E-002	6.74402E-002	3.57930E+000	9	...........
	83	1.12	5.96263E-002	-9.83342E-005	0.00000E+000	-5.86330E-006	-5.99601E-002	5.96302E-002	3.57930E+000	9	...........
	84	1.13333	5.18789E-002	-9.85259E-005	0.00000E+000	-5.11141E-006	-5.99601E-002	5.18764E-002	3.57930E+000	9	...........
	85	1.14667	4.42372E-002	-9.92865E-005	0.00000E+000	-4.39216E-006	-5.99601E-002	4.42296E-002	3.57930E+000	9	...........
	86	1.16	3.66198E-002	-9.89676E-005	0.00000E+000	-3.62418E-006	-5.99601E-002	3.66080E-002	3.57930E+000	9	...........
	87	1.17333	2.90568E-002	-9.87822E-005	0.00000E+000	-2.87029E-006	-5.99601E-002	2.90415E-002	3.57930E+000	9	...........
	88	1.18667	2.15518E-002	-9.92562E-005	0.00000E+000	-2.13915E-006	-5.99601E-002	2.15332E-002	3.57930E+000	9	...........
	89	1.2	1.41126E-002	-9.84727E-005	0.00000E+000	-1.38970E-006	-5.99601E-002	1.40866E-002	3.57930E+000	9	...........
	90	1.21333	6.72763E-003	-9.94854E-005	0.00000E+000	-6.69301E-007	-5.99601E-002	6.69761E-003	3.57930E+000	9	...........
	91	1.22	1.22256E-003	-9.87374E-005	0.00000E+000	-1.20713E-007	-5.99601E-002	1.19036E-003	3.57930E+000	9	...........
STARTTIMEOFFSET	QUANT	342.3132	Start Time Offset (s)
