EXPLAIN
TAG	PWR800_DISCHARGE
TITLE	LABEL	PWR Cyclic Charge Discharge (Cell) - Discharge Step	Test &Identifier
DATE	LABEL	13-7-2017	Date
TIME	LABEL	15:05:36	Time
NOTES	NOTES	2	&Notes...
	supercap test cell
	6M KOH
PSTAT	PSTAT	IFC5000-01520	Potentiostat
CAPACITY	QUANT	1.00000E-003	Capacity (A-hr)
CELLTYPE	SELECTOR	1	&Cell Type
WORKINGCONNECTION	SELECTOR	0	&Working Lead
MAXDISCHARGETIME	VARIABLEANDUNITS	1.00000E+002	s	1.00000E+002	second(s)	Max &Discharge Time
DISCHARGEMODE	MULTIPARAM	0	1.00000E-004	&Discharge Mode	Constant Current	Amp(s)
SAMPLETIME	QUANT	1.00000E-002	Sa&mple Period (s)
DISCHARGESTOPAT1	MULTIPARAM	3	0.00000E+000	Discharge Stop At &1	Voltage < Limit	V
DISCHARGESTOPAT2	MULTIPARAM	0	0.00000E+000	Discharge Stop At &2	None	N/A
AESBHCSELECTOR	TOGGLE	F	Save Both Half Cells
IRCOMP	TOGGLE	F	IR &Measure
EOC	QUANT	0	Open Circuit (V)
SEQUENCER	TOGGLE	TRUE	Run as Sequence
PSTATMODEL	IQUANT	53	Pstat Model
PSTATSECTION	LABEL	IFC5000-01520	Pstat Section
PSTATSERIALNO	LABEL	01520	Pstat Serial Number
CTRLMODE	IQUANT	0	Control Mode
ELECTROMETER	IQUANT	1	RE=0 or CS=1
IESTAB	IQUANT	0	I/E Stability
CASPEED	IQUANT	4	Control Amp Speed
CONVENTION	IQUANT	1	Current Convention
ICHRANGE	IQUANT	2	Ich Range
ICHRANGEMODE	TOGGLE	T	Ich Auto Range
ICHOFFSETENABLE	TOGGLE	F	Ich Offset Enable
ICHOFFSET	QUANT	0	Ich Offset (V)
ICHFILTER	IQUANT	1	Ich Filter
VCHRANGE	IQUANT	2	Vch Range
VCHRANGEMODE	TOGGLE	T	Vch Auto Range
VCHOFFSETENABLE	TOGGLE	F	Vch Offset Enable
VCHOFFSET	QUANT	0	Vch Offset (V)
VCHFILTER	IQUANT	1	Vch Filter
IERANGELOWERLIMIT	IQUANT	9	I/E Range Lower Limit
IERANGEMODE	TOGGLE	F	I/E AutoRange
IERANGE	IQUANT	9	I/E Range
ACHSELECT	IQUANT	1	Ach Select
ACHRANGE	IQUANT	2	Ach Range
ACHOFFSETENABLE	TOGGLE	F	Ach Offset Enable
ACHOFFSET	QUANT	0	Ach Offset (V)
ACHFILTER	IQUANT	1	Ach Filter
CABLEID	IQUANT	14	Cable ID
DCCALDATE	LABEL	5-7-2017	DC Calibration Date
ACCALDATE	LABEL	12/3/2015	AC Calibration Date
FRAMEWORKVERSION	QUANT	7.01	Framework Version
INSTRUMENTVERSION	LABEL	4.00	Instrument Version
CURVE	TABLE	93
	Pt	T	Vf	Im	Vu	Pwr	Sig	Ach	Temp	IERange	Over
	#	s	V	A	V	W	V	V	deg C	#	bits
	0	0.013333	8.55136E-001	-9.92375E-005	0.00000E+000	-8.48616E-005	-5.99601E-002	8.55446E-001	3.57880E+000	9	...........
	1	0.026667	8.42373E-001	-9.84425E-005	0.00000E+000	-8.29253E-005	-5.99601E-002	8.42681E-001	3.57880E+000	9	...........
	2	0.04	8.30377E-001	-9.91541E-005	0.00000E+000	-8.23353E-005	-5.99601E-002	8.30711E-001	3.57880E+000	9	...........
	3	0.053333	8.18954E-001	-9.79674E-005	0.00000E+000	-8.02308E-005	-5.99601E-002	8.19275E-001	3.57880E+000	9	...........
	4	0.066667	8.07929E-001	-9.98043E-005	0.00000E+000	-8.06347E-005	-5.99601E-002	8.08257E-001	3.57880E+000	9	...........
	5	0.08	7.97209E-001	-9.85957E-005	0.00000E+000	-7.86013E-005	-5.99601E-002	7.97516E-001	3.57880E+000	9	...........
	6	0.093333	7.86635E-001	-9.84425E-005	0.00000E+000	-7.74383E-005	-5.99601E-002	7.86986E-001	3.57880E+000	9	...........
	7	0.106667	7.76322E-001	-9.94396E-005	0.00000E+000	-7.71972E-005	-5.99601E-002	7.76624E-001	3.57880E+000	9	...........
	8	0.12	7.66080E-001	-9.88363E-005	0.00000E+000	-7.57165E-005	-5.99601E-002	7.66389E-001	3.57880E+000	9	...........
	9	0.133333	7.55970E-001	-9.88697E-005	0.00000E+000	-7.47425E-005	-5.99601E-002	7.56252E-001	3.57880E+000	9	...........
	10	0.146667	7.45918E-001	-9.78382E-005	0.00000E+000	-7.29793E-005	-5.99601E-002	7.46233E-001	3.57880E+000	9	...........
	11	0.16	7.35932E-001	-9.95302E-005	0.00000E+000	-7.32475E-005	-5.99601E-002	7.36218E-001	3.57880E+000	9	...........
	12	0.173333	7.26035E-001	-9.81049E-005	0.00000E+000	-7.12276E-005	-5.99601E-002	7.26300E-001	3.57880E+000	9	...........
	13	0.186667	7.16117E-001	-9.89864E-005	0.00000E+000	-7.08859E-005	-5.99601E-002	7.16401E-001	3.57880E+000	9	...........
	14	0.2	7.06264E-001	-9.92833E-005	0.00000E+000	-7.01202E-005	-5.99601E-002	7.06553E-001	3.57880E+000	9	...........
	15	0.213333	6.96448E-001	-9.81175E-005	0.00000E+000	-6.83337E-005	-5.99601E-002	6.96734E-001	3.57880E+000	9	...........
	16	0.226667	6.86605E-001	-9.82560E-005	0.00000E+000	-6.74631E-005	-5.99601E-002	6.86895E-001	3.57880E+000	9	...........
	17	0.24	6.76794E-001	-9.83842E-005	0.00000E+000	-6.65858E-005	-5.99601E-002	6.77118E-001	3.57880E+000	9	...........
	18	0.253333	6.67012E-001	-9.84811E-005	0.00000E+000	-6.56880E-005	-5.99601E-002	6.67307E-001	3.57880E+000	9	...........
	19	0.266667	6.57181E-001	-9.84821E-005	0.00000E+000	-6.47205E-005	-5.99601E-002	6.57503E-001	3.57880E+000	9	...........
	20	0.28	6.47402E-001	-9.88124E-005	0.00000E+000	-6.39713E-005	-5.99601E-002	6.47702E-001	3.57880E+000	9	...........
	21	0.293333	6.37611E-001	-9.85082E-005	0.00000E+000	-6.28099E-005	-5.99601E-002	6.37909E-001	3.57880E+000	9	...........
	22	0.306667	6.27836E-001	-9.94823E-005	0.00000E+000	-6.24586E-005	-5.99601E-002	6.28123E-001	3.57880E+000	9	...........
	23	0.32	6.18037E-001	-9.90354E-005	0.00000E+000	-6.12075E-005	-5.99601E-002	6.18332E-001	3.57880E+000	9	...........
	24	0.333333	6.08187E-001	-9.89134E-005	0.00000E+000	-6.01579E-005	-5.99601E-002	6.08532E-001	3.57880E+000	9	...........
	25	0.346667	5.98423E-001	-9.92833E-005	0.00000E+000	-5.94134E-005	-5.99601E-002	5.98751E-001	3.57880E+000	9	...........
	26	0.36	5.88664E-001	-9.83592E-005	0.00000E+000	-5.79005E-005	-5.99601E-002	5.88948E-001	3.57880E+000	9	...........
	27	0.373333	5.78864E-001	-9.81300E-005	0.00000E+000	-5.68039E-005	-5.99601E-002	5.79167E-001	3.57880E+000	9	...........
	28	0.386667	5.69117E-001	-9.89145E-005	0.00000E+000	-5.62939E-005	-5.99601E-002	5.69407E-001	3.57880E+000	9	...........
	29	0.4	5.59304E-001	-9.86176E-005	0.00000E+000	-5.51572E-005	-5.99601E-002	5.59605E-001	3.57880E+000	9	...........
	30	0.413333	5.49555E-001	-9.87738E-005	0.00000E+000	-5.42816E-005	-5.99601E-002	5.49840E-001	3.57880E+000	9	...........
	31	0.426667	5.39808E-001	-9.89364E-005	0.00000E+000	-5.34067E-005	-5.99601E-002	5.40055E-001	3.57880E+000	9	...........
	32	0.44	5.30041E-001	-9.85165E-005	0.00000E+000	-5.22178E-005	-5.99601E-002	5.30309E-001	3.57880E+000	9	...........
	33	0.453333	5.20330E-001	-9.88676E-005	0.00000E+000	-5.14438E-005	-5.99601E-002	5.20569E-001	3.57880E+000	9	...........
	34	0.466667	5.10608E-001	-9.93135E-005	0.00000E+000	-5.07103E-005	-5.99601E-002	5.10844E-001	3.57880E+000	9	...........
	35	0.48	5.00875E-001	-9.83696E-005	0.00000E+000	-4.92709E-005	-5.99601E-002	5.01149E-001	3.57880E+000	9	...........
	36	0.493333	4.91224E-001	-9.90697E-005	0.00000E+000	-4.86655E-005	-5.99601E-002	4.91479E-001	3.57880E+000	9	...........
	37	0.506667	4.81848E-001	-9.86905E-005	0.00000E+000	-4.75538E-005	-5.99601E-002	4.81998E-001	3.57880E+000	9	...........
	38	0.52	4.72305E-001	-9.83946E-005	0.00000E+000	-4.64723E-005	-5.99601E-002	4.72410E-001	3.57880E+000	9	...........
	39	0.533333	4.62688E-001	-9.92864E-005	0.00000E+000	-4.59387E-005	-5.99601E-002	4.62794E-001	3.57880E+000	9	...........
	40	0.546667	4.53109E-001	-9.84123E-005	0.00000E+000	-4.45915E-005	-5.99601E-002	4.53201E-001	3.57880E+000	9	...........
	41	0.56	4.43553E-001	-9.92375E-005	0.00000E+000	-4.40171E-005	-5.99601E-002	4.43648E-001	3.57880E+000	9	...........
	42	0.573333	4.34018E-001	-9.90395E-005	0.00000E+000	-4.29850E-005	-5.99601E-002	4.34115E-001	3.57880E+000	9	...........
	43	0.586667	4.24519E-001	-9.90437E-005	0.00000E+000	-4.20459E-005	-5.99601E-002	4.24608E-001	3.57880E+000	9	...........
	44	0.6	4.15052E-001	-9.91124E-005	0.00000E+000	-4.11368E-005	-5.99601E-002	4.15140E-001	3.57880E+000	9	...........
	45	0.613333	4.05613E-001	-9.90812E-005	0.00000E+000	-4.01887E-005	-5.99601E-002	4.05696E-001	3.57880E+000	9	...........
	46	0.626667	3.96208E-001	-9.73329E-005	0.00000E+000	-3.85640E-005	-5.99601E-002	3.96292E-001	3.57880E+000	9	...........
	47	0.64	3.86833E-001	-9.86988E-005	0.00000E+000	-3.81800E-005	-5.99601E-002	3.86912E-001	3.57880E+000	9	...........
	48	0.653333	3.77489E-001	-9.86009E-005	0.00000E+000	-3.72207E-005	-5.99601E-002	3.77563E-001	3.57880E+000	9	...........
	49	0.666667	3.68177E-001	-9.81591E-005	0.00000E+000	-3.61399E-005	-5.99601E-002	3.68247E-001	3.57880E+000	9	...........
	50	0.68	3.58891E-001	-9.89093E-005	0.00000E+000	-3.54976E-005	-5.99601E-002	3.58959E-001	3.57880E+000	9	...........
	51	0.693333	3.49640E-001	-9.96511E-005	0.00000E+000	-3.48420E-005	-5.99601E-002	3.49707E-001	3.57880E+000	9	...........
	52	0.706667	3.40417E-001	-9.92792E-005	0.00000E+000	-3.37963E-005	-5.99601E-002	3.40485E-001	3.57880E+000	9	...........
	53	0.72	3.31230E-001	-9.79278E-005	0.00000E+000	-3.24367E-005	-5.99601E-002	3.31294E-001	3.57880E+000	9	...........
	54	0.733333	3.22080E-001	-9.73954E-005	0.00000E+000	-3.13692E-005	-5.99601E-002	3.22140E-001	3.57880E+000	9	...........
	55	0.746667	3.12948E-001	-9.79226E-005	0.00000E+000	-3.06447E-005	-5.99601E-002	3.13008E-001	3.57880E+000	9	...........
	56	0.76	3.03852E-001	-9.85550E-005	0.00000E+000	-2.99461E-005	-5.99601E-002	3.03904E-001	3.57880E+000	9	...........
	57	0.773333	2.94780E-001	-9.84696E-005	0.00000E+000	-2.90269E-005	-5.99601E-002	2.94831E-001	3.57880E+000	9	...........
	58	0.786667	2.85740E-001	-9.80112E-005	0.00000E+000	-2.80057E-005	-5.99601E-002	2.85795E-001	3.57880E+000	9	...........
	59	0.8	2.76730E-001	-9.91468E-005	0.00000E+000	-2.74369E-005	-5.99601E-002	2.76773E-001	3.57880E+000	9	...........
	60	0.813333	2.67749E-001	-9.91354E-005	0.00000E+000	-2.65434E-005	-5.99601E-002	2.67799E-001	3.58002E+000	9	...........
	61	0.826667	2.58795E-001	-9.86988E-005	0.00000E+000	-2.55428E-005	-5.99601E-002	2.58846E-001	3.58020E+000	9	...........
	62	0.84	2.49872E-001	-9.84227E-005	0.00000E+000	-2.45931E-005	-5.99601E-002	2.49917E-001	3.58020E+000	9	...........
	63	0.853333	2.40976E-001	-9.82831E-005	0.00000E+000	-2.36839E-005	-5.99601E-002	2.41015E-001	3.58020E+000	9	...........
	64	0.866667	2.32105E-001	-9.88134E-005	0.00000E+000	-2.29351E-005	-5.99601E-002	2.32143E-001	3.58020E+000	9	...........
	65	0.88	2.23257E-001	-9.95063E-005	0.00000E+000	-2.22155E-005	-5.99601E-002	2.23294E-001	3.58020E+000	9	...........
	66	0.893333	2.14443E-001	-9.76934E-005	0.00000E+000	-2.09496E-005	-5.99601E-002	2.14481E-001	3.58020E+000	9	...........
	67	0.906667	2.05655E-001	-9.98418E-005	0.00000E+000	-2.05330E-005	-5.99601E-002	2.05692E-001	3.58020E+000	9	...........
	68	0.92	1.96901E-001	-9.81779E-005	0.00000E+000	-1.93313E-005	-5.99601E-002	1.96933E-001	3.58020E+000	9	...........
	69	0.933333	1.88183E-001	-9.93125E-005	0.00000E+000	-1.86889E-005	-5.99601E-002	1.88212E-001	3.58020E+000	9	...........
	70	0.946667	1.79496E-001	-9.87801E-005	0.00000E+000	-1.77306E-005	-5.99601E-002	1.79521E-001	3.58020E+000	9	...........
	71	0.96	1.70855E-001	-9.88322E-005	0.00000E+000	-1.68859E-005	-5.99601E-002	1.70880E-001	3.58020E+000	9	...........
	72	0.97333	1.62251E-001	-9.91260E-005	0.00000E+000	-1.60833E-005	-5.99601E-002	1.62272E-001	3.58020E+000	9	...........
	73	0.98667	1.53689E-001	-9.93500E-005	0.00000E+000	-1.52690E-005	-5.99601E-002	1.53710E-001	3.58020E+000	9	...........
	74	1	1.45173E-001	-9.96646E-005	0.00000E+000	-1.44686E-005	-5.99601E-002	1.45189E-001	3.58020E+000	9	...........
	75	1.01333	1.36695E-001	-9.92198E-005	0.00000E+000	-1.35629E-005	-5.99601E-002	1.36712E-001	3.58020E+000	9	...........
	76	1.02667	1.28271E-001	-9.89187E-005	0.00000E+000	-1.26884E-005	-5.99601E-002	1.28289E-001	3.58020E+000	9	...........
	77	1.04	1.19905E-001	-9.93844E-005	0.00000E+000	-1.19167E-005	-5.99601E-002	1.19920E-001	3.58020E+000	9	...........
	78	1.05333	1.11586E-001	-9.94761E-005	0.00000E+000	-1.11001E-005	-5.99601E-002	1.11597E-001	3.58020E+000	9	...........
	79	1.06667	1.03325E-001	-9.98793E-005	0.00000E+000	-1.03200E-005	-5.99601E-002	1.03335E-001	3.58020E+000	9	...........
	80	1.08	9.51282E-002	-9.90312E-005	0.00000E+000	-9.42066E-006	-5.99601E-002	9.51336E-002	3.58020E+000	9	...........
	81	1.09333	8.69922E-002	-9.85519E-005	0.00000E+000	-8.57325E-006	-5.99601E-002	8.69947E-002	3.58020E+000	9	...........
	82	1.10667	7.89109E-002	-9.93635E-005	0.00000E+000	-7.84086E-006	-5.99601E-002	7.89144E-002	3.58020E+000	9	...........
	83	1.12	7.08987E-002	-9.83071E-005	0.00000E+000	-6.96985E-006	-5.99601E-002	7.08976E-002	3.58020E+000	9	...........
	84	1.13333	6.29479E-002	-9.81550E-005	0.00000E+000	-6.17865E-006	-5.99601E-002	6.29440E-002	3.58020E+000	9	...........
	85	1.14667	5.50515E-002	-9.93021E-005	0.00000E+000	-5.46673E-006	-5.99601E-002	5.50442E-002	3.58020E+000	9	...........
	86	1.16	4.72477E-002	-9.84258E-005	0.00000E+000	-4.65040E-006	-5.99601E-002	4.72357E-002	3.58020E+000	9	...........
	87	1.17333	3.94863E-002	-9.85019E-005	0.00000E+000	-3.88948E-006	-5.99601E-002	3.94791E-002	3.58020E+000	9	...........
	88	1.18667	3.17850E-002	-9.88270E-005	0.00000E+000	-3.14122E-006	-5.99601E-002	3.17662E-002	3.58020E+000	9	...........
	89	1.2	2.41328E-002	-9.96178E-005	0.00000E+000	-2.40405E-006	-5.99601E-002	2.41139E-002	3.58020E+000	9	...........
	90	1.21333	1.65459E-002	-9.88999E-005	0.00000E+000	-1.63639E-006	-5.99601E-002	1.65212E-002	3.58020E+000	9	...........
	91	1.22667	9.01490E-003	-9.83623E-005	0.00000E+000	-8.86726E-007	-5.99601E-002	8.98504E-003	3.58020E+000	9	...........
	92	1.23833	2.00190E-003	-9.96569E-005	0.00000E+000	-1.99503E-007	-5.99601E-002	1.96782E-003	3.58020E+000	9	...........
STARTTIMEOFFSET	QUANT	156.49	Start Time Offset (s)
