EXPLAIN
TAG	PWR800_DISCHARGE
TITLE	LABEL	PWR Cyclic Charge Discharge (Cell) - Discharge Step	Test &Identifier
DATE	LABEL	13-7-2017	Date
TIME	LABEL	15:38:10	Time
NOTES	NOTES	2	&Notes...
	supercap test cell
	6M KOH
PSTAT	PSTAT	IFC5000-01520	Potentiostat
CAPACITY	QUANT	1.00000E-003	Capacity (A-hr)
CELLTYPE	SELECTOR	1	&Cell Type
WORKINGCONNECTION	SELECTOR	0	&Working Lead
MAXDISCHARGETIME	VARIABLEANDUNITS	1.00000E+002	s	1.00000E+002	second(s)	Max &Discharge Time
DISCHARGEMODE	MULTIPARAM	0	1.00000E-004	&Discharge Mode	Constant Current	Amp(s)
SAMPLETIME	QUANT	1.00000E-002	Sa&mple Period (s)
DISCHARGESTOPAT1	MULTIPARAM	3	0.00000E+000	Discharge Stop At &1	Voltage < Limit	V
DISCHARGESTOPAT2	MULTIPARAM	0	0.00000E+000	Discharge Stop At &2	None	N/A
AESBHCSELECTOR	TOGGLE	F	Save Both Half Cells
IRCOMP	TOGGLE	F	IR &Measure
EOC	QUANT	0	Open Circuit (V)
SEQUENCER	TOGGLE	TRUE	Run as Sequence
PSTATMODEL	IQUANT	53	Pstat Model
PSTATSECTION	LABEL	IFC5000-01520	Pstat Section
PSTATSERIALNO	LABEL	01520	Pstat Serial Number
CTRLMODE	IQUANT	0	Control Mode
ELECTROMETER	IQUANT	1	RE=0 or CS=1
IESTAB	IQUANT	0	I/E Stability
CASPEED	IQUANT	4	Control Amp Speed
CONVENTION	IQUANT	1	Current Convention
ICHRANGE	IQUANT	2	Ich Range
ICHRANGEMODE	TOGGLE	T	Ich Auto Range
ICHOFFSETENABLE	TOGGLE	F	Ich Offset Enable
ICHOFFSET	QUANT	0	Ich Offset (V)
ICHFILTER	IQUANT	1	Ich Filter
VCHRANGE	IQUANT	2	Vch Range
VCHRANGEMODE	TOGGLE	T	Vch Auto Range
VCHOFFSETENABLE	TOGGLE	F	Vch Offset Enable
VCHOFFSET	QUANT	0	Vch Offset (V)
VCHFILTER	IQUANT	1	Vch Filter
IERANGELOWERLIMIT	IQUANT	9	I/E Range Lower Limit
IERANGEMODE	TOGGLE	F	I/E AutoRange
IERANGE	IQUANT	9	I/E Range
ACHSELECT	IQUANT	1	Ach Select
ACHRANGE	IQUANT	2	Ach Range
ACHOFFSETENABLE	TOGGLE	F	Ach Offset Enable
ACHOFFSET	QUANT	0	Ach Offset (V)
ACHFILTER	IQUANT	1	Ach Filter
CABLEID	IQUANT	14	Cable ID
DCCALDATE	LABEL	5-7-2017	DC Calibration Date
ACCALDATE	LABEL	12/3/2015	AC Calibration Date
FRAMEWORKVERSION	QUANT	7.01	Framework Version
INSTRUMENTVERSION	LABEL	4.00	Instrument Version
CURVE	TABLE	87
	Pt	T	Vf	Im	Vu	Pwr	Sig	Ach	Temp	IERange	Over
	#	s	V	A	V	W	V	V	deg C	#	bits
	0	0.013333	8.47632E-001	-9.86040E-005	0.00000E+000	-8.35799E-005	-5.99601E-002	8.47955E-001	3.57990E+000	9	...........
	1	0.026667	8.33441E-001	-9.95209E-005	0.00000E+000	-8.29447E-005	-5.99601E-002	8.33765E-001	3.57990E+000	9	...........
	2	0.04	8.20136E-001	-9.89187E-005	0.00000E+000	-8.11267E-005	-5.99601E-002	8.20462E-001	3.57990E+000	9	...........
	3	0.053333	8.07367E-001	-9.88707E-005	0.00000E+000	-7.98250E-005	-5.99601E-002	8.07698E-001	3.57990E+000	9	...........
	4	0.066667	7.95027E-001	-9.91541E-005	0.00000E+000	-7.88302E-005	-5.99601E-002	7.95349E-001	3.57990E+000	9	...........
	5	0.08	7.82971E-001	-9.95115E-005	0.00000E+000	-7.79146E-005	-5.99601E-002	7.83269E-001	3.57990E+000	9	...........
	6	0.093333	7.71116E-001	-9.85029E-005	0.00000E+000	-7.59572E-005	-5.99601E-002	7.71430E-001	3.57990E+000	9	...........
	7	0.106667	7.59435E-001	-9.87186E-005	0.00000E+000	-7.49703E-005	-5.99601E-002	7.59732E-001	3.57973E+000	9	...........
	8	0.12	7.47868E-001	-9.84884E-005	0.00000E+000	-7.36563E-005	-5.99601E-002	7.48171E-001	3.57900E+000	9	...........
	9	0.133333	7.36394E-001	-9.91135E-005	0.00000E+000	-7.29865E-005	-5.99601E-002	7.36698E-001	3.57900E+000	9	...........
	10	0.146667	7.25014E-001	-9.96521E-005	0.00000E+000	-7.22492E-005	-5.99601E-002	7.25293E-001	3.57900E+000	9	...........
	11	0.16	7.13676E-001	-9.81925E-005	0.00000E+000	-7.00777E-005	-5.99601E-002	7.13958E-001	3.57900E+000	9	...........
	12	0.173333	7.02365E-001	-9.84738E-005	0.00000E+000	-6.91645E-005	-5.99601E-002	7.02679E-001	3.57900E+000	9	...........
	13	0.186667	6.91143E-001	-9.94052E-005	0.00000E+000	-6.87032E-005	-5.99601E-002	6.91422E-001	3.57900E+000	9	...........
	14	0.2	6.79928E-001	-9.90426E-005	0.00000E+000	-6.73418E-005	-5.99601E-002	6.80194E-001	3.57900E+000	9	...........
	15	0.213333	6.68721E-001	-9.84259E-005	0.00000E+000	-6.58194E-005	-5.99601E-002	6.69013E-001	3.57900E+000	9	...........
	16	0.226667	6.57548E-001	-9.92677E-005	0.00000E+000	-6.52733E-005	-5.99601E-002	6.57809E-001	3.57900E+000	9	...........
	17	0.24	6.46390E-001	-9.89937E-005	0.00000E+000	-6.39886E-005	-5.99601E-002	6.46652E-001	3.57900E+000	9	...........
	18	0.253333	6.35222E-001	-9.84186E-005	0.00000E+000	-6.25177E-005	-5.99601E-002	6.35498E-001	3.57900E+000	9	...........
	19	0.266667	6.24152E-001	-9.86269E-005	0.00000E+000	-6.15582E-005	-5.99601E-002	6.24372E-001	3.57900E+000	9	...........
	20	0.28	6.13017E-001	-9.91145E-005	0.00000E+000	-6.07589E-005	-5.99601E-002	6.13293E-001	3.57900E+000	9	...........
	21	0.293333	6.01948E-001	-9.85498E-005	0.00000E+000	-5.93218E-005	-5.99601E-002	6.02228E-001	3.57900E+000	9	...........
	22	0.306667	5.90912E-001	-9.89791E-005	0.00000E+000	-5.84880E-005	-5.99601E-002	5.91193E-001	3.57900E+000	9	...........
	23	0.32	5.79878E-001	-9.91041E-005	0.00000E+000	-5.74683E-005	-5.99601E-002	5.80178E-001	3.57900E+000	9	...........
	24	0.333333	5.68935E-001	-9.78851E-005	0.00000E+000	-5.56903E-005	-5.99601E-002	5.69197E-001	3.57900E+000	9	...........
	25	0.346667	5.57959E-001	-9.89489E-005	0.00000E+000	-5.52094E-005	-5.99601E-002	5.58240E-001	3.57900E+000	9	...........
	26	0.36	5.47065E-001	-9.94948E-005	0.00000E+000	-5.44301E-005	-5.99601E-002	5.47309E-001	3.57900E+000	9	...........
	27	0.373333	5.36166E-001	-9.87843E-005	0.00000E+000	-5.29647E-005	-5.99601E-002	5.36435E-001	3.57900E+000	9	...........
	28	0.386667	5.25346E-001	-9.88176E-005	0.00000E+000	-5.19134E-005	-5.99601E-002	5.25584E-001	3.57900E+000	9	...........
	29	0.4	5.14548E-001	-9.92104E-005	0.00000E+000	-5.10485E-005	-5.99601E-002	5.14805E-001	3.57900E+000	9	...........
	30	0.413333	5.03778E-001	-9.78007E-005	0.00000E+000	-4.92698E-005	-5.99601E-002	5.04064E-001	3.57900E+000	9	...........
	31	0.426667	4.93114E-001	-9.87415E-005	0.00000E+000	-4.86908E-005	-5.99601E-002	4.93361E-001	3.57900E+000	9	...........
	32	0.44	4.82707E-001	-9.98418E-005	0.00000E+000	-4.81943E-005	-5.99601E-002	4.82865E-001	3.57900E+000	9	...........
	33	0.453333	4.72274E-001	-1.00347E-004	0.00000E+000	-4.73913E-005	-5.99601E-002	4.72367E-001	3.57900E+000	9	...........
	34	0.466667	4.61761E-001	-9.93208E-005	0.00000E+000	-4.58625E-005	-5.99601E-002	4.61861E-001	3.57900E+000	9	...........
	35	0.48	4.51313E-001	-9.86478E-005	0.00000E+000	-4.45211E-005	-5.99601E-002	4.51406E-001	3.57900E+000	9	...........
	36	0.493333	4.40932E-001	-9.85269E-005	0.00000E+000	-4.34437E-005	-5.99601E-002	4.41021E-001	3.57900E+000	9	...........
	37	0.506667	4.30609E-001	-9.93833E-005	0.00000E+000	-4.27954E-005	-5.99601E-002	4.30695E-001	3.57900E+000	9	...........
	38	0.52	4.20354E-001	-9.79810E-005	0.00000E+000	-4.11867E-005	-5.99601E-002	4.20435E-001	3.57900E+000	9	...........
	39	0.533333	4.10172E-001	-9.84186E-005	0.00000E+000	-4.03686E-005	-5.99601E-002	4.10246E-001	3.57900E+000	9	...........
	40	0.546667	4.00053E-001	-9.86634E-005	0.00000E+000	-3.94706E-005	-5.99601E-002	4.00123E-001	3.57900E+000	9	...........
	41	0.56	3.89996E-001	-9.82612E-005	0.00000E+000	-3.83215E-005	-5.99601E-002	3.90064E-001	3.57900E+000	9	...........
	42	0.573333	3.80007E-001	-9.84040E-005	0.00000E+000	-3.73942E-005	-5.99601E-002	3.80074E-001	3.57900E+000	9	...........
	43	0.586667	3.70075E-001	-9.90895E-005	0.00000E+000	-3.66705E-005	-5.99601E-002	3.70140E-001	3.57900E+000	9	...........
	44	0.6	3.60204E-001	-9.92041E-005	0.00000E+000	-3.57338E-005	-5.99601E-002	3.60272E-001	3.57900E+000	9	...........
	45	0.613333	3.50400E-001	-9.91510E-005	0.00000E+000	-3.47425E-005	-5.99601E-002	3.50461E-001	3.57900E+000	9	...........
	46	0.626667	3.40649E-001	-9.84925E-005	0.00000E+000	-3.35514E-005	-5.99601E-002	3.40714E-001	3.57900E+000	9	...........
	47	0.64	3.30965E-001	-9.92250E-005	0.00000E+000	-3.28400E-005	-5.99601E-002	3.31022E-001	3.57900E+000	9	...........
	48	0.653333	3.21333E-001	-9.90260E-005	0.00000E+000	-3.18203E-005	-5.99601E-002	3.21391E-001	3.57900E+000	9	...........
	49	0.666667	3.11751E-001	-9.92885E-005	0.00000E+000	-3.09533E-005	-5.99601E-002	3.11807E-001	3.57900E+000	9	...........
	50	0.68	3.02228E-001	-9.87228E-005	0.00000E+000	-2.98367E-005	-5.99601E-002	3.02285E-001	3.57900E+000	9	...........
	51	0.693333	2.92746E-001	-9.93833E-005	0.00000E+000	-2.90941E-005	-5.99601E-002	2.92808E-001	3.57900E+000	9	...........
	52	0.706667	2.83328E-001	-9.88937E-005	0.00000E+000	-2.80193E-005	-5.99601E-002	2.83381E-001	3.57900E+000	9	...........
	53	0.72	2.73952E-001	-9.81487E-005	0.00000E+000	-2.68880E-005	-5.99601E-002	2.74004E-001	3.57900E+000	9	...........
	54	0.733333	2.64620E-001	-9.81956E-005	0.00000E+000	-2.59845E-005	-5.99601E-002	2.64673E-001	3.57900E+000	9	...........
	55	0.746667	2.55340E-001	-9.89041E-005	0.00000E+000	-2.52541E-005	-5.99601E-002	2.55390E-001	3.57900E+000	9	...........
	56	0.76	2.46112E-001	-9.92771E-005	0.00000E+000	-2.44333E-005	-5.99601E-002	2.46157E-001	3.57900E+000	9	...........
	57	0.773333	2.36933E-001	-9.90489E-005	0.00000E+000	-2.34680E-005	-5.99601E-002	2.36969E-001	3.57900E+000	9	...........
	58	0.786667	2.27796E-001	-9.90479E-005	0.00000E+000	-2.25627E-005	-5.99601E-002	2.27833E-001	3.57900E+000	9	...........
	59	0.8	2.18714E-001	-9.87072E-005	0.00000E+000	-2.15886E-005	-5.99601E-002	2.18748E-001	3.57900E+000	9	...........
	60	0.813333	2.09684E-001	-9.82779E-005	0.00000E+000	-2.06073E-005	-5.99601E-002	2.09715E-001	3.57900E+000	9	...........
	61	0.826667	2.00706E-001	-9.90051E-005	0.00000E+000	-1.98709E-005	-5.99601E-002	2.00739E-001	3.57900E+000	9	...........
	62	0.84	1.91786E-001	-9.85144E-005	0.00000E+000	-1.88937E-005	-5.99601E-002	1.91813E-001	3.57900E+000	9	...........
	63	0.853333	1.82921E-001	-9.85071E-005	0.00000E+000	-1.80191E-005	-5.99601E-002	1.82944E-001	3.57900E+000	9	...........
	64	0.866667	1.74112E-001	-9.83196E-005	0.00000E+000	-1.71187E-005	-5.99601E-002	1.74139E-001	3.57900E+000	9	...........
	65	0.88	1.65374E-001	-9.92135E-005	0.00000E+000	-1.64073E-005	-5.99601E-002	1.65395E-001	3.57900E+000	9	...........
	66	0.893333	1.56699E-001	-9.89114E-005	0.00000E+000	-1.54993E-005	-5.99601E-002	1.56716E-001	3.57900E+000	9	...........
	67	0.906667	1.48094E-001	-9.85155E-005	0.00000E+000	-1.45895E-005	-5.99601E-002	1.48106E-001	3.57900E+000	9	...........
	68	0.92	1.39554E-001	-9.88374E-005	0.00000E+000	-1.37932E-005	-5.99601E-002	1.39568E-001	3.57900E+000	9	...........
	69	0.933333	1.31087E-001	-9.94782E-005	0.00000E+000	-1.30403E-005	-5.99601E-002	1.31094E-001	3.57900E+000	9	...........
	70	0.946667	1.22691E-001	-9.88905E-005	0.00000E+000	-1.21329E-005	-5.99601E-002	1.22707E-001	3.57900E+000	9	...........
	71	0.96	1.14369E-001	-9.84634E-005	0.00000E+000	-1.12612E-005	-5.99601E-002	1.14385E-001	3.57900E+000	9	...........
	72	0.97333	1.06123E-001	-9.87030E-005	0.00000E+000	-1.04746E-005	-5.99601E-002	1.06135E-001	3.57900E+000	9	...........
	73	0.98667	9.79473E-002	-9.90176E-005	0.00000E+000	-9.69851E-006	-5.99601E-002	9.79584E-002	3.57900E+000	9	...........
	74	1	8.98473E-002	-9.91593E-005	0.00000E+000	-8.90919E-006	-5.99601E-002	8.98584E-002	3.57900E+000	9	...........
	75	1.01333	8.18220E-002	-9.81539E-005	0.00000E+000	-8.03115E-006	-5.99601E-002	8.18288E-002	3.57900E+000	9	...........
	76	1.02667	7.38754E-002	-9.91197E-005	0.00000E+000	-7.32251E-006	-5.99601E-002	7.38670E-002	3.57900E+000	9	...........
	77	1.04	6.59899E-002	-9.78882E-005	0.00000E+000	-6.45964E-006	-5.99601E-002	6.59823E-002	3.57900E+000	9	...........
	78	1.05333	5.81748E-002	-9.90124E-005	0.00000E+000	-5.76003E-006	-5.99601E-002	5.81699E-002	3.57900E+000	9	...........
	79	1.06667	5.04384E-002	-9.86749E-005	0.00000E+000	-4.97700E-006	-5.99601E-002	5.04293E-002	3.57900E+000	9	...........
	80	1.08	4.28056E-002	-9.85175E-005	0.00000E+000	-4.21711E-006	-5.99601E-002	4.27961E-002	3.57900E+000	9	...........
	81	1.09333	3.51999E-002	-9.87582E-005	0.00000E+000	-3.47628E-006	-5.99601E-002	3.51841E-002	3.57900E+000	9	...........
	82	1.10667	2.76573E-002	-9.89749E-005	0.00000E+000	-2.73738E-006	-5.99601E-002	2.76441E-002	3.57902E+000	9	...........
	83	1.12	2.01931E-002	-9.89259E-005	0.00000E+000	-1.99762E-006	-5.99601E-002	2.01710E-002	3.57910E+000	9	...........
	84	1.13333	1.27912E-002	-9.93208E-005	0.00000E+000	-1.27043E-006	-5.99601E-002	1.27612E-002	3.57910E+000	9	...........
	85	1.14667	5.45043E-003	-9.88968E-005	0.00000E+000	-5.39030E-007	-5.99601E-002	5.41743E-003	3.57910E+000	9	...........
	86	1.15167	4.37047E-004	-9.92576E-005	0.00000E+000	-4.33803E-008	-5.99601E-002	4.07419E-004	3.57910E+000	9	...........
STARTTIMEOFFSET	QUANT	1634.735	Start Time Offset (s)
