EXPLAIN
TAG	PWR800_DISCHARGE
TITLE	LABEL	PWR Cyclic Charge Discharge (Cell) - Discharge Step	Test &Identifier
DATE	LABEL	13-7-2017	Date
TIME	LABEL	15:27:57	Time
NOTES	NOTES	2	&Notes...
	supercap test cell
	6M KOH
PSTAT	PSTAT	IFC5000-01520	Potentiostat
CAPACITY	QUANT	1.00000E-003	Capacity (A-hr)
CELLTYPE	SELECTOR	1	&Cell Type
WORKINGCONNECTION	SELECTOR	0	&Working Lead
MAXDISCHARGETIME	VARIABLEANDUNITS	1.00000E+002	s	1.00000E+002	second(s)	Max &Discharge Time
DISCHARGEMODE	MULTIPARAM	0	1.00000E-004	&Discharge Mode	Constant Current	Amp(s)
SAMPLETIME	QUANT	1.00000E-002	Sa&mple Period (s)
DISCHARGESTOPAT1	MULTIPARAM	3	0.00000E+000	Discharge Stop At &1	Voltage < Limit	V
DISCHARGESTOPAT2	MULTIPARAM	0	0.00000E+000	Discharge Stop At &2	None	N/A
AESBHCSELECTOR	TOGGLE	F	Save Both Half Cells
IRCOMP	TOGGLE	F	IR &Measure
EOC	QUANT	0	Open Circuit (V)
SEQUENCER	TOGGLE	TRUE	Run as Sequence
PSTATMODEL	IQUANT	53	Pstat Model
PSTATSECTION	LABEL	IFC5000-01520	Pstat Section
PSTATSERIALNO	LABEL	01520	Pstat Serial Number
CTRLMODE	IQUANT	0	Control Mode
ELECTROMETER	IQUANT	1	RE=0 or CS=1
IESTAB	IQUANT	0	I/E Stability
CASPEED	IQUANT	4	Control Amp Speed
CONVENTION	IQUANT	1	Current Convention
ICHRANGE	IQUANT	2	Ich Range
ICHRANGEMODE	TOGGLE	T	Ich Auto Range
ICHOFFSETENABLE	TOGGLE	F	Ich Offset Enable
ICHOFFSET	QUANT	0	Ich Offset (V)
ICHFILTER	IQUANT	1	Ich Filter
VCHRANGE	IQUANT	2	Vch Range
VCHRANGEMODE	TOGGLE	T	Vch Auto Range
VCHOFFSETENABLE	TOGGLE	F	Vch Offset Enable
VCHOFFSET	QUANT	0	Vch Offset (V)
VCHFILTER	IQUANT	1	Vch Filter
IERANGELOWERLIMIT	IQUANT	9	I/E Range Lower Limit
IERANGEMODE	TOGGLE	F	I/E AutoRange
IERANGE	IQUANT	9	I/E Range
ACHSELECT	IQUANT	1	Ach Select
ACHRANGE	IQUANT	2	Ach Range
ACHOFFSETENABLE	TOGGLE	F	Ach Offset Enable
ACHOFFSET	QUANT	0	Ach Offset (V)
ACHFILTER	IQUANT	1	Ach Filter
CABLEID	IQUANT	14	Cable ID
DCCALDATE	LABEL	5-7-2017	DC Calibration Date
ACCALDATE	LABEL	12/3/2015	AC Calibration Date
FRAMEWORKVERSION	QUANT	7.01	Framework Version
INSTRUMENTVERSION	LABEL	4.00	Instrument Version
CURVE	TABLE	88
	Pt	T	Vf	Im	Vu	Pwr	Sig	Ach	Temp	IERange	Over
	#	s	V	A	V	W	V	V	deg C	#	bits
	0	0.013333	8.49082E-001	-9.79872E-005	0.00000E+000	-8.31991E-005	-5.99601E-002	8.49458E-001	3.58000E+000	9	...........
	1	0.026667	8.35149E-001	-9.88624E-005	0.00000E+000	-8.25648E-005	-5.99601E-002	8.35495E-001	3.58000E+000	9	...........
	2	0.04	8.22080E-001	-9.89562E-005	0.00000E+000	-8.13499E-005	-5.99601E-002	8.22421E-001	3.58000E+000	9	...........
	3	0.053333	8.09564E-001	-9.87936E-005	0.00000E+000	-7.99798E-005	-5.99601E-002	8.09881E-001	3.58000E+000	9	...........
	4	0.066667	7.97479E-001	-9.82873E-005	0.00000E+000	-7.83820E-005	-5.99601E-002	7.97783E-001	3.58000E+000	9	...........
	5	0.08	7.85641E-001	-9.91666E-005	0.00000E+000	-7.79093E-005	-5.99601E-002	7.85955E-001	3.58000E+000	9	...........
	6	0.093333	7.74059E-001	-9.97511E-005	0.00000E+000	-7.72132E-005	-5.99601E-002	7.74355E-001	3.58000E+000	9	...........
	7	0.106667	7.62610E-001	-9.94750E-005	0.00000E+000	-7.58606E-005	-5.99601E-002	7.62916E-001	3.58000E+000	9	...........
	8	0.12	7.51294E-001	-9.90551E-005	0.00000E+000	-7.44195E-005	-5.99601E-002	7.51591E-001	3.58000E+000	9	...........
	9	0.133333	7.40066E-001	-9.99262E-005	0.00000E+000	-7.39520E-005	-5.99601E-002	7.40370E-001	3.58000E+000	9	...........
	10	0.146667	7.28931E-001	-9.91322E-005	0.00000E+000	-7.22605E-005	-5.99601E-002	7.29223E-001	3.58000E+000	9	...........
	11	0.16	7.17848E-001	-9.87593E-005	0.00000E+000	-7.08941E-005	-5.99601E-002	7.18139E-001	3.58000E+000	9	...........
	12	0.173333	7.06823E-001	-9.79872E-005	0.00000E+000	-6.92596E-005	-5.99601E-002	7.07114E-001	3.58000E+000	9	...........
	13	0.186667	6.95832E-001	-9.93656E-005	0.00000E+000	-6.91418E-005	-5.99601E-002	6.96108E-001	3.58000E+000	9	...........
	14	0.2	6.84876E-001	-9.78924E-005	0.00000E+000	-6.70441E-005	-5.99601E-002	6.85144E-001	3.58000E+000	9	...........
	15	0.213333	6.73916E-001	-9.83758E-005	0.00000E+000	-6.62970E-005	-5.99601E-002	6.74194E-001	3.58000E+000	9	...........
	16	0.226667	6.62969E-001	-9.89749E-005	0.00000E+000	-6.56173E-005	-5.99601E-002	6.63254E-001	3.58000E+000	9	...........
	17	0.24	6.52066E-001	-9.85467E-005	0.00000E+000	-6.42590E-005	-5.99601E-002	6.52359E-001	3.58000E+000	9	...........
	18	0.253333	6.41175E-001	-9.91104E-005	0.00000E+000	-6.35470E-005	-5.99601E-002	6.41448E-001	3.58000E+000	9	...........
	19	0.266667	6.30274E-001	-9.84488E-005	0.00000E+000	-6.20497E-005	-5.99601E-002	6.30558E-001	3.58000E+000	9	...........
	20	0.28	6.19435E-001	-9.80539E-005	0.00000E+000	-6.07381E-005	-5.99601E-002	6.19707E-001	3.58000E+000	9	...........
	21	0.293333	6.08525E-001	-9.94594E-005	0.00000E+000	-6.05235E-005	-5.99601E-002	6.08851E-001	3.58000E+000	9	...........
	22	0.306667	5.97730E-001	-9.85280E-005	0.00000E+000	-5.88931E-005	-5.99601E-002	5.98042E-001	3.58000E+000	9	...........
	23	0.32	5.86930E-001	-9.87759E-005	0.00000E+000	-5.79745E-005	-5.99601E-002	5.87236E-001	3.58000E+000	9	...........
	24	0.333333	5.76154E-001	-9.93417E-005	0.00000E+000	-5.72361E-005	-5.99601E-002	5.76436E-001	3.58000E+000	9	...........
	25	0.346667	5.65404E-001	-9.81862E-005	0.00000E+000	-5.55149E-005	-5.99601E-002	5.65690E-001	3.58000E+000	9	...........
	26	0.36	5.54645E-001	-9.94052E-005	0.00000E+000	-5.51346E-005	-5.99601E-002	5.54941E-001	3.58000E+000	9	...........
	27	0.373333	5.43974E-001	-9.80226E-005	0.00000E+000	-5.33217E-005	-5.99601E-002	5.44241E-001	3.58000E+000	9	...........
	28	0.386667	5.33306E-001	-9.80226E-005	0.00000E+000	-5.22761E-005	-5.99601E-002	5.33566E-001	3.58000E+000	9	...........
	29	0.4	5.22671E-001	-1.00091E-004	0.00000E+000	-5.23145E-005	-5.99601E-002	5.22927E-001	3.58000E+000	9	...........
	30	0.413333	5.12096E-001	-9.76736E-005	0.00000E+000	-5.00182E-005	-5.99601E-002	5.12349E-001	3.58000E+000	9	...........
	31	0.426667	5.01544E-001	-9.84602E-005	0.00000E+000	-4.93822E-005	-5.99601E-002	5.01809E-001	3.58000E+000	9	...........
	32	0.44	4.91077E-001	-9.90395E-005	0.00000E+000	-4.86360E-005	-5.99601E-002	4.91323E-001	3.58000E+000	9	...........
	33	0.453333	4.80945E-001	-9.93604E-005	0.00000E+000	-4.77869E-005	-5.99601E-002	4.81039E-001	3.58000E+000	9	...........
	34	0.466667	4.70612E-001	-9.96855E-005	0.00000E+000	-4.69132E-005	-5.99601E-002	4.70710E-001	3.58000E+000	9	...........
	35	0.48	4.60279E-001	-9.88218E-005	0.00000E+000	-4.54856E-005	-5.99601E-002	4.60377E-001	3.58000E+000	9	...........
	36	0.493333	4.49998E-001	-9.91593E-005	0.00000E+000	-4.46215E-005	-5.99601E-002	4.50096E-001	3.58000E+000	9	...........
	37	0.506667	4.39776E-001	-9.86311E-005	0.00000E+000	-4.33756E-005	-5.99601E-002	4.39869E-001	3.58000E+000	9	...........
	38	0.52	4.29612E-001	-9.88259E-005	0.00000E+000	-4.24569E-005	-5.99601E-002	4.29703E-001	3.58000E+000	9	...........
	39	0.533333	4.19504E-001	-9.82883E-005	0.00000E+000	-4.12323E-005	-5.99601E-002	4.19590E-001	3.58000E+000	9	...........
	40	0.546667	4.09461E-001	-9.91854E-005	0.00000E+000	-4.06125E-005	-5.99601E-002	4.09546E-001	3.58000E+000	9	...........
	41	0.56	3.99476E-001	-9.86999E-005	0.00000E+000	-3.94283E-005	-5.99601E-002	3.99556E-001	3.58000E+000	9	...........
	42	0.573333	3.89553E-001	-9.82071E-005	0.00000E+000	-3.82569E-005	-5.99601E-002	3.89627E-001	3.58000E+000	9	...........
	43	0.586667	3.79691E-001	-9.86478E-005	0.00000E+000	-3.74556E-005	-5.99601E-002	3.79768E-001	3.58000E+000	9	...........
	44	0.6	3.69891E-001	-9.92750E-005	0.00000E+000	-3.67209E-005	-5.99601E-002	3.69961E-001	3.58000E+000	9	...........
	45	0.613333	3.60141E-001	-9.87582E-005	0.00000E+000	-3.55668E-005	-5.99601E-002	3.60209E-001	3.58000E+000	9	...........
	46	0.626667	3.50449E-001	-9.93698E-005	0.00000E+000	-3.48241E-005	-5.99601E-002	3.50517E-001	3.57995E+000	9	...........
	47	0.64	3.40814E-001	-9.91916E-005	0.00000E+000	-3.38059E-005	-5.99601E-002	3.40880E-001	3.57960E+000	9	...........
	48	0.653333	3.31231E-001	-9.88113E-005	0.00000E+000	-3.27294E-005	-5.99601E-002	3.31297E-001	3.57960E+000	9	...........
	49	0.666667	3.21702E-001	-9.89478E-005	0.00000E+000	-3.18317E-005	-5.99601E-002	3.21763E-001	3.57960E+000	9	...........
	50	0.68	3.12221E-001	-9.93750E-005	0.00000E+000	-3.10270E-005	-5.99601E-002	3.12286E-001	3.57960E+000	9	...........
	51	0.693333	3.02795E-001	-9.90406E-005	0.00000E+000	-2.99890E-005	-5.99601E-002	3.02855E-001	3.57960E+000	9	...........
	52	0.706667	2.93409E-001	-9.91531E-005	0.00000E+000	-2.90924E-005	-5.99601E-002	2.93467E-001	3.57960E+000	9	...........
	53	0.72	2.84078E-001	-9.92614E-005	0.00000E+000	-2.81979E-005	-5.99601E-002	2.84135E-001	3.57960E+000	9	...........
	54	0.733333	2.74788E-001	-9.90260E-005	0.00000E+000	-2.72112E-005	-5.99601E-002	2.74840E-001	3.57960E+000	9	...........
	55	0.746667	2.65545E-001	-9.87332E-005	0.00000E+000	-2.62181E-005	-5.99601E-002	2.65597E-001	3.57960E+000	9	...........
	56	0.76	2.56348E-001	-9.86113E-005	0.00000E+000	-2.52788E-005	-5.99601E-002	2.56394E-001	3.57960E+000	9	...........
	57	0.773333	2.47199E-001	-9.88363E-005	0.00000E+000	-2.44322E-005	-5.99601E-002	2.47239E-001	3.57960E+000	9	...........
	58	0.786667	2.38088E-001	-9.90572E-005	0.00000E+000	-2.35844E-005	-5.99601E-002	2.38126E-001	3.57960E+000	9	...........
	59	0.8	2.29030E-001	-9.96949E-005	0.00000E+000	-2.28331E-005	-5.99601E-002	2.29059E-001	3.57960E+000	9	...........
	60	0.813333	2.20009E-001	-9.85800E-005	0.00000E+000	-2.16885E-005	-5.99601E-002	2.20043E-001	3.57960E+000	9	...........
	61	0.826667	2.11040E-001	-9.92062E-005	0.00000E+000	-2.09365E-005	-5.99601E-002	2.11063E-001	3.57960E+000	9	...........
	62	0.84	2.02117E-001	-9.88384E-005	0.00000E+000	-1.99769E-005	-5.99601E-002	2.02144E-001	3.57960E+000	9	...........
	63	0.853333	1.93246E-001	-9.93448E-005	0.00000E+000	-1.91979E-005	-5.99601E-002	1.93275E-001	3.57960E+000	9	...........
	64	0.866667	1.84431E-001	-9.78372E-005	0.00000E+000	-1.80442E-005	-5.99601E-002	1.84460E-001	3.57960E+000	9	...........
	65	0.88	1.75669E-001	-9.83435E-005	0.00000E+000	-1.72759E-005	-5.99601E-002	1.75694E-001	3.57960E+000	9	...........
	66	0.893333	1.66967E-001	-9.78528E-005	0.00000E+000	-1.63382E-005	-5.99601E-002	1.66995E-001	3.57960E+000	9	...........
	67	0.906667	1.58328E-001	-9.79070E-005	0.00000E+000	-1.55014E-005	-5.99601E-002	1.58351E-001	3.57960E+000	9	...........
	68	0.92	1.49743E-001	-9.92177E-005	0.00000E+000	-1.48571E-005	-5.99601E-002	1.49758E-001	3.57960E+000	9	...........
	69	0.933333	1.41222E-001	-9.85665E-005	0.00000E+000	-1.39198E-005	-5.99601E-002	1.41242E-001	3.57960E+000	9	...........
	70	0.946667	1.32773E-001	-9.97782E-005	0.00000E+000	-1.32479E-005	-5.99601E-002	1.32787E-001	3.57960E+000	9	...........
	71	0.96	1.24393E-001	-9.88853E-005	0.00000E+000	-1.23006E-005	-5.99601E-002	1.24406E-001	3.57960E+000	9	...........
	72	0.97333	1.16082E-001	-9.88426E-005	0.00000E+000	-1.14739E-005	-5.99601E-002	1.16096E-001	3.57960E+000	9	...........
	73	0.98667	1.07843E-001	-9.95344E-005	0.00000E+000	-1.07341E-005	-5.99601E-002	1.07855E-001	3.57960E+000	9	...........
	74	1	9.96766E-002	-9.88332E-005	0.00000E+000	-9.85136E-006	-5.99601E-002	9.96832E-002	3.57960E+000	9	...........
	75	1.01333	9.15789E-002	-9.84623E-005	0.00000E+000	-9.01707E-006	-5.99601E-002	9.15865E-002	3.57960E+000	9	...........
	76	1.02667	8.35538E-002	-9.91656E-005	0.00000E+000	-8.28566E-006	-5.99601E-002	8.35619E-002	3.57960E+000	9	...........
	77	1.04	7.56049E-002	-9.84540E-005	0.00000E+000	-7.44360E-006	-5.99601E-002	7.56027E-002	3.57960E+000	9	...........
	78	1.05333	6.77173E-002	-9.90551E-005	0.00000E+000	-6.70775E-006	-5.99601E-002	6.77185E-002	3.57960E+000	9	...........
	79	1.06667	5.98991E-002	-9.99418E-005	0.00000E+000	-5.98642E-006	-5.99601E-002	5.99015E-002	3.57960E+000	9	...........
	80	1.08	5.21552E-002	-9.89197E-005	0.00000E+000	-5.15918E-006	-5.99601E-002	5.21502E-002	3.57960E+000	9	...........
	81	1.09333	4.45171E-002	-9.98095E-005	0.00000E+000	-4.44323E-006	-5.99601E-002	4.45109E-002	3.57960E+000	9	...........
	82	1.10667	3.69114E-002	-9.91948E-005	0.00000E+000	-3.66141E-006	-5.99601E-002	3.69014E-002	3.57960E+000	9	...........
	83	1.12	2.93718E-002	-9.87759E-005	0.00000E+000	-2.90123E-006	-5.99601E-002	2.93540E-002	3.57960E+000	9	...........
	84	1.13333	2.18949E-002	-9.86228E-005	0.00000E+000	-2.15934E-006	-5.99601E-002	2.18757E-002	3.57960E+000	9	...........
	85	1.14667	1.44809E-002	-9.90051E-005	0.00000E+000	-1.43369E-006	-5.99601E-002	1.44560E-002	3.57960E+000	9	...........
	86	1.16	7.12737E-003	-9.91083E-005	0.00000E+000	-7.06382E-007	-5.99601E-002	7.09729E-003	3.57960E+000	9	...........
	87	1.16833	1.20057E-003	-9.84336E-005	0.00000E+000	-1.18176E-007	-5.99601E-002	1.16560E-003	3.57960E+000	9	...........
STARTTIMEOFFSET	QUANT	1174.08	Start Time Offset (s)
