EXPLAIN
TAG	PWR800_DISCHARGE
TITLE	LABEL	PWR Cyclic Charge Discharge (Cell) - Discharge Step	Test &Identifier
DATE	LABEL	13-7-2017	Date
TIME	LABEL	15:09:25	Time
NOTES	NOTES	2	&Notes...
	supercap test cell
	6M KOH
PSTAT	PSTAT	IFC5000-01520	Potentiostat
CAPACITY	QUANT	1.00000E-003	Capacity (A-hr)
CELLTYPE	SELECTOR	1	&Cell Type
WORKINGCONNECTION	SELECTOR	0	&Working Lead
MAXDISCHARGETIME	VARIABLEANDUNITS	1.00000E+002	s	1.00000E+002	second(s)	Max &Discharge Time
DISCHARGEMODE	MULTIPARAM	0	1.00000E-004	&Discharge Mode	Constant Current	Amp(s)
SAMPLETIME	QUANT	1.00000E-002	Sa&mple Period (s)
DISCHARGESTOPAT1	MULTIPARAM	3	0.00000E+000	Discharge Stop At &1	Voltage < Limit	V
DISCHARGESTOPAT2	MULTIPARAM	0	0.00000E+000	Discharge Stop At &2	None	N/A
AESBHCSELECTOR	TOGGLE	F	Save Both Half Cells
IRCOMP	TOGGLE	F	IR &Measure
EOC	QUANT	0	Open Circuit (V)
SEQUENCER	TOGGLE	TRUE	Run as Sequence
PSTATMODEL	IQUANT	53	Pstat Model
PSTATSECTION	LABEL	IFC5000-01520	Pstat Section
PSTATSERIALNO	LABEL	01520	Pstat Serial Number
CTRLMODE	IQUANT	0	Control Mode
ELECTROMETER	IQUANT	1	RE=0 or CS=1
IESTAB	IQUANT	0	I/E Stability
CASPEED	IQUANT	4	Control Amp Speed
CONVENTION	IQUANT	1	Current Convention
ICHRANGE	IQUANT	2	Ich Range
ICHRANGEMODE	TOGGLE	T	Ich Auto Range
ICHOFFSETENABLE	TOGGLE	F	Ich Offset Enable
ICHOFFSET	QUANT	0	Ich Offset (V)
ICHFILTER	IQUANT	1	Ich Filter
VCHRANGE	IQUANT	2	Vch Range
VCHRANGEMODE	TOGGLE	T	Vch Auto Range
VCHOFFSETENABLE	TOGGLE	F	Vch Offset Enable
VCHOFFSET	QUANT	0	Vch Offset (V)
VCHFILTER	IQUANT	1	Vch Filter
IERANGELOWERLIMIT	IQUANT	9	I/E Range Lower Limit
IERANGEMODE	TOGGLE	F	I/E AutoRange
IERANGE	IQUANT	9	I/E Range
ACHSELECT	IQUANT	1	Ach Select
ACHRANGE	IQUANT	2	Ach Range
ACHOFFSETENABLE	TOGGLE	F	Ach Offset Enable
ACHOFFSET	QUANT	0	Ach Offset (V)
ACHFILTER	IQUANT	1	Ach Filter
CABLEID	IQUANT	14	Cable ID
DCCALDATE	LABEL	5-7-2017	DC Calibration Date
ACCALDATE	LABEL	12/3/2015	AC Calibration Date
FRAMEWORKVERSION	QUANT	7.01	Framework Version
INSTRUMENTVERSION	LABEL	4.00	Instrument Version
CURVE	TABLE	92
	Pt	T	Vf	Im	Vu	Pwr	Sig	Ach	Temp	IERange	Over
	#	s	V	A	V	W	V	V	deg C	#	bits
	0	0.013333	8.54567E-001	-9.94657E-005	0.00000E+000	-8.50001E-005	-5.99601E-002	8.54928E-001	3.58010E+000	9	...........
	1	0.026667	8.41419E-001	-9.79164E-005	0.00000E+000	-8.23887E-005	-5.99601E-002	8.41762E-001	3.58010E+000	9	...........
	2	0.04	8.29090E-001	-9.84821E-005	0.00000E+000	-8.16506E-005	-5.99601E-002	8.29422E-001	3.58010E+000	9	...........
	3	0.053333	8.17331E-001	-9.88864E-005	0.00000E+000	-8.08229E-005	-5.99601E-002	8.17657E-001	3.58010E+000	9	...........
	4	0.066667	8.05948E-001	-9.93667E-005	0.00000E+000	-8.00844E-005	-5.99601E-002	8.06261E-001	3.58010E+000	9	...........
	5	0.08	7.94881E-001	-9.96167E-005	0.00000E+000	-7.91835E-005	-5.99601E-002	7.95181E-001	3.58010E+000	9	...........
	6	0.093333	7.84005E-001	-9.93323E-005	0.00000E+000	-7.78770E-005	-5.99601E-002	7.84309E-001	3.58010E+000	9	...........
	7	0.106667	7.73322E-001	-9.95157E-005	0.00000E+000	-7.69577E-005	-5.99601E-002	7.73631E-001	3.58010E+000	9	...........
	8	0.12	7.62745E-001	-9.96001E-005	0.00000E+000	-7.59694E-005	-5.99601E-002	7.63047E-001	3.58010E+000	9	...........
	9	0.133333	7.52301E-001	-9.85071E-005	0.00000E+000	-7.41070E-005	-5.99601E-002	7.52602E-001	3.58010E+000	9	...........
	10	0.146667	7.41914E-001	-9.94719E-005	0.00000E+000	-7.37996E-005	-5.99601E-002	7.42229E-001	3.58010E+000	9	...........
	11	0.16	7.31603E-001	-9.83300E-005	0.00000E+000	-7.19385E-005	-5.99601E-002	7.31878E-001	3.58010E+000	9	...........
	12	0.173333	7.21357E-001	-9.87665E-005	0.00000E+000	-7.12459E-005	-5.99601E-002	7.21625E-001	3.58010E+000	9	...........
	13	0.186667	7.11059E-001	-9.91364E-005	0.00000E+000	-7.04919E-005	-5.99601E-002	7.11368E-001	3.58010E+000	9	...........
	14	0.2	7.00888E-001	-9.99553E-005	0.00000E+000	-7.00575E-005	-5.99601E-002	7.01170E-001	3.58010E+000	9	...........
	15	0.213333	6.90704E-001	-9.97553E-005	0.00000E+000	-6.89014E-005	-5.99601E-002	6.90979E-001	3.58010E+000	9	...........
	16	0.226667	6.80522E-001	-9.92927E-005	0.00000E+000	-6.75708E-005	-5.99601E-002	6.80802E-001	3.58010E+000	9	...........
	17	0.24	6.70378E-001	-9.87332E-005	0.00000E+000	-6.61886E-005	-5.99601E-002	6.70645E-001	3.58010E+000	9	...........
	18	0.253333	6.60210E-001	-9.88020E-005	0.00000E+000	-6.52301E-005	-5.99601E-002	6.60494E-001	3.58010E+000	9	...........
	19	0.266667	6.50098E-001	-9.93500E-005	0.00000E+000	-6.45872E-005	-5.99601E-002	6.50358E-001	3.58010E+000	9	...........
	20	0.28	6.39933E-001	-9.99908E-005	0.00000E+000	-6.39874E-005	-5.99601E-002	6.40237E-001	3.58010E+000	9	...........
	21	0.293333	6.29783E-001	-9.92656E-005	0.00000E+000	-6.25158E-005	-5.99601E-002	6.30071E-001	3.58010E+000	9	...........
	22	0.306667	6.19692E-001	-9.77705E-005	0.00000E+000	-6.05876E-005	-5.99601E-002	6.19961E-001	3.58010E+000	9	...........
	23	0.32	6.09500E-001	-9.78101E-005	0.00000E+000	-5.96153E-005	-5.99601E-002	6.09816E-001	3.58010E+000	9	...........
	24	0.333333	5.99387E-001	-9.93396E-005	0.00000E+000	-5.95428E-005	-5.99601E-002	5.99713E-001	3.58010E+000	9	...........
	25	0.346667	5.89288E-001	-9.88436E-005	0.00000E+000	-5.82474E-005	-5.99601E-002	5.89597E-001	3.58010E+000	9	...........
	26	0.36	5.79187E-001	-9.93604E-005	0.00000E+000	-5.75482E-005	-5.99601E-002	5.79482E-001	3.58010E+000	9	...........
	27	0.373333	5.69114E-001	-9.80310E-005	0.00000E+000	-5.57908E-005	-5.99601E-002	5.69380E-001	3.58010E+000	9	...........
	28	0.386667	5.59011E-001	-9.92562E-005	0.00000E+000	-5.54853E-005	-5.99601E-002	5.59284E-001	3.58010E+000	9	...........
	29	0.4	5.48963E-001	-9.85342E-005	0.00000E+000	-5.40916E-005	-5.99601E-002	5.49212E-001	3.58010E+000	9	...........
	30	0.413333	5.38912E-001	-9.90343E-005	0.00000E+000	-5.33708E-005	-5.99601E-002	5.39191E-001	3.58010E+000	9	...........
	31	0.426667	5.28891E-001	-9.86123E-005	0.00000E+000	-5.21551E-005	-5.99601E-002	5.29165E-001	3.58010E+000	9	...........
	32	0.44	5.18873E-001	-9.85363E-005	0.00000E+000	-5.11278E-005	-5.99601E-002	5.19166E-001	3.58010E+000	9	...........
	33	0.453333	5.08893E-001	-9.91968E-005	0.00000E+000	-5.04806E-005	-5.99601E-002	5.09180E-001	3.58010E+000	9	...........
	34	0.466667	4.98936E-001	-9.85582E-005	0.00000E+000	-4.91742E-005	-5.99601E-002	4.99208E-001	3.58010E+000	9	...........
	35	0.48	4.89032E-001	-9.93510E-005	0.00000E+000	-4.85859E-005	-5.99601E-002	4.89300E-001	3.58010E+000	9	...........
	36	0.493333	4.79520E-001	-9.98553E-005	0.00000E+000	-4.78826E-005	-5.99601E-002	4.79627E-001	3.58010E+000	9	...........
	37	0.506667	4.69659E-001	-9.91302E-005	0.00000E+000	-4.65574E-005	-5.99601E-002	4.69764E-001	3.58010E+000	9	...........
	38	0.52	4.59838E-001	-9.91458E-005	0.00000E+000	-4.55910E-005	-5.99601E-002	4.59938E-001	3.57910E+000	9	...........
	39	0.533333	4.50055E-001	-9.85769E-005	0.00000E+000	-4.43650E-005	-5.99601E-002	4.50148E-001	3.57910E+000	9	...........
	40	0.546667	4.40308E-001	-9.86509E-005	0.00000E+000	-4.34368E-005	-5.99601E-002	4.40402E-001	3.57910E+000	9	...........
	41	0.56	4.30602E-001	-9.87509E-005	0.00000E+000	-4.25224E-005	-5.99601E-002	4.30693E-001	3.57910E+000	9	...........
	42	0.573333	4.20937E-001	-9.82758E-005	0.00000E+000	-4.13679E-005	-5.99601E-002	4.21026E-001	3.57910E+000	9	...........
	43	0.586667	4.11312E-001	-9.85884E-005	0.00000E+000	-4.05506E-005	-5.99601E-002	4.11407E-001	3.57910E+000	9	...........
	44	0.6	4.01739E-001	-9.91239E-005	0.00000E+000	-3.98219E-005	-5.99601E-002	4.01815E-001	3.57910E+000	9	...........
	45	0.613333	3.92203E-001	-9.85113E-005	0.00000E+000	-3.86364E-005	-5.99601E-002	3.92278E-001	3.57910E+000	9	...........
	46	0.626667	3.82703E-001	-9.83112E-005	0.00000E+000	-3.76240E-005	-5.99601E-002	3.82783E-001	3.57910E+000	9	...........
	47	0.64	3.73249E-001	-9.94917E-005	0.00000E+000	-3.71352E-005	-5.99601E-002	3.73327E-001	3.57910E+000	9	...........
	48	0.653333	3.63844E-001	-9.86696E-005	0.00000E+000	-3.59004E-005	-5.99601E-002	3.63916E-001	3.57910E+000	9	...........
	49	0.666667	3.54474E-001	-9.84811E-005	0.00000E+000	-3.49090E-005	-5.99601E-002	3.54547E-001	3.57910E+000	9	...........
	50	0.68	3.45142E-001	-9.89280E-005	0.00000E+000	-3.41442E-005	-5.99601E-002	3.45212E-001	3.57910E+000	9	...........
	51	0.693333	3.35858E-001	-9.80862E-005	0.00000E+000	-3.29430E-005	-5.99601E-002	3.35930E-001	3.57910E+000	9	...........
	52	0.706667	3.26620E-001	-9.86353E-005	0.00000E+000	-3.22163E-005	-5.99601E-002	3.26683E-001	3.57910E+000	9	...........
	53	0.72	3.17409E-001	-9.86155E-005	0.00000E+000	-3.13014E-005	-5.99601E-002	3.17475E-001	3.57910E+000	9	...........
	54	0.733333	3.08237E-001	-9.83779E-005	0.00000E+000	-3.03237E-005	-5.99601E-002	3.08298E-001	3.57910E+000	9	...........
	55	0.746667	2.99105E-001	-9.86936E-005	0.00000E+000	-2.95197E-005	-5.99601E-002	2.99162E-001	3.57910E+000	9	...........
	56	0.76	2.90013E-001	-9.84967E-005	0.00000E+000	-2.85654E-005	-5.99601E-002	2.90067E-001	3.57910E+000	9	...........
	57	0.773333	2.80957E-001	-9.84081E-005	0.00000E+000	-2.76485E-005	-5.99601E-002	2.81009E-001	3.57910E+000	9	...........
	58	0.786667	2.71932E-001	-9.90468E-005	0.00000E+000	-2.69340E-005	-5.99601E-002	2.71983E-001	3.57910E+000	9	...........
	59	0.8	2.62940E-001	-9.94188E-005	0.00000E+000	-2.61412E-005	-5.99601E-002	2.63000E-001	3.57910E+000	9	...........
	60	0.813333	2.53999E-001	-9.87343E-005	0.00000E+000	-2.50784E-005	-5.99601E-002	2.54044E-001	3.57910E+000	9	...........
	61	0.826667	2.45079E-001	-9.88718E-005	0.00000E+000	-2.42314E-005	-5.99601E-002	2.45127E-001	3.57910E+000	9	...........
	62	0.84	2.36202E-001	-9.93625E-005	0.00000E+000	-2.34696E-005	-5.99601E-002	2.36247E-001	3.57910E+000	9	...........
	63	0.853333	2.27360E-001	-9.99814E-005	0.00000E+000	-2.27318E-005	-5.99601E-002	2.27400E-001	3.57910E+000	9	...........
	64	0.866667	2.18551E-001	-9.84998E-005	0.00000E+000	-2.15273E-005	-5.99601E-002	2.18592E-001	3.57910E+000	9	...........
	65	0.88	2.09785E-001	-9.91562E-005	0.00000E+000	-2.08015E-005	-5.99601E-002	2.09810E-001	3.57910E+000	9	...........
	66	0.893333	2.01043E-001	-9.85957E-005	0.00000E+000	-1.98220E-005	-5.99601E-002	2.01076E-001	3.57910E+000	9	...........
	67	0.906667	1.92348E-001	-9.89666E-005	0.00000E+000	-1.90360E-005	-5.99601E-002	1.92374E-001	3.57910E+000	9	...........
	68	0.92	1.83691E-001	-9.84071E-005	0.00000E+000	-1.80765E-005	-5.99601E-002	1.83721E-001	3.57910E+000	9	...........
	69	0.933333	1.75076E-001	-9.98824E-005	0.00000E+000	-1.74871E-005	-5.99601E-002	1.75105E-001	3.57910E+000	9	...........
	70	0.946667	1.66509E-001	-9.83498E-005	0.00000E+000	-1.63761E-005	-5.99601E-002	1.66528E-001	3.57910E+000	9	...........
	71	0.96	1.57990E-001	-9.91145E-005	0.00000E+000	-1.56591E-005	-5.99601E-002	1.58012E-001	3.57910E+000	9	...........
	72	0.97333	1.49520E-001	-9.91197E-005	0.00000E+000	-1.48204E-005	-5.99601E-002	1.49538E-001	3.57910E+000	9	...........
	73	0.98667	1.41101E-001	-9.76444E-005	0.00000E+000	-1.37778E-005	-5.99601E-002	1.41120E-001	3.57910E+000	9	...........
	74	1	1.32731E-001	-9.94854E-005	0.00000E+000	-1.32048E-005	-5.99601E-002	1.32749E-001	3.57910E+000	9	...........
	75	1.01333	1.24422E-001	-9.96313E-005	0.00000E+000	-1.23963E-005	-5.99601E-002	1.24444E-001	3.57910E+000	9	...........
	76	1.02667	1.16176E-001	-9.92510E-005	0.00000E+000	-1.15306E-005	-5.99601E-002	1.16196E-001	3.57910E+000	9	...........
	77	1.04	1.07991E-001	-9.90760E-005	0.00000E+000	-1.06993E-005	-5.99601E-002	1.08003E-001	3.57910E+000	9	...........
	78	1.05333	9.98629E-002	-9.80424E-005	0.00000E+000	-9.79080E-006	-5.99601E-002	9.98781E-002	3.57910E+000	9	...........
	79	1.06667	9.18002E-002	-9.87613E-005	0.00000E+000	-9.06631E-006	-5.99601E-002	9.18152E-002	3.57910E+000	9	...........
	80	1.08	8.37995E-002	-9.86113E-005	0.00000E+000	-8.26358E-006	-5.99601E-002	8.38057E-002	3.57910E+000	9	...........
	81	1.09333	7.58644E-002	-9.88405E-005	0.00000E+000	-7.49848E-006	-5.99601E-002	7.58700E-002	3.57910E+000	9	...........
	82	1.10667	6.79916E-002	-9.90145E-005	0.00000E+000	-6.73216E-006	-5.99601E-002	6.79916E-002	3.57910E+000	9	...........
	83	1.12	6.01805E-002	-9.87822E-005	0.00000E+000	-5.94476E-006	-5.99601E-002	6.01835E-002	3.57910E+000	9	...........
	84	1.13333	5.24337E-002	-9.86415E-005	0.00000E+000	-5.17214E-006	-5.99601E-002	5.24330E-002	3.57910E+000	9	...........
	85	1.14667	4.47835E-002	-9.92719E-005	0.00000E+000	-4.44574E-006	-5.99601E-002	4.47801E-002	3.57910E+000	9	...........
	86	1.16	3.71653E-002	-9.86353E-005	0.00000E+000	-3.66581E-006	-5.99601E-002	3.71555E-002	3.57910E+000	9	...........
	87	1.17333	2.96012E-002	-9.89999E-005	0.00000E+000	-2.93052E-006	-5.99601E-002	2.95830E-002	3.57910E+000	9	...........
	88	1.18667	2.20945E-002	-9.87082E-005	0.00000E+000	-2.18091E-006	-5.99601E-002	2.20730E-002	3.57910E+000	9	...........
	89	1.2	1.46483E-002	-9.84238E-005	0.00000E+000	-1.44174E-006	-5.99601E-002	1.46248E-002	3.57910E+000	9	...........
	90	1.21333	7.26488E-003	-9.88311E-005	0.00000E+000	-7.17997E-007	-5.99601E-002	7.23689E-003	3.57910E+000	9	...........
	91	1.22167	1.30356E-003	-9.91587E-005	0.00000E+000	-1.29260E-007	-5.99601E-002	1.27162E-003	3.57910E+000	9	...........
STARTTIMEOFFSET	QUANT	332.2315	Start Time Offset (s)
