EXPLAIN
TAG	PWR800_DISCHARGE
TITLE	LABEL	PWR Cyclic Charge Discharge (Cell) - Discharge Step	Test &Identifier
DATE	LABEL	13-7-2017	Date
TIME	LABEL	15:32:58	Time
NOTES	NOTES	2	&Notes...
	supercap test cell
	6M KOH
PSTAT	PSTAT	IFC5000-01520	Potentiostat
CAPACITY	QUANT	1.00000E-003	Capacity (A-hr)
CELLTYPE	SELECTOR	1	&Cell Type
WORKINGCONNECTION	SELECTOR	0	&Working Lead
MAXDISCHARGETIME	VARIABLEANDUNITS	1.00000E+002	s	1.00000E+002	second(s)	Max &Discharge Time
DISCHARGEMODE	MULTIPARAM	0	1.00000E-004	&Discharge Mode	Constant Current	Amp(s)
SAMPLETIME	QUANT	1.00000E-002	Sa&mple Period (s)
DISCHARGESTOPAT1	MULTIPARAM	3	0.00000E+000	Discharge Stop At &1	Voltage < Limit	V
DISCHARGESTOPAT2	MULTIPARAM	0	0.00000E+000	Discharge Stop At &2	None	N/A
AESBHCSELECTOR	TOGGLE	F	Save Both Half Cells
IRCOMP	TOGGLE	F	IR &Measure
EOC	QUANT	0	Open Circuit (V)
SEQUENCER	TOGGLE	TRUE	Run as Sequence
PSTATMODEL	IQUANT	53	Pstat Model
PSTATSECTION	LABEL	IFC5000-01520	Pstat Section
PSTATSERIALNO	LABEL	01520	Pstat Serial Number
CTRLMODE	IQUANT	0	Control Mode
ELECTROMETER	IQUANT	1	RE=0 or CS=1
IESTAB	IQUANT	0	I/E Stability
CASPEED	IQUANT	4	Control Amp Speed
CONVENTION	IQUANT	1	Current Convention
ICHRANGE	IQUANT	2	Ich Range
ICHRANGEMODE	TOGGLE	T	Ich Auto Range
ICHOFFSETENABLE	TOGGLE	F	Ich Offset Enable
ICHOFFSET	QUANT	0	Ich Offset (V)
ICHFILTER	IQUANT	1	Ich Filter
VCHRANGE	IQUANT	2	Vch Range
VCHRANGEMODE	TOGGLE	T	Vch Auto Range
VCHOFFSETENABLE	TOGGLE	F	Vch Offset Enable
VCHOFFSET	QUANT	0	Vch Offset (V)
VCHFILTER	IQUANT	1	Vch Filter
IERANGELOWERLIMIT	IQUANT	9	I/E Range Lower Limit
IERANGEMODE	TOGGLE	F	I/E AutoRange
IERANGE	IQUANT	9	I/E Range
ACHSELECT	IQUANT	1	Ach Select
ACHRANGE	IQUANT	2	Ach Range
ACHOFFSETENABLE	TOGGLE	F	Ach Offset Enable
ACHOFFSET	QUANT	0	Ach Offset (V)
ACHFILTER	IQUANT	1	Ach Filter
CABLEID	IQUANT	14	Cable ID
DCCALDATE	LABEL	5-7-2017	DC Calibration Date
ACCALDATE	LABEL	12/3/2015	AC Calibration Date
FRAMEWORKVERSION	QUANT	7.01	Framework Version
INSTRUMENTVERSION	LABEL	4.00	Instrument Version
CURVE	TABLE	87
	Pt	T	Vf	Im	Vu	Pwr	Sig	Ach	Temp	IERange	Over
	#	s	V	A	V	W	V	V	deg C	#	bits
	0	0.013333	8.47340E-001	-9.82685E-005	0.00000E+000	-8.32668E-005	-5.99601E-002	8.47682E-001	3.57910E+000	9	...........
	1	0.026667	8.33299E-001	-1.00178E-004	0.00000E+000	-8.34785E-005	-5.99601E-002	8.33631E-001	3.57910E+000	9	...........
	2	0.04	8.20085E-001	-9.90145E-005	0.00000E+000	-8.12003E-005	-5.99601E-002	8.20403E-001	3.57910E+000	9	...........
	3	0.053333	8.07455E-001	-9.84373E-005	0.00000E+000	-7.94837E-005	-5.99601E-002	8.07786E-001	3.57910E+000	9	...........
	4	0.066667	7.95244E-001	-9.86707E-005	0.00000E+000	-7.84673E-005	-5.99601E-002	7.95526E-001	3.57910E+000	9	...........
	5	0.08	7.83283E-001	-9.87853E-005	0.00000E+000	-7.73769E-005	-5.99601E-002	7.83562E-001	3.57910E+000	9	...........
	6	0.093333	7.71555E-001	-9.87645E-005	0.00000E+000	-7.62022E-005	-5.99601E-002	7.71849E-001	3.57910E+000	9	...........
	7	0.106667	7.60006E-001	-9.88280E-005	0.00000E+000	-7.51099E-005	-5.99601E-002	7.60282E-001	3.57910E+000	9	...........
	8	0.12	7.48551E-001	-9.89572E-005	0.00000E+000	-7.40745E-005	-5.99601E-002	7.48846E-001	3.57910E+000	9	...........
	9	0.133333	7.37199E-001	-9.86092E-005	0.00000E+000	-7.26946E-005	-5.99601E-002	7.37478E-001	3.57910E+000	9	...........
	10	0.146667	7.25926E-001	-9.90479E-005	0.00000E+000	-7.19014E-005	-5.99601E-002	7.26196E-001	3.57910E+000	9	...........
	11	0.16	7.14711E-001	-9.92708E-005	0.00000E+000	-7.09499E-005	-5.99601E-002	7.14944E-001	3.57910E+000	9	...........
	12	0.173333	7.03530E-001	-9.83435E-005	0.00000E+000	-6.91876E-005	-5.99601E-002	7.03755E-001	3.57910E+000	9	...........
	13	0.186667	6.92391E-001	-9.97751E-005	0.00000E+000	-6.90834E-005	-5.99601E-002	6.92592E-001	3.57910E+000	9	...........
	14	0.2	6.81287E-001	-1.00010E-004	0.00000E+000	-6.81352E-005	-5.99601E-002	6.81542E-001	3.57910E+000	9	...........
	15	0.213333	6.70229E-001	-9.90197E-005	0.00000E+000	-6.63659E-005	-5.99601E-002	6.70465E-001	3.57910E+000	9	...........
	16	0.226667	6.59145E-001	-9.86051E-005	0.00000E+000	-6.49950E-005	-5.99601E-002	6.59418E-001	3.57910E+000	9	...........
	17	0.24	6.48112E-001	-9.90531E-005	0.00000E+000	-6.41975E-005	-5.99601E-002	6.48379E-001	3.57910E+000	9	...........
	18	0.253333	6.37097E-001	-9.91020E-005	0.00000E+000	-6.31376E-005	-5.99601E-002	6.37356E-001	3.57910E+000	9	...........
	19	0.266667	6.26113E-001	-9.94021E-005	0.00000E+000	-6.22369E-005	-5.99601E-002	6.26357E-001	3.57910E+000	9	...........
	20	0.28	6.15098E-001	-9.95073E-005	0.00000E+000	-6.12067E-005	-5.99601E-002	6.15397E-001	3.57910E+000	9	...........
	21	0.293333	6.04131E-001	-9.87124E-005	0.00000E+000	-5.96352E-005	-5.99601E-002	6.04436E-001	3.57910E+000	9	...........
	22	0.306667	5.93224E-001	-9.89291E-005	0.00000E+000	-5.86871E-005	-5.99601E-002	5.93520E-001	3.57910E+000	9	...........
	23	0.32	5.82294E-001	-9.95657E-005	0.00000E+000	-5.79765E-005	-5.99601E-002	5.82605E-001	3.57910E+000	9	...........
	24	0.333333	5.71446E-001	-9.83831E-005	0.00000E+000	-5.62207E-005	-5.99601E-002	5.71713E-001	3.57910E+000	9	...........
	25	0.346667	5.60575E-001	-9.99147E-005	0.00000E+000	-5.60097E-005	-5.99601E-002	5.60850E-001	3.57910E+000	9	...........
	26	0.36	5.49751E-001	-9.84592E-005	0.00000E+000	-5.41280E-005	-5.99601E-002	5.50025E-001	3.57910E+000	9	...........
	27	0.373333	5.38994E-001	-9.87811E-005	0.00000E+000	-5.32425E-005	-5.99601E-002	5.39232E-001	3.57910E+000	9	...........
	28	0.386667	5.28234E-001	-9.85540E-005	0.00000E+000	-5.20596E-005	-5.99601E-002	5.28495E-001	3.57910E+000	9	...........
	29	0.4	5.17528E-001	-9.87457E-005	0.00000E+000	-5.11036E-005	-5.99601E-002	5.17762E-001	3.57910E+000	9	...........
	30	0.413333	5.06842E-001	-9.83456E-005	0.00000E+000	-4.98457E-005	-5.99601E-002	5.07104E-001	3.57910E+000	9	...........
	31	0.426667	4.96249E-001	-9.84696E-005	0.00000E+000	-4.88654E-005	-5.99601E-002	4.96489E-001	3.57910E+000	9	...........
	32	0.44	4.85836E-001	-9.91333E-005	0.00000E+000	-4.81625E-005	-5.99601E-002	4.86006E-001	3.57910E+000	9	...........
	33	0.453333	4.75574E-001	-9.88176E-005	0.00000E+000	-4.69951E-005	-5.99601E-002	4.75674E-001	3.57910E+000	9	...........
	34	0.466667	4.65134E-001	-9.83019E-005	0.00000E+000	-4.57235E-005	-5.99601E-002	4.65231E-001	3.57910E+000	9	...........
	35	0.48	4.54755E-001	-9.92521E-005	0.00000E+000	-4.51354E-005	-5.99601E-002	4.54850E-001	3.57910E+000	9	...........
	36	0.493333	4.44430E-001	-9.89499E-005	0.00000E+000	-4.39763E-005	-5.99601E-002	4.44521E-001	3.57910E+000	9	...........
	37	0.506667	4.34167E-001	-9.92469E-005	0.00000E+000	-4.30898E-005	-5.99601E-002	4.34258E-001	3.57910E+000	9	...........
	38	0.52	4.23969E-001	-9.87978E-005	0.00000E+000	-4.18872E-005	-5.99601E-002	4.24056E-001	3.57910E+000	9	...........
	39	0.533333	4.13838E-001	-9.87947E-005	0.00000E+000	-4.08850E-005	-5.99601E-002	4.13921E-001	3.57910E+000	9	...........
	40	0.546667	4.03769E-001	-9.82383E-005	0.00000E+000	-3.96656E-005	-5.99601E-002	4.03847E-001	3.57910E+000	9	...........
	41	0.56	3.93755E-001	-9.91885E-005	0.00000E+000	-3.90560E-005	-5.99601E-002	3.93832E-001	3.57910E+000	9	...........
	42	0.573333	3.83812E-001	-9.94083E-005	0.00000E+000	-3.81541E-005	-5.99601E-002	3.83882E-001	3.57910E+000	9	...........
	43	0.586667	3.73919E-001	-9.93813E-005	0.00000E+000	-3.71606E-005	-5.99601E-002	3.73992E-001	3.57910E+000	9	...........
	44	0.6	3.64097E-001	-9.88728E-005	0.00000E+000	-3.59993E-005	-5.99601E-002	3.64164E-001	3.57910E+000	9	...........
	45	0.613333	3.54330E-001	-9.91729E-005	0.00000E+000	-3.51399E-005	-5.99601E-002	3.54392E-001	3.57910E+000	9	...........
	46	0.626667	3.44616E-001	-9.90354E-005	0.00000E+000	-3.41291E-005	-5.99601E-002	3.44682E-001	3.57910E+000	9	...........
	47	0.64	3.34962E-001	-9.92541E-005	0.00000E+000	-3.32463E-005	-5.99601E-002	3.35027E-001	3.57910E+000	9	...........
	48	0.653333	3.25366E-001	-9.86697E-005	0.00000E+000	-3.21038E-005	-5.99601E-002	3.25429E-001	3.57910E+000	9	...........
	49	0.666667	3.15819E-001	-9.89780E-005	0.00000E+000	-3.12592E-005	-5.99601E-002	3.15883E-001	3.57910E+000	9	...........
	50	0.68	3.06324E-001	-9.86103E-005	0.00000E+000	-3.02067E-005	-5.99601E-002	3.06387E-001	3.57910E+000	9	...........
	51	0.693333	2.96879E-001	-9.82123E-005	0.00000E+000	-2.91572E-005	-5.99601E-002	2.96938E-001	3.57910E+000	9	...........
	52	0.706667	2.87486E-001	-9.88332E-005	0.00000E+000	-2.84132E-005	-5.99601E-002	2.87544E-001	3.57910E+000	9	...........
	53	0.72	2.78142E-001	-9.92781E-005	0.00000E+000	-2.76134E-005	-5.99601E-002	2.78195E-001	3.57966E+000	9	...........
	54	0.733333	2.68843E-001	-9.88634E-005	0.00000E+000	-2.65787E-005	-5.99601E-002	2.68891E-001	3.58000E+000	9	...........
	55	0.746667	2.59594E-001	-9.85061E-005	0.00000E+000	-2.55716E-005	-5.99601E-002	2.59637E-001	3.58000E+000	9	...........
	56	0.76	2.50390E-001	-9.85644E-005	0.00000E+000	-2.46796E-005	-5.99601E-002	2.50435E-001	3.58000E+000	9	...........
	57	0.773333	2.41234E-001	-9.89874E-005	0.00000E+000	-2.38791E-005	-5.99601E-002	2.41277E-001	3.58000E+000	9	...........
	58	0.786667	2.32129E-001	-9.94281E-005	0.00000E+000	-2.30801E-005	-5.99601E-002	2.32163E-001	3.58000E+000	9	...........
	59	0.8	2.23064E-001	-9.89020E-005	0.00000E+000	-2.20615E-005	-5.99601E-002	2.23103E-001	3.58000E+000	9	...........
	60	0.813333	2.14053E-001	-9.85894E-005	0.00000E+000	-2.11033E-005	-5.99601E-002	2.14088E-001	3.58000E+000	9	...........
	61	0.826667	2.05095E-001	-9.91416E-005	0.00000E+000	-2.03334E-005	-5.99601E-002	2.05125E-001	3.58000E+000	9	...........
	62	0.84	1.96188E-001	-9.86717E-005	0.00000E+000	-1.93582E-005	-5.99601E-002	1.96218E-001	3.58000E+000	9	...........
	63	0.853333	1.87331E-001	-9.84998E-005	0.00000E+000	-1.84521E-005	-5.99601E-002	1.87360E-001	3.58000E+000	9	...........
	64	0.866667	1.78535E-001	-9.93271E-005	0.00000E+000	-1.77334E-005	-5.99601E-002	1.78559E-001	3.58000E+000	9	...........
	65	0.88	1.69790E-001	-9.87113E-005	0.00000E+000	-1.67602E-005	-5.99601E-002	1.69818E-001	3.58000E+000	9	...........
	66	0.893333	1.61119E-001	-9.96636E-005	0.00000E+000	-1.60577E-005	-5.99601E-002	1.61136E-001	3.58000E+000	9	...........
	67	0.906667	1.52511E-001	-9.87395E-005	0.00000E+000	-1.50588E-005	-5.99601E-002	1.52522E-001	3.58000E+000	9	...........
	68	0.92	1.43965E-001	-9.81758E-005	0.00000E+000	-1.41339E-005	-5.99601E-002	1.43977E-001	3.58000E+000	9	...........
	69	0.933333	1.35484E-001	-9.86947E-005	0.00000E+000	-1.33715E-005	-5.99601E-002	1.35503E-001	3.58000E+000	9	...........
	70	0.946667	1.27080E-001	-9.83008E-005	0.00000E+000	-1.24921E-005	-5.99601E-002	1.27094E-001	3.58000E+000	9	...........
	71	0.96	1.18746E-001	-9.85134E-005	0.00000E+000	-1.16981E-005	-5.99601E-002	1.18760E-001	3.58000E+000	9	...........
	72	0.97333	1.10486E-001	-9.83977E-005	0.00000E+000	-1.08715E-005	-5.99601E-002	1.10493E-001	3.58000E+000	9	...........
	73	0.98667	1.02295E-001	-9.88426E-005	0.00000E+000	-1.01111E-005	-5.99601E-002	1.02300E-001	3.58000E+000	9	...........
	74	1	9.41808E-002	-9.94771E-005	0.00000E+000	-9.36883E-006	-5.99601E-002	9.41789E-002	3.58000E+000	9	...........
	75	1.01333	8.61394E-002	-9.89134E-005	0.00000E+000	-8.52034E-006	-5.99601E-002	8.61385E-002	3.58000E+000	9	...........
	76	1.02667	7.81721E-002	-9.87103E-005	0.00000E+000	-7.71639E-006	-5.99601E-002	7.81729E-002	3.58000E+000	9	...........
	77	1.04	7.02727E-002	-9.86790E-005	0.00000E+000	-6.93444E-006	-5.99601E-002	7.02700E-002	3.58000E+000	9	...........
	78	1.05333	6.24414E-002	-9.91937E-005	0.00000E+000	-6.19379E-006	-5.99601E-002	6.24408E-002	3.58000E+000	9	...........
	79	1.06667	5.46901E-002	-9.81664E-005	0.00000E+000	-5.36873E-006	-5.99601E-002	5.46817E-002	3.58000E+000	9	...........
	80	1.08	4.70234E-002	-9.79747E-005	0.00000E+000	-4.60710E-006	-5.99601E-002	4.70197E-002	3.58000E+000	9	...........
	81	1.09333	3.94156E-002	-9.88812E-005	0.00000E+000	-3.89746E-006	-5.99601E-002	3.94057E-002	3.58000E+000	9	...........
	82	1.10667	3.18611E-002	-9.89676E-005	0.00000E+000	-3.15322E-006	-5.99601E-002	3.18460E-002	3.58000E+000	9	...........
	83	1.12	2.43675E-002	-9.90645E-005	0.00000E+000	-2.41396E-006	-5.99601E-002	2.43498E-002	3.58000E+000	9	...........
	84	1.13333	1.69418E-002	-9.90583E-005	0.00000E+000	-1.67823E-006	-5.99601E-002	1.69211E-002	3.58000E+000	9	...........
	85	1.14667	9.58183E-003	-9.92802E-005	0.00000E+000	-9.51286E-007	-5.99601E-002	9.55394E-003	3.58000E+000	9	...........
	86	1.16	2.28388E-003	-9.87936E-005	0.00000E+000	-2.25633E-007	-5.99601E-002	2.25161E-003	3.58000E+000	9	...........
STARTTIMEOFFSET	QUANT	1400.588	Start Time Offset (s)
