EXPLAIN
TAG	PWR800_DISCHARGE
TITLE	LABEL	PWR Cyclic Charge Discharge (Cell) - Discharge Step	Test &Identifier
DATE	LABEL	13-7-2017	Date
TIME	LABEL	15:03:21	Time
NOTES	NOTES	2	&Notes...
	supercap test cell
	6M KOH
PSTAT	PSTAT	IFC5000-01520	Potentiostat
CAPACITY	QUANT	1.00000E-003	Capacity (A-hr)
CELLTYPE	SELECTOR	1	&Cell Type
WORKINGCONNECTION	SELECTOR	0	&Working Lead
MAXDISCHARGETIME	VARIABLEANDUNITS	1.00000E+002	s	1.00000E+002	second(s)	Max &Discharge Time
DISCHARGEMODE	MULTIPARAM	0	1.00000E-004	&Discharge Mode	Constant Current	Amp(s)
SAMPLETIME	QUANT	1.00000E-002	Sa&mple Period (s)
DISCHARGESTOPAT1	MULTIPARAM	3	0.00000E+000	Discharge Stop At &1	Voltage < Limit	V
DISCHARGESTOPAT2	MULTIPARAM	0	0.00000E+000	Discharge Stop At &2	None	N/A
AESBHCSELECTOR	TOGGLE	F	Save Both Half Cells
IRCOMP	TOGGLE	F	IR &Measure
EOC	QUANT	0	Open Circuit (V)
SEQUENCER	TOGGLE	TRUE	Run as Sequence
PSTATMODEL	IQUANT	53	Pstat Model
PSTATSECTION	LABEL	IFC5000-01520	Pstat Section
PSTATSERIALNO	LABEL	01520	Pstat Serial Number
CTRLMODE	IQUANT	0	Control Mode
ELECTROMETER	IQUANT	1	RE=0 or CS=1
IESTAB	IQUANT	0	I/E Stability
CASPEED	IQUANT	4	Control Amp Speed
CONVENTION	IQUANT	1	Current Convention
ICHRANGE	IQUANT	2	Ich Range
ICHRANGEMODE	TOGGLE	T	Ich Auto Range
ICHOFFSETENABLE	TOGGLE	F	Ich Offset Enable
ICHOFFSET	QUANT	0	Ich Offset (V)
ICHFILTER	IQUANT	1	Ich Filter
VCHRANGE	IQUANT	2	Vch Range
VCHRANGEMODE	TOGGLE	T	Vch Auto Range
VCHOFFSETENABLE	TOGGLE	F	Vch Offset Enable
VCHOFFSET	QUANT	0	Vch Offset (V)
VCHFILTER	IQUANT	1	Vch Filter
IERANGELOWERLIMIT	IQUANT	9	I/E Range Lower Limit
IERANGEMODE	TOGGLE	F	I/E AutoRange
IERANGE	IQUANT	9	I/E Range
ACHSELECT	IQUANT	1	Ach Select
ACHRANGE	IQUANT	2	Ach Range
ACHOFFSETENABLE	TOGGLE	F	Ach Offset Enable
ACHOFFSET	QUANT	0	Ach Offset (V)
ACHFILTER	IQUANT	1	Ach Filter
CABLEID	IQUANT	14	Cable ID
DCCALDATE	LABEL	5-7-2017	DC Calibration Date
ACCALDATE	LABEL	12/3/2015	AC Calibration Date
FRAMEWORKVERSION	QUANT	7.01	Framework Version
INSTRUMENTVERSION	LABEL	4.00	Instrument Version
CURVE	TABLE	94
	Pt	T	Vf	Im	Vu	Pwr	Sig	Ach	Temp	IERange	Over
	#	s	V	A	V	W	V	V	deg C	#	bits
	0	0.013333	8.59828E-001	-9.87301E-005	0.00000E+000	-8.48909E-005	-5.99601E-002	8.60193E-001	3.58020E+000	9	...........
	1	0.026667	8.47538E-001	-9.86571E-005	0.00000E+000	-8.36157E-005	-5.99601E-002	8.47909E-001	3.58020E+000	9	...........
	2	0.04	8.35994E-001	-9.89583E-005	0.00000E+000	-8.27285E-005	-5.99601E-002	8.36365E-001	3.58020E+000	9	...........
	3	0.053333	8.24990E-001	-9.94302E-005	0.00000E+000	-8.20289E-005	-5.99601E-002	8.25362E-001	3.58020E+000	9	...........
	4	0.066667	8.14381E-001	-9.89280E-005	0.00000E+000	-8.05651E-005	-5.99601E-002	8.14721E-001	3.58020E+000	9	...........
	5	0.08	8.04071E-001	-9.93760E-005	0.00000E+000	-7.99054E-005	-5.99601E-002	8.04393E-001	3.58020E+000	9	...........
	6	0.093333	7.93982E-001	-9.80633E-005	0.00000E+000	-7.78605E-005	-5.99601E-002	7.94324E-001	3.58020E+000	9	...........
	7	0.106667	7.84060E-001	-9.90187E-005	0.00000E+000	-7.76366E-005	-5.99601E-002	7.84349E-001	3.58020E+000	9	...........
	8	0.12	7.74236E-001	-9.85134E-005	0.00000E+000	-7.62726E-005	-5.99601E-002	7.74577E-001	3.57922E+000	9	...........
	9	0.133333	7.64549E-001	-9.89603E-005	0.00000E+000	-7.56600E-005	-5.99601E-002	7.64859E-001	3.57890E+000	9	...........
	10	0.146667	7.54977E-001	-9.84227E-005	0.00000E+000	-7.43069E-005	-5.99601E-002	7.55255E-001	3.57890E+000	9	...........
	11	0.16	7.45423E-001	-9.85582E-005	0.00000E+000	-7.34675E-005	-5.99601E-002	7.45716E-001	3.57890E+000	9	...........
	12	0.173333	7.35921E-001	-9.91375E-005	0.00000E+000	-7.29573E-005	-5.99601E-002	7.36199E-001	3.57890E+000	9	...........
	13	0.186667	7.26500E-001	-9.98709E-005	0.00000E+000	-7.25562E-005	-5.99601E-002	7.26746E-001	3.57890E+000	9	...........
	14	0.2	7.17069E-001	-9.90208E-005	0.00000E+000	-7.10047E-005	-5.99601E-002	7.17338E-001	3.57890E+000	9	...........
	15	0.213333	7.07657E-001	-9.87176E-005	0.00000E+000	-6.98582E-005	-5.99601E-002	7.07943E-001	3.57890E+000	9	...........
	16	0.226667	6.98305E-001	-9.87884E-005	0.00000E+000	-6.89844E-005	-5.99601E-002	6.98562E-001	3.57890E+000	9	...........
	17	0.24	6.88919E-001	-9.94636E-005	0.00000E+000	-6.85223E-005	-5.99601E-002	6.89217E-001	3.57890E+000	9	...........
	18	0.253333	6.79588E-001	-9.90739E-005	0.00000E+000	-6.73294E-005	-5.99601E-002	6.79863E-001	3.57890E+000	9	...........
	19	0.266667	6.70245E-001	-9.89926E-005	0.00000E+000	-6.63494E-005	-5.99601E-002	6.70512E-001	3.57890E+000	9	...........
	20	0.28	6.60862E-001	-9.96907E-005	0.00000E+000	-6.58818E-005	-5.99601E-002	6.61147E-001	3.57890E+000	9	...........
	21	0.293333	6.51513E-001	-9.84311E-005	0.00000E+000	-6.41292E-005	-5.99601E-002	6.51783E-001	3.57890E+000	9	...........
	22	0.306667	6.42152E-001	-9.88968E-005	0.00000E+000	-6.35068E-005	-5.99601E-002	6.42403E-001	3.57890E+000	9	...........
	23	0.32	6.32784E-001	-9.85509E-005	0.00000E+000	-6.23614E-005	-5.99601E-002	6.33014E-001	3.57890E+000	9	...........
	24	0.333333	6.23424E-001	-9.93531E-005	0.00000E+000	-6.19392E-005	-5.99601E-002	6.23631E-001	3.57890E+000	9	...........
	25	0.346667	6.14031E-001	-9.85915E-005	0.00000E+000	-6.05382E-005	-5.99601E-002	6.14272E-001	3.57890E+000	9	...........
	26	0.36	6.04620E-001	-9.94782E-005	0.00000E+000	-6.01465E-005	-5.99601E-002	6.04881E-001	3.57890E+000	9	...........
	27	0.373333	5.95251E-001	-9.84248E-005	0.00000E+000	-5.85875E-005	-5.99601E-002	5.95500E-001	3.57890E+000	9	...........
	28	0.386667	5.85849E-001	-9.90291E-005	0.00000E+000	-5.80161E-005	-5.99601E-002	5.86092E-001	3.57890E+000	9	...........
	29	0.4	5.76466E-001	-9.94896E-005	0.00000E+000	-5.73524E-005	-5.99601E-002	5.76710E-001	3.57890E+000	9	...........
	30	0.413333	5.67083E-001	-9.84748E-005	0.00000E+000	-5.58434E-005	-5.99601E-002	5.67324E-001	3.57890E+000	9	...........
	31	0.426667	5.57631E-001	-9.80935E-005	0.00000E+000	-5.47000E-005	-5.99601E-002	5.57892E-001	3.57890E+000	9	...........
	32	0.44	5.48225E-001	-9.89030E-005	0.00000E+000	-5.42211E-005	-5.99601E-002	5.48464E-001	3.57890E+000	9	...........
	33	0.453333	5.38816E-001	-9.85550E-005	0.00000E+000	-5.31030E-005	-5.99601E-002	5.39032E-001	3.57890E+000	9	...........
	34	0.466667	5.29336E-001	-9.93781E-005	0.00000E+000	-5.26044E-005	-5.99601E-002	5.29595E-001	3.57890E+000	9	...........
	35	0.48	5.19932E-001	-9.88051E-005	0.00000E+000	-5.13720E-005	-5.99601E-002	5.20171E-001	3.57890E+000	9	...........
	36	0.493333	5.10491E-001	-9.89301E-005	0.00000E+000	-5.05030E-005	-5.99601E-002	5.10731E-001	3.57890E+000	9	...........
	37	0.506667	5.01019E-001	-9.89082E-005	0.00000E+000	-4.95549E-005	-5.99601E-002	5.01295E-001	3.57890E+000	9	...........
	38	0.52	4.91612E-001	-9.90593E-005	0.00000E+000	-4.86987E-005	-5.99601E-002	4.91851E-001	3.57890E+000	9	...........
	39	0.533333	4.82446E-001	-9.91229E-005	0.00000E+000	-4.78214E-005	-5.99601E-002	4.82575E-001	3.57890E+000	9	...........
	40	0.546667	4.73116E-001	-9.83623E-005	0.00000E+000	-4.65368E-005	-5.99601E-002	4.73216E-001	3.57890E+000	9	...........
	41	0.56	4.63691E-001	-9.81654E-005	0.00000E+000	-4.55184E-005	-5.99601E-002	4.63787E-001	3.57890E+000	9	...........
	42	0.573333	4.54267E-001	-9.88134E-005	0.00000E+000	-4.48877E-005	-5.99601E-002	4.54367E-001	3.57890E+000	9	...........
	43	0.586667	4.44853E-001	-9.90135E-005	0.00000E+000	-4.40464E-005	-5.99601E-002	4.44951E-001	3.57890E+000	9	...........
	44	0.6	4.35451E-001	-9.85873E-005	0.00000E+000	-4.29300E-005	-5.99601E-002	4.35540E-001	3.57890E+000	9	...........
	45	0.613333	4.26042E-001	-9.91041E-005	0.00000E+000	-4.22225E-005	-5.99601E-002	4.26130E-001	3.57890E+000	9	...........
	46	0.626667	4.16651E-001	-9.86676E-005	0.00000E+000	-4.11100E-005	-5.99601E-002	4.16740E-001	3.57890E+000	9	...........
	47	0.64	4.07279E-001	-9.89405E-005	0.00000E+000	-4.02964E-005	-5.99601E-002	4.07361E-001	3.57890E+000	9	...........
	48	0.653333	3.97908E-001	-9.91781E-005	0.00000E+000	-3.94637E-005	-5.99601E-002	3.97987E-001	3.57890E+000	9	...........
	49	0.666667	3.88547E-001	-9.81185E-005	0.00000E+000	-3.81236E-005	-5.99601E-002	3.88622E-001	3.57890E+000	9	...........
	50	0.68	3.79200E-001	-9.85769E-005	0.00000E+000	-3.73803E-005	-5.99601E-002	3.79271E-001	3.57890E+000	9	...........
	51	0.693333	3.69865E-001	-9.76257E-005	0.00000E+000	-3.61083E-005	-5.99601E-002	3.69938E-001	3.57890E+000	9	...........
	52	0.706667	3.60543E-001	-9.85217E-005	0.00000E+000	-3.55213E-005	-5.99601E-002	3.60611E-001	3.57890E+000	9	...........
	53	0.72	3.51227E-001	-9.89937E-005	0.00000E+000	-3.47693E-005	-5.99601E-002	3.51295E-001	3.57890E+000	9	...........
	54	0.733333	3.41927E-001	-9.92239E-005	0.00000E+000	-3.39273E-005	-5.99601E-002	3.41995E-001	3.57890E+000	9	...........
	55	0.746667	3.32644E-001	-9.92604E-005	0.00000E+000	-3.30183E-005	-5.99601E-002	3.32713E-001	3.57890E+000	9	...........
	56	0.76	3.23372E-001	-9.92719E-005	0.00000E+000	-3.21017E-005	-5.99601E-002	3.23434E-001	3.57890E+000	9	...........
	57	0.773333	3.14108E-001	-9.92583E-005	0.00000E+000	-3.11778E-005	-5.99601E-002	3.14170E-001	3.57890E+000	9	...........
	58	0.786667	3.04855E-001	-9.92531E-005	0.00000E+000	-3.02578E-005	-5.99601E-002	3.04915E-001	3.57890E+000	9	...........
	59	0.8	2.95614E-001	-9.87790E-005	0.00000E+000	-2.92005E-005	-5.99601E-002	2.95668E-001	3.57890E+000	9	...........
	60	0.813333	2.86382E-001	-9.89666E-005	0.00000E+000	-2.83422E-005	-5.99601E-002	2.86437E-001	3.57890E+000	9	...........
	61	0.826667	2.77161E-001	-9.97324E-005	0.00000E+000	-2.76419E-005	-5.99601E-002	2.77215E-001	3.57890E+000	9	...........
	62	0.84	2.67959E-001	-9.87645E-005	0.00000E+000	-2.64648E-005	-5.99601E-002	2.68008E-001	3.57890E+000	9	...........
	63	0.853333	2.58766E-001	-9.88416E-005	0.00000E+000	-2.55768E-005	-5.99601E-002	2.58815E-001	3.57890E+000	9	...........
	64	0.866667	2.49589E-001	-9.92260E-005	0.00000E+000	-2.47657E-005	-5.99601E-002	2.49637E-001	3.57890E+000	9	...........
	65	0.88	2.40429E-001	-9.89301E-005	0.00000E+000	-2.37857E-005	-5.99601E-002	2.40467E-001	3.57890E+000	9	...........
	66	0.893333	2.31273E-001	-9.91739E-005	0.00000E+000	-2.29362E-005	-5.99601E-002	2.31314E-001	3.57890E+000	9	...........
	67	0.906667	2.22135E-001	-9.82185E-005	0.00000E+000	-2.18178E-005	-5.99601E-002	2.22175E-001	3.57890E+000	9	...........
	68	0.92	2.13020E-001	-9.84863E-005	0.00000E+000	-2.09795E-005	-5.99601E-002	2.13051E-001	3.57890E+000	9	...........
	69	0.933333	2.03913E-001	-9.78653E-005	0.00000E+000	-1.99560E-005	-5.99601E-002	2.03945E-001	3.57890E+000	9	...........
	70	0.946667	1.94832E-001	-9.78580E-005	0.00000E+000	-1.90659E-005	-5.99601E-002	1.94864E-001	3.57890E+000	9	...........
	71	0.96	1.85772E-001	-9.86519E-005	0.00000E+000	-1.83267E-005	-5.99601E-002	1.85801E-001	3.57890E+000	9	...........
	72	0.97333	1.76732E-001	-9.87770E-005	0.00000E+000	-1.74570E-005	-5.99601E-002	1.76764E-001	3.57890E+000	9	...........
	73	0.98667	1.67717E-001	-9.77340E-005	0.00000E+000	-1.63917E-005	-5.99601E-002	1.67746E-001	3.57890E+000	9	...........
	74	1	1.58733E-001	-9.91260E-005	0.00000E+000	-1.57345E-005	-5.99601E-002	1.58757E-001	3.57890E+000	9	...........
	75	1.01333	1.49780E-001	-9.83206E-005	0.00000E+000	-1.47265E-005	-5.99601E-002	1.49803E-001	3.57890E+000	9	...........
	76	1.02667	1.40857E-001	-9.92875E-005	0.00000E+000	-1.39853E-005	-5.99601E-002	1.40874E-001	3.57890E+000	9	...........
	77	1.04	1.31971E-001	-9.86644E-005	0.00000E+000	-1.30208E-005	-5.99601E-002	1.31987E-001	3.57890E+000	9	...........
	78	1.05333	1.23124E-001	-9.86592E-005	0.00000E+000	-1.21473E-005	-5.99601E-002	1.23140E-001	3.57890E+000	9	...........
	79	1.06667	1.14320E-001	-9.91781E-005	0.00000E+000	-1.13381E-005	-5.99601E-002	1.14333E-001	3.57890E+000	9	...........
	80	1.08	1.05557E-001	-9.85613E-005	0.00000E+000	-1.04038E-005	-5.99601E-002	1.05574E-001	3.57890E+000	9	...........
	81	1.09333	9.68516E-002	-9.86165E-005	0.00000E+000	-9.55117E-006	-5.99601E-002	9.68620E-002	3.57890E+000	9	...........
	82	1.10667	8.81945E-002	-9.84977E-005	0.00000E+000	-8.68696E-006	-5.99601E-002	8.82018E-002	3.57890E+000	9	...........
	83	1.12	7.95925E-002	-9.85342E-005	0.00000E+000	-7.84258E-006	-5.99601E-002	7.95962E-002	3.57882E+000	9	...........
	84	1.13333	7.10443E-002	-9.80654E-005	0.00000E+000	-6.96699E-006	-5.99601E-002	7.10478E-002	3.57880E+000	9	...........
	85	1.14667	6.25556E-002	-9.89228E-005	0.00000E+000	-6.18818E-006	-5.99601E-002	6.25583E-002	3.57880E+000	9	...........
	86	1.16	5.41282E-002	-9.81925E-005	0.00000E+000	-5.31498E-006	-5.99601E-002	5.41276E-002	3.57880E+000	9	...........
	87	1.17333	4.57955E-002	-9.80362E-005	0.00000E+000	-4.48961E-006	-5.99601E-002	4.57896E-002	3.57880E+000	9	...........
	88	1.18667	3.75088E-002	-9.92146E-005	0.00000E+000	-3.72142E-006	-5.99601E-002	3.74956E-002	3.57880E+000	9	...........
	89	1.2	2.92786E-002	-9.80716E-005	0.00000E+000	-2.87140E-006	-5.99601E-002	2.92661E-002	3.57880E+000	9	...........
	90	1.21333	2.11131E-002	-9.88614E-005	0.00000E+000	-2.08727E-006	-5.99601E-002	2.10910E-002	3.57880E+000	9	...........
	91	1.22667	1.30186E-002	-9.86415E-005	0.00000E+000	-1.28417E-006	-5.99601E-002	1.29879E-002	3.57880E+000	9	...........
	92	1.24	4.98111E-003	-9.90676E-005	0.00000E+000	-4.93466E-007	-5.99601E-002	4.95201E-003	3.57880E+000	9	...........
	93	1.24333	-1.22979E-005	-9.92396E-005	0.00000E+000	1.22044E-009	-5.99601E-002	-4.99989E-005	3.57880E+000	9	...........
STARTTIMEOFFSET	QUANT	52.62	Start Time Offset (s)
