EXPLAIN
TAG	PWR800_DISCHARGE
TITLE	LABEL	PWR Cyclic Charge Discharge (Cell) - Discharge Step	Test &Identifier
DATE	LABEL	13-7-2017	Date
TIME	LABEL	15:36:17	Time
NOTES	NOTES	2	&Notes...
	supercap test cell
	6M KOH
PSTAT	PSTAT	IFC5000-01520	Potentiostat
CAPACITY	QUANT	1.00000E-003	Capacity (A-hr)
CELLTYPE	SELECTOR	1	&Cell Type
WORKINGCONNECTION	SELECTOR	0	&Working Lead
MAXDISCHARGETIME	VARIABLEANDUNITS	1.00000E+002	s	1.00000E+002	second(s)	Max &Discharge Time
DISCHARGEMODE	MULTIPARAM	0	1.00000E-004	&Discharge Mode	Constant Current	Amp(s)
SAMPLETIME	QUANT	1.00000E-002	Sa&mple Period (s)
DISCHARGESTOPAT1	MULTIPARAM	3	0.00000E+000	Discharge Stop At &1	Voltage < Limit	V
DISCHARGESTOPAT2	MULTIPARAM	0	0.00000E+000	Discharge Stop At &2	None	N/A
AESBHCSELECTOR	TOGGLE	F	Save Both Half Cells
IRCOMP	TOGGLE	F	IR &Measure
EOC	QUANT	0	Open Circuit (V)
SEQUENCER	TOGGLE	TRUE	Run as Sequence
PSTATMODEL	IQUANT	53	Pstat Model
PSTATSECTION	LABEL	IFC5000-01520	Pstat Section
PSTATSERIALNO	LABEL	01520	Pstat Serial Number
CTRLMODE	IQUANT	0	Control Mode
ELECTROMETER	IQUANT	1	RE=0 or CS=1
IESTAB	IQUANT	0	I/E Stability
CASPEED	IQUANT	4	Control Amp Speed
CONVENTION	IQUANT	1	Current Convention
ICHRANGE	IQUANT	2	Ich Range
ICHRANGEMODE	TOGGLE	T	Ich Auto Range
ICHOFFSETENABLE	TOGGLE	F	Ich Offset Enable
ICHOFFSET	QUANT	0	Ich Offset (V)
ICHFILTER	IQUANT	1	Ich Filter
VCHRANGE	IQUANT	2	Vch Range
VCHRANGEMODE	TOGGLE	T	Vch Auto Range
VCHOFFSETENABLE	TOGGLE	F	Vch Offset Enable
VCHOFFSET	QUANT	0	Vch Offset (V)
VCHFILTER	IQUANT	1	Vch Filter
IERANGELOWERLIMIT	IQUANT	9	I/E Range Lower Limit
IERANGEMODE	TOGGLE	F	I/E AutoRange
IERANGE	IQUANT	9	I/E Range
ACHSELECT	IQUANT	1	Ach Select
ACHRANGE	IQUANT	2	Ach Range
ACHOFFSETENABLE	TOGGLE	F	Ach Offset Enable
ACHOFFSET	QUANT	0	Ach Offset (V)
ACHFILTER	IQUANT	1	Ach Filter
CABLEID	IQUANT	14	Cable ID
DCCALDATE	LABEL	5-7-2017	DC Calibration Date
ACCALDATE	LABEL	12/3/2015	AC Calibration Date
FRAMEWORKVERSION	QUANT	7.01	Framework Version
INSTRUMENTVERSION	LABEL	4.00	Instrument Version
CURVE	TABLE	87
	Pt	T	Vf	Im	Vu	Pwr	Sig	Ach	Temp	IERange	Over
	#	s	V	A	V	W	V	V	deg C	#	bits
	0	0.013333	8.47613E-001	-9.90489E-005	0.00000E+000	-8.39552E-005	-5.99601E-002	8.47952E-001	3.57960E+000	9	...........
	1	0.026667	8.33488E-001	-9.92281E-005	0.00000E+000	-8.27055E-005	-5.99601E-002	8.33821E-001	3.57960E+000	9	...........
	2	0.04	8.20211E-001	-9.93615E-005	0.00000E+000	-8.14973E-005	-5.99601E-002	8.20537E-001	3.57960E+000	9	...........
	3	0.053333	8.07485E-001	-9.79132E-005	0.00000E+000	-7.90635E-005	-5.99601E-002	8.07805E-001	3.57960E+000	9	...........
	4	0.066667	7.95194E-001	-9.82164E-005	0.00000E+000	-7.81011E-005	-5.99601E-002	7.95465E-001	3.57960E+000	9	...........
	5	0.08	7.83160E-001	-9.92510E-005	0.00000E+000	-7.77294E-005	-5.99601E-002	7.83431E-001	3.57960E+000	9	...........
	6	0.093333	7.71355E-001	-9.90176E-005	0.00000E+000	-7.63778E-005	-5.99601E-002	7.71635E-001	3.57960E+000	9	...........
	7	0.106667	7.59722E-001	-9.92802E-005	0.00000E+000	-7.54254E-005	-5.99601E-002	7.59979E-001	3.57960E+000	9	...........
	8	0.12	7.48168E-001	-9.84977E-005	0.00000E+000	-7.36928E-005	-5.99601E-002	7.48446E-001	3.57960E+000	9	...........
	9	0.133333	7.36730E-001	-9.91448E-005	0.00000E+000	-7.30429E-005	-5.99601E-002	7.37015E-001	3.57960E+000	9	...........
	10	0.146667	7.25388E-001	-9.94083E-005	0.00000E+000	-7.21097E-005	-5.99601E-002	7.25664E-001	3.57960E+000	9	...........
	11	0.16	7.14083E-001	-9.91052E-005	0.00000E+000	-7.07693E-005	-5.99601E-002	7.14374E-001	3.57960E+000	9	...........
	12	0.173333	7.02837E-001	-9.88051E-005	0.00000E+000	-6.94439E-005	-5.99601E-002	7.03131E-001	3.57960E+000	9	...........
	13	0.186667	6.91638E-001	-9.79539E-005	0.00000E+000	-6.77487E-005	-5.99601E-002	6.91910E-001	3.57960E+000	9	...........
	14	0.2	6.80458E-001	-9.83706E-005	0.00000E+000	-6.69371E-005	-5.99601E-002	6.80742E-001	3.57960E+000	9	...........
	15	0.213333	6.69305E-001	-9.84040E-005	0.00000E+000	-6.58623E-005	-5.99601E-002	6.69604E-001	3.57960E+000	9	...........
	16	0.226667	6.58148E-001	-9.82539E-005	0.00000E+000	-6.46657E-005	-5.99601E-002	6.58443E-001	3.57960E+000	9	...........
	17	0.24	6.47042E-001	-9.89582E-005	0.00000E+000	-6.40301E-005	-5.99601E-002	6.47323E-001	3.57960E+000	9	...........
	18	0.253333	6.35953E-001	-9.86738E-005	0.00000E+000	-6.27519E-005	-5.99601E-002	6.36219E-001	3.57960E+000	9	...........
	19	0.266667	6.24876E-001	-9.86374E-005	0.00000E+000	-6.16361E-005	-5.99601E-002	6.25148E-001	3.57960E+000	9	...........
	20	0.28	6.13818E-001	-9.89614E-005	0.00000E+000	-6.07443E-005	-5.99601E-002	6.14117E-001	3.57960E+000	9	...........
	21	0.293333	6.02773E-001	-9.94302E-005	0.00000E+000	-5.99338E-005	-5.99601E-002	6.03050E-001	3.57960E+000	9	...........
	22	0.306667	5.91781E-001	-9.88249E-005	0.00000E+000	-5.84827E-005	-5.99601E-002	5.92057E-001	3.57960E+000	9	...........
	23	0.32	5.80784E-001	-9.87332E-005	0.00000E+000	-5.73426E-005	-5.99601E-002	5.81036E-001	3.57960E+000	9	...........
	24	0.333333	5.69856E-001	-9.86238E-005	0.00000E+000	-5.62013E-005	-5.99601E-002	5.70082E-001	3.57960E+000	9	...........
	25	0.346667	5.58909E-001	-9.88614E-005	0.00000E+000	-5.52545E-005	-5.99601E-002	5.59144E-001	3.57960E+000	9	...........
	26	0.36	5.48049E-001	-9.93979E-005	0.00000E+000	-5.44749E-005	-5.99601E-002	5.48256E-001	3.57960E+000	9	...........
	27	0.373333	5.37172E-001	-9.91197E-005	0.00000E+000	-5.32444E-005	-5.99601E-002	5.37411E-001	3.57960E+000	9	...........
	28	0.386667	5.26365E-001	-9.86228E-005	0.00000E+000	-5.19115E-005	-5.99601E-002	5.26602E-001	3.57960E+000	9	...........
	29	0.4	5.15618E-001	-9.86301E-005	0.00000E+000	-5.08555E-005	-5.99601E-002	5.15844E-001	3.57960E+000	9	...........
	30	0.413333	5.04856E-001	-9.87707E-005	0.00000E+000	-4.98649E-005	-5.99601E-002	5.05105E-001	3.57960E+000	9	...........
	31	0.426667	4.94225E-001	-9.87259E-005	0.00000E+000	-4.87928E-005	-5.99601E-002	4.94461E-001	3.57960E+000	9	...........
	32	0.44	4.83795E-001	-9.83092E-005	0.00000E+000	-4.75615E-005	-5.99601E-002	4.83967E-001	3.57960E+000	9	...........
	33	0.453333	4.73425E-001	-9.87290E-005	0.00000E+000	-4.67408E-005	-5.99601E-002	4.73519E-001	3.57960E+000	9	...........
	34	0.466667	4.62933E-001	-9.94010E-005	0.00000E+000	-4.60160E-005	-5.99601E-002	4.63028E-001	3.57960E+000	9	...........
	35	0.48	4.52505E-001	-9.79049E-005	0.00000E+000	-4.43024E-005	-5.99601E-002	4.52598E-001	3.57960E+000	9	...........
	36	0.493333	4.42142E-001	-9.92792E-005	0.00000E+000	-4.38955E-005	-5.99601E-002	4.42227E-001	3.57960E+000	9	...........
	37	0.506667	4.31846E-001	-9.83977E-005	0.00000E+000	-4.24926E-005	-5.99601E-002	4.31930E-001	3.57960E+000	9	...........
	38	0.52	4.21614E-001	-9.88770E-005	0.00000E+000	-4.16879E-005	-5.99601E-002	4.21695E-001	3.57960E+000	9	...........
	39	0.533333	4.11447E-001	-9.89530E-005	0.00000E+000	-4.07139E-005	-5.99601E-002	4.11522E-001	3.57960E+000	9	...........
	40	0.546667	4.01339E-001	-9.85748E-005	0.00000E+000	-3.95619E-005	-5.99601E-002	4.01414E-001	3.57960E+000	9	...........
	41	0.56	3.91297E-001	-9.89728E-005	0.00000E+000	-3.87277E-005	-5.99601E-002	3.91374E-001	3.57960E+000	9	...........
	42	0.573333	3.81315E-001	-9.88676E-005	0.00000E+000	-3.76997E-005	-5.99601E-002	3.81388E-001	3.57960E+000	9	...........
	43	0.586667	3.71399E-001	-9.92135E-005	0.00000E+000	-3.68477E-005	-5.99601E-002	3.71468E-001	3.57960E+000	9	...........
	44	0.6	3.61541E-001	-9.87728E-005	0.00000E+000	-3.57104E-005	-5.99601E-002	3.61612E-001	3.57960E+000	9	...........
	45	0.613333	3.51749E-001	-9.91458E-005	0.00000E+000	-3.48745E-005	-5.99601E-002	3.51810E-001	3.57960E+000	9	...........
	46	0.626667	3.42009E-001	-9.93562E-005	0.00000E+000	-3.39808E-005	-5.99601E-002	3.42075E-001	3.57960E+000	9	...........
	47	0.64	3.32335E-001	-9.93365E-005	0.00000E+000	-3.30130E-005	-5.99601E-002	3.32392E-001	3.57960E+000	9	...........
	48	0.653333	3.22708E-001	-9.88155E-005	0.00000E+000	-3.18886E-005	-5.99601E-002	3.22766E-001	3.57960E+000	9	...........
	49	0.666667	3.13135E-001	-9.87343E-005	0.00000E+000	-3.09171E-005	-5.99601E-002	3.13196E-001	3.57960E+000	9	...........
	50	0.68	3.03618E-001	-9.94959E-005	0.00000E+000	-3.02088E-005	-5.99601E-002	3.03670E-001	3.57960E+000	9	...........
	51	0.693333	2.94152E-001	-9.84644E-005	0.00000E+000	-2.89635E-005	-5.99601E-002	2.94203E-001	3.57960E+000	9	...........
	52	0.706667	2.84734E-001	-9.90604E-005	0.00000E+000	-2.82059E-005	-5.99601E-002	2.84786E-001	3.57960E+000	9	...........
	53	0.72	2.75369E-001	-9.84852E-005	0.00000E+000	-2.71198E-005	-5.99601E-002	2.75419E-001	3.57960E+000	9	...........
	54	0.733333	2.66055E-001	-9.86769E-005	0.00000E+000	-2.62535E-005	-5.99601E-002	2.66099E-001	3.57960E+000	9	...........
	55	0.746667	2.56779E-001	-9.85780E-005	0.00000E+000	-2.53128E-005	-5.99601E-002	2.56826E-001	3.57960E+000	9	...........
	56	0.76	2.47564E-001	-9.98282E-005	0.00000E+000	-2.47139E-005	-5.99601E-002	2.47603E-001	3.57960E+000	9	...........
	57	0.773333	2.38395E-001	-9.83894E-005	0.00000E+000	-2.34555E-005	-5.99601E-002	2.38428E-001	3.57960E+000	9	...........
	58	0.786667	2.29273E-001	-9.84352E-005	0.00000E+000	-2.25686E-005	-5.99601E-002	2.29308E-001	3.57983E+000	9	...........
	59	0.8	2.20189E-001	-9.88322E-005	0.00000E+000	-2.17618E-005	-5.99601E-002	2.20223E-001	3.57990E+000	9	...........
	60	0.813333	2.11161E-001	-9.96574E-005	0.00000E+000	-2.10437E-005	-5.99601E-002	2.11194E-001	3.57990E+000	9	...........
	61	0.826667	2.02187E-001	-9.96001E-005	0.00000E+000	-2.01378E-005	-5.99601E-002	2.02222E-001	3.57990E+000	9	...........
	62	0.84	1.93271E-001	-9.78549E-005	0.00000E+000	-1.89125E-005	-5.99601E-002	1.93300E-001	3.57990E+000	9	...........
	63	0.853333	1.84405E-001	-9.75246E-005	0.00000E+000	-1.79840E-005	-5.99601E-002	1.84435E-001	3.57990E+000	9	...........
	64	0.866667	1.75600E-001	-9.83425E-005	0.00000E+000	-1.72690E-005	-5.99601E-002	1.75625E-001	3.57990E+000	9	...........
	65	0.88	1.66854E-001	-9.83529E-005	0.00000E+000	-1.64106E-005	-5.99601E-002	1.66881E-001	3.57990E+000	9	...........
	66	0.893333	1.58179E-001	-9.92885E-005	0.00000E+000	-1.57054E-005	-5.99601E-002	1.58196E-001	3.57990E+000	9	...........
	67	0.906667	1.49559E-001	-9.83936E-005	0.00000E+000	-1.47157E-005	-5.99601E-002	1.49585E-001	3.57990E+000	9	...........
	68	0.92	1.41020E-001	-9.84738E-005	0.00000E+000	-1.38868E-005	-5.99601E-002	1.41036E-001	3.57990E+000	9	...........
	69	0.933333	1.32543E-001	-9.84988E-005	0.00000E+000	-1.30553E-005	-5.99601E-002	1.32558E-001	3.57990E+000	9	...........
	70	0.946667	1.24138E-001	-9.83165E-005	0.00000E+000	-1.22048E-005	-5.99601E-002	1.24157E-001	3.57990E+000	9	...........
	71	0.96	1.15811E-001	-9.84196E-005	0.00000E+000	-1.13981E-005	-5.99601E-002	1.15825E-001	3.57990E+000	9	...........
	72	0.97333	1.07558E-001	-9.88853E-005	0.00000E+000	-1.06359E-005	-5.99601E-002	1.07567E-001	3.57990E+000	9	...........
	73	0.98667	9.93714E-002	-9.93656E-005	0.00000E+000	-9.87410E-006	-5.99601E-002	9.93781E-002	3.57990E+000	9	...........
	74	1	9.12596E-002	-9.89155E-005	0.00000E+000	-9.02699E-006	-5.99601E-002	9.12662E-002	3.57990E+000	9	...........
	75	1.01333	8.32252E-002	-9.93542E-005	0.00000E+000	-8.26877E-006	-5.99601E-002	8.32330E-002	3.57990E+000	9	...........
	76	1.02667	7.52650E-002	-9.98022E-005	0.00000E+000	-7.51162E-006	-5.99601E-002	7.52644E-002	3.57990E+000	9	...........
	77	1.04	6.73754E-002	-9.96959E-005	0.00000E+000	-6.71705E-006	-5.99601E-002	6.73719E-002	3.57990E+000	9	...........
	78	1.05333	5.95525E-002	-9.92792E-005	0.00000E+000	-5.91232E-006	-5.99601E-002	5.95491E-002	3.57990E+000	9	...........
	79	1.06667	5.18076E-002	-9.88947E-005	0.00000E+000	-5.12350E-006	-5.99601E-002	5.17944E-002	3.57990E+000	9	...........
	80	1.08	4.41640E-002	-9.86332E-005	0.00000E+000	-4.35604E-006	-5.99601E-002	4.41554E-002	3.57990E+000	9	...........
	81	1.09333	3.65473E-002	-9.90437E-005	0.00000E+000	-3.61977E-006	-5.99601E-002	3.65409E-002	3.57990E+000	9	...........
	82	1.10667	2.90034E-002	-9.90479E-005	0.00000E+000	-2.87272E-006	-5.99601E-002	2.89870E-002	3.57990E+000	9	...........
	83	1.12	2.15213E-002	-9.96094E-005	0.00000E+000	-2.14372E-006	-5.99601E-002	2.14999E-002	3.57990E+000	9	...........
	84	1.13333	1.41061E-002	-9.86009E-005	0.00000E+000	-1.39087E-006	-5.99601E-002	1.40770E-002	3.57990E+000	9	...........
	85	1.14667	6.75441E-003	-9.94094E-005	0.00000E+000	-6.71452E-007	-5.99601E-002	6.72376E-003	3.57990E+000	9	...........
	86	1.15333	1.29119E-003	-9.77580E-005	0.00000E+000	-1.26224E-007	-5.99601E-002	1.25656E-003	3.57990E+000	9	...........
STARTTIMEOFFSET	QUANT	1549.782	Start Time Offset (s)
