EXPLAIN
TAG	PWR800_DISCHARGE
TITLE	LABEL	PWR Cyclic Charge Discharge (Cell) - Discharge Step	Test &Identifier
DATE	LABEL	13-7-2017	Date
TIME	LABEL	15:25:15	Time
NOTES	NOTES	2	&Notes...
	supercap test cell
	6M KOH
PSTAT	PSTAT	IFC5000-01520	Potentiostat
CAPACITY	QUANT	1.00000E-003	Capacity (A-hr)
CELLTYPE	SELECTOR	1	&Cell Type
WORKINGCONNECTION	SELECTOR	0	&Working Lead
MAXDISCHARGETIME	VARIABLEANDUNITS	1.00000E+002	s	1.00000E+002	second(s)	Max &Discharge Time
DISCHARGEMODE	MULTIPARAM	0	1.00000E-004	&Discharge Mode	Constant Current	Amp(s)
SAMPLETIME	QUANT	1.00000E-002	Sa&mple Period (s)
DISCHARGESTOPAT1	MULTIPARAM	3	0.00000E+000	Discharge Stop At &1	Voltage < Limit	V
DISCHARGESTOPAT2	MULTIPARAM	0	0.00000E+000	Discharge Stop At &2	None	N/A
AESBHCSELECTOR	TOGGLE	F	Save Both Half Cells
IRCOMP	TOGGLE	F	IR &Measure
EOC	QUANT	0	Open Circuit (V)
SEQUENCER	TOGGLE	TRUE	Run as Sequence
PSTATMODEL	IQUANT	53	Pstat Model
PSTATSECTION	LABEL	IFC5000-01520	Pstat Section
PSTATSERIALNO	LABEL	01520	Pstat Serial Number
CTRLMODE	IQUANT	0	Control Mode
ELECTROMETER	IQUANT	1	RE=0 or CS=1
IESTAB	IQUANT	0	I/E Stability
CASPEED	IQUANT	4	Control Amp Speed
CONVENTION	IQUANT	1	Current Convention
ICHRANGE	IQUANT	2	Ich Range
ICHRANGEMODE	TOGGLE	T	Ich Auto Range
ICHOFFSETENABLE	TOGGLE	F	Ich Offset Enable
ICHOFFSET	QUANT	0	Ich Offset (V)
ICHFILTER	IQUANT	1	Ich Filter
VCHRANGE	IQUANT	2	Vch Range
VCHRANGEMODE	TOGGLE	T	Vch Auto Range
VCHOFFSETENABLE	TOGGLE	F	Vch Offset Enable
VCHOFFSET	QUANT	0	Vch Offset (V)
VCHFILTER	IQUANT	1	Vch Filter
IERANGELOWERLIMIT	IQUANT	9	I/E Range Lower Limit
IERANGEMODE	TOGGLE	F	I/E AutoRange
IERANGE	IQUANT	9	I/E Range
ACHSELECT	IQUANT	1	Ach Select
ACHRANGE	IQUANT	2	Ach Range
ACHOFFSETENABLE	TOGGLE	F	Ach Offset Enable
ACHOFFSET	QUANT	0	Ach Offset (V)
ACHFILTER	IQUANT	1	Ach Filter
CABLEID	IQUANT	14	Cable ID
DCCALDATE	LABEL	5-7-2017	DC Calibration Date
ACCALDATE	LABEL	12/3/2015	AC Calibration Date
FRAMEWORKVERSION	QUANT	7.01	Framework Version
INSTRUMENTVERSION	LABEL	4.00	Instrument Version
CURVE	TABLE	88
	Pt	T	Vf	Im	Vu	Pwr	Sig	Ach	Temp	IERange	Over
	#	s	V	A	V	W	V	V	deg C	#	bits
	0	0.013333	8.49184E-001	-9.87353E-005	0.00000E+000	-8.38444E-005	-5.99601E-002	8.49507E-001	3.57890E+000	9	...........
	1	0.026667	8.35359E-001	-9.94834E-005	0.00000E+000	-8.31043E-005	-5.99601E-002	8.35678E-001	3.57890E+000	9	...........
	2	0.04	8.22383E-001	-9.90979E-005	0.00000E+000	-8.14964E-005	-5.99601E-002	8.22690E-001	3.57890E+000	9	...........
	3	0.053333	8.09950E-001	-9.91958E-005	0.00000E+000	-8.03436E-005	-5.99601E-002	8.10268E-001	3.57890E+000	9	...........
	4	0.066667	7.97949E-001	-9.87874E-005	0.00000E+000	-7.88273E-005	-5.99601E-002	7.98226E-001	3.57890E+000	9	...........
	5	0.08	7.86206E-001	-9.84081E-005	0.00000E+000	-7.73690E-005	-5.99601E-002	7.86497E-001	3.57890E+000	9	...........
	6	0.093333	7.74695E-001	-9.93635E-005	0.00000E+000	-7.69765E-005	-5.99601E-002	7.74984E-001	3.57890E+000	9	...........
	7	0.106667	7.63337E-001	-9.88759E-005	0.00000E+000	-7.54757E-005	-5.99601E-002	7.63614E-001	3.57890E+000	9	...........
	8	0.12	7.52122E-001	-9.86373E-005	0.00000E+000	-7.41873E-005	-5.99601E-002	7.52373E-001	3.57890E+000	9	...........
	9	0.133333	7.40975E-001	-9.88551E-005	0.00000E+000	-7.32492E-005	-5.99601E-002	7.41270E-001	3.57890E+000	9	...........
	10	0.146667	7.29927E-001	-9.86947E-005	0.00000E+000	-7.20399E-005	-5.99601E-002	7.30184E-001	3.57890E+000	9	...........
	11	0.16	7.18927E-001	-9.83269E-005	0.00000E+000	-7.06899E-005	-5.99601E-002	7.19196E-001	3.57890E+000	9	...........
	12	0.173333	7.07937E-001	-9.98470E-005	0.00000E+000	-7.06854E-005	-5.99601E-002	7.08235E-001	3.57890E+000	9	...........
	13	0.186667	6.97045E-001	-9.96949E-005	0.00000E+000	-6.94918E-005	-5.99601E-002	6.97313E-001	3.57890E+000	9	...........
	14	0.2	6.86139E-001	-9.90645E-005	0.00000E+000	-6.79720E-005	-5.99601E-002	6.86402E-001	3.57890E+000	9	...........
	15	0.213333	6.75295E-001	-9.87311E-005	0.00000E+000	-6.66726E-005	-5.99601E-002	6.75525E-001	3.57890E+000	9	...........
	16	0.226667	6.64434E-001	-9.88853E-005	0.00000E+000	-6.57028E-005	-5.99601E-002	6.64673E-001	3.57890E+000	9	...........
	17	0.24	6.53577E-001	-9.80643E-005	0.00000E+000	-6.40926E-005	-5.99601E-002	6.53838E-001	3.57890E+000	9	...........
	18	0.253333	6.42776E-001	-9.86207E-005	0.00000E+000	-6.33911E-005	-5.99601E-002	6.43018E-001	3.57890E+000	9	...........
	19	0.266667	6.31947E-001	-9.85665E-005	0.00000E+000	-6.22888E-005	-5.99601E-002	6.32219E-001	3.57890E+000	9	...........
	20	0.28	6.21201E-001	-9.83842E-005	0.00000E+000	-6.11163E-005	-5.99601E-002	6.21441E-001	3.57890E+000	9	...........
	21	0.293333	6.10406E-001	-9.86259E-005	0.00000E+000	-6.02018E-005	-5.99601E-002	6.10682E-001	3.57890E+000	9	...........
	22	0.306667	5.99656E-001	-9.82060E-005	0.00000E+000	-5.88898E-005	-5.99601E-002	5.99926E-001	3.57890E+000	9	...........
	23	0.32	5.88930E-001	-9.90583E-005	0.00000E+000	-5.83384E-005	-5.99601E-002	5.89223E-001	3.57890E+000	9	...........
	24	0.333333	5.78220E-001	-9.91791E-005	0.00000E+000	-5.73474E-005	-5.99601E-002	5.78485E-001	3.57890E+000	9	...........
	25	0.346667	5.67547E-001	-9.91406E-005	0.00000E+000	-5.62670E-005	-5.99601E-002	5.67801E-001	3.57890E+000	9	...........
	26	0.36	5.56846E-001	-9.91343E-005	0.00000E+000	-5.52025E-005	-5.99601E-002	5.57120E-001	3.57890E+000	9	...........
	27	0.373333	5.46246E-001	-9.79320E-005	0.00000E+000	-5.34949E-005	-5.99601E-002	5.46491E-001	3.57890E+000	9	...........
	28	0.386667	5.35633E-001	-9.88374E-005	0.00000E+000	-5.29406E-005	-5.99601E-002	5.35877E-001	3.57890E+000	9	...........
	29	0.4	5.25055E-001	-9.89322E-005	0.00000E+000	-5.19449E-005	-5.99601E-002	5.25330E-001	3.57890E+000	9	...........
	30	0.413333	5.14532E-001	-9.79059E-005	0.00000E+000	-5.03757E-005	-5.99601E-002	5.14793E-001	3.57890E+000	9	...........
	31	0.426667	5.04013E-001	-9.88801E-005	0.00000E+000	-4.98368E-005	-5.99601E-002	5.04285E-001	3.57890E+000	9	...........
	32	0.44	4.93591E-001	-9.86280E-005	0.00000E+000	-4.86819E-005	-5.99601E-002	4.93873E-001	3.57890E+000	9	...........
	33	0.453333	4.83440E-001	-9.90364E-005	0.00000E+000	-4.78781E-005	-5.99601E-002	4.83562E-001	3.57890E+000	9	...........
	34	0.466667	4.73222E-001	-9.81716E-005	0.00000E+000	-4.64570E-005	-5.99601E-002	4.73323E-001	3.57890E+000	9	...........
	35	0.48	4.62927E-001	-9.92698E-005	0.00000E+000	-4.59547E-005	-5.99601E-002	4.63023E-001	3.57890E+000	9	...........
	36	0.493333	4.52685E-001	-9.81987E-005	0.00000E+000	-4.44531E-005	-5.99601E-002	4.52780E-001	3.57890E+000	9	...........
	37	0.506667	4.42500E-001	-9.75528E-005	0.00000E+000	-4.31671E-005	-5.99601E-002	4.42591E-001	3.57890E+000	9	...........
	38	0.52	4.32370E-001	-9.88207E-005	0.00000E+000	-4.27271E-005	-5.99601E-002	4.32461E-001	3.57890E+000	9	...........
	39	0.533333	4.22297E-001	-9.80247E-005	0.00000E+000	-4.13955E-005	-5.99601E-002	4.22384E-001	3.57890E+000	9	...........
	40	0.546667	4.12277E-001	-9.92218E-005	0.00000E+000	-4.09069E-005	-5.99601E-002	4.12367E-001	3.57890E+000	9	...........
	41	0.56	4.02328E-001	-9.79956E-005	0.00000E+000	-3.94263E-005	-5.99601E-002	4.02401E-001	3.57890E+000	9	...........
	42	0.573333	3.92427E-001	-9.83779E-005	0.00000E+000	-3.86062E-005	-5.99601E-002	3.92502E-001	3.57890E+000	9	...........
	43	0.586667	3.82582E-001	-9.89416E-005	0.00000E+000	-3.78532E-005	-5.99601E-002	3.82657E-001	3.57880E+000	9	...........
	44	0.6	3.72798E-001	-9.93667E-005	0.00000E+000	-3.70437E-005	-5.99601E-002	3.72869E-001	3.57850E+000	9	...........
	45	0.613333	3.63072E-001	-9.93510E-005	0.00000E+000	-3.60716E-005	-5.99601E-002	3.63145E-001	3.57850E+000	9	...........
	46	0.626667	3.53401E-001	-9.82883E-005	0.00000E+000	-3.47352E-005	-5.99601E-002	3.53470E-001	3.57850E+000	9	...........
	47	0.64	3.43775E-001	-9.88113E-005	0.00000E+000	-3.39689E-005	-5.99601E-002	3.43846E-001	3.57850E+000	9	...........
	48	0.653333	3.34211E-001	-9.89301E-005	0.00000E+000	-3.30635E-005	-5.99601E-002	3.34273E-001	3.57850E+000	9	...........
	49	0.666667	3.24702E-001	-9.87165E-005	0.00000E+000	-3.20535E-005	-5.99601E-002	3.24761E-001	3.57850E+000	9	...........
	50	0.68	3.15235E-001	-9.85873E-005	0.00000E+000	-3.10782E-005	-5.99601E-002	3.15299E-001	3.57850E+000	9	...........
	51	0.693333	3.05817E-001	-9.85488E-005	0.00000E+000	-3.01379E-005	-5.99601E-002	3.05875E-001	3.57850E+000	9	...........
	52	0.706667	2.96453E-001	-9.95073E-005	0.00000E+000	-2.94992E-005	-5.99601E-002	2.96509E-001	3.57850E+000	9	...........
	53	0.72	2.87127E-001	-9.89958E-005	0.00000E+000	-2.84244E-005	-5.99601E-002	2.87183E-001	3.57850E+000	9	...........
	54	0.733333	2.77852E-001	-9.86207E-005	0.00000E+000	-2.74019E-005	-5.99601E-002	2.77907E-001	3.57850E+000	9	...........
	55	0.746667	2.68617E-001	-9.85290E-005	0.00000E+000	-2.64666E-005	-5.99601E-002	2.68669E-001	3.57850E+000	9	...........
	56	0.76	2.59434E-001	-9.88239E-005	0.00000E+000	-2.56383E-005	-5.99601E-002	2.59478E-001	3.57850E+000	9	...........
	57	0.773333	2.50291E-001	-9.91437E-005	0.00000E+000	-2.48148E-005	-5.99601E-002	2.50338E-001	3.57850E+000	9	...........
	58	0.786667	2.41194E-001	-9.81164E-005	0.00000E+000	-2.36651E-005	-5.99601E-002	2.41237E-001	3.57850E+000	9	...........
	59	0.8	2.32139E-001	-9.85384E-005	0.00000E+000	-2.28746E-005	-5.99601E-002	2.32175E-001	3.57850E+000	9	...........
	60	0.813333	2.23127E-001	-9.94281E-005	0.00000E+000	-2.21851E-005	-5.99601E-002	2.23163E-001	3.57850E+000	9	...........
	61	0.826667	2.14159E-001	-9.79945E-005	0.00000E+000	-2.09864E-005	-5.99601E-002	2.14192E-001	3.57850E+000	9	...........
	62	0.84	2.05242E-001	-9.89843E-005	0.00000E+000	-2.03157E-005	-5.99601E-002	2.05269E-001	3.57850E+000	9	...........
	63	0.853333	1.96364E-001	-9.87509E-005	0.00000E+000	-1.93911E-005	-5.99601E-002	1.96395E-001	3.57850E+000	9	...........
	64	0.866667	1.87545E-001	-9.90833E-005	0.00000E+000	-1.85826E-005	-5.99601E-002	1.87575E-001	3.57850E+000	9	...........
	65	0.88	1.78775E-001	-9.83529E-005	0.00000E+000	-1.75830E-005	-5.99601E-002	1.78805E-001	3.57850E+000	9	...........
	66	0.893333	1.70060E-001	-9.85926E-005	0.00000E+000	-1.67666E-005	-5.99601E-002	1.70093E-001	3.57850E+000	9	...........
	67	0.906667	1.61413E-001	-9.81435E-005	0.00000E+000	-1.58416E-005	-5.99601E-002	1.61435E-001	3.57850E+000	9	...........
	68	0.92	1.52819E-001	-9.83769E-005	0.00000E+000	-1.50338E-005	-5.99601E-002	1.52838E-001	3.57850E+000	9	...........
	69	0.933333	1.44283E-001	-9.90447E-005	0.00000E+000	-1.42905E-005	-5.99601E-002	1.44296E-001	3.57850E+000	9	...........
	70	0.946667	1.35814E-001	-9.91000E-005	0.00000E+000	-1.34591E-005	-5.99601E-002	1.35833E-001	3.57850E+000	9	...........
	71	0.96	1.27419E-001	-1.00219E-004	0.00000E+000	-1.27698E-005	-5.99601E-002	1.27430E-001	3.57850E+000	9	...........
	72	0.97333	1.19082E-001	-9.99730E-005	0.00000E+000	-1.19050E-005	-5.99601E-002	1.19098E-001	3.57850E+000	9	...........
	73	0.98667	1.10824E-001	-9.95292E-005	0.00000E+000	-1.10303E-005	-5.99601E-002	1.10836E-001	3.57850E+000	9	...........
	74	1	1.02634E-001	-9.91937E-005	0.00000E+000	-1.01806E-005	-5.99601E-002	1.02644E-001	3.57850E+000	9	...........
	75	1.01333	9.45125E-002	-1.00157E-004	0.00000E+000	-9.46613E-006	-5.99601E-002	9.45245E-002	3.57850E+000	9	...........
	76	1.02667	8.64707E-002	-9.89978E-005	0.00000E+000	-8.56042E-006	-5.99601E-002	8.64741E-002	3.57850E+000	9	...........
	77	1.04	7.84971E-002	-9.89145E-005	0.00000E+000	-7.76450E-006	-5.99601E-002	7.84957E-002	3.57850E+000	9	...........
	78	1.05333	7.05904E-002	-9.90083E-005	0.00000E+000	-6.98903E-006	-5.99601E-002	7.05943E-002	3.57850E+000	9	...........
	79	1.06667	6.27567E-002	-9.91208E-005	0.00000E+000	-6.22050E-006	-5.99601E-002	6.27558E-002	3.57850E+000	9	...........
	80	1.08	5.49833E-002	-9.86373E-005	0.00000E+000	-5.42340E-006	-5.99601E-002	5.49824E-002	3.57850E+000	9	...........
	81	1.09333	4.73086E-002	-9.87843E-005	0.00000E+000	-4.67335E-006	-5.99601E-002	4.72986E-002	3.57850E+000	9	...........
	82	1.10667	3.96904E-002	-9.82018E-005	0.00000E+000	-3.89767E-006	-5.99601E-002	3.96789E-002	3.57850E+000	9	...........
	83	1.12	3.21173E-002	-9.87593E-005	0.00000E+000	-3.17188E-006	-5.99601E-002	3.21041E-002	3.57850E+000	9	...........
	84	1.13333	2.46148E-002	-9.87863E-005	0.00000E+000	-2.43161E-006	-5.99601E-002	2.45963E-002	3.57850E+000	9	...........
	85	1.14667	1.71732E-002	-9.87343E-005	0.00000E+000	-1.69558E-006	-5.99601E-002	1.71489E-002	3.57850E+000	9	...........
	86	1.16	9.79470E-003	-9.80414E-005	0.00000E+000	-9.60286E-007	-5.99601E-002	9.76764E-003	3.57850E+000	9	...........
	87	1.17333	2.48453E-003	-9.90624E-005	0.00000E+000	-2.46123E-007	-5.99601E-002	2.44700E-003	3.57850E+000	9	...........
STARTTIMEOFFSET	QUANT	1051.671	Start Time Offset (s)
