EXPLAIN
TAG	PWR800_DISCHARGE
TITLE	LABEL	PWR Cyclic Charge Discharge (Cell) - Discharge Step	Test &Identifier
DATE	LABEL	13-7-2017	Date
TIME	LABEL	15:02:43	Time
NOTES	NOTES	2	&Notes...
	supercap test cell
	6M KOH
PSTAT	PSTAT	IFC5000-01520	Potentiostat
CAPACITY	QUANT	1.00000E-003	Capacity (A-hr)
CELLTYPE	SELECTOR	1	&Cell Type
WORKINGCONNECTION	SELECTOR	0	&Working Lead
MAXDISCHARGETIME	VARIABLEANDUNITS	1.00000E+002	s	1.00000E+002	second(s)	Max &Discharge Time
DISCHARGEMODE	MULTIPARAM	0	1.00000E-004	&Discharge Mode	Constant Current	Amp(s)
SAMPLETIME	QUANT	1.00000E-002	Sa&mple Period (s)
DISCHARGESTOPAT1	MULTIPARAM	3	0.00000E+000	Discharge Stop At &1	Voltage < Limit	V
DISCHARGESTOPAT2	MULTIPARAM	0	0.00000E+000	Discharge Stop At &2	None	N/A
AESBHCSELECTOR	TOGGLE	F	Save Both Half Cells
IRCOMP	TOGGLE	F	IR &Measure
EOC	QUANT	0	Open Circuit (V)
SEQUENCER	TOGGLE	TRUE	Run as Sequence
PSTATMODEL	IQUANT	53	Pstat Model
PSTATSECTION	LABEL	IFC5000-01520	Pstat Section
PSTATSERIALNO	LABEL	01520	Pstat Serial Number
CTRLMODE	IQUANT	0	Control Mode
ELECTROMETER	IQUANT	1	RE=0 or CS=1
IESTAB	IQUANT	0	I/E Stability
CASPEED	IQUANT	4	Control Amp Speed
CONVENTION	IQUANT	1	Current Convention
ICHRANGE	IQUANT	2	Ich Range
ICHRANGEMODE	TOGGLE	T	Ich Auto Range
ICHOFFSETENABLE	TOGGLE	F	Ich Offset Enable
ICHOFFSET	QUANT	0	Ich Offset (V)
ICHFILTER	IQUANT	1	Ich Filter
VCHRANGE	IQUANT	2	Vch Range
VCHRANGEMODE	TOGGLE	T	Vch Auto Range
VCHOFFSETENABLE	TOGGLE	F	Vch Offset Enable
VCHOFFSET	QUANT	0	Vch Offset (V)
VCHFILTER	IQUANT	1	Vch Filter
IERANGELOWERLIMIT	IQUANT	9	I/E Range Lower Limit
IERANGEMODE	TOGGLE	F	I/E AutoRange
IERANGE	IQUANT	9	I/E Range
ACHSELECT	IQUANT	1	Ach Select
ACHRANGE	IQUANT	2	Ach Range
ACHOFFSETENABLE	TOGGLE	F	Ach Offset Enable
ACHOFFSET	QUANT	0	Ach Offset (V)
ACHFILTER	IQUANT	1	Ach Filter
CABLEID	IQUANT	14	Cable ID
DCCALDATE	LABEL	5-7-2017	DC Calibration Date
ACCALDATE	LABEL	12/3/2015	AC Calibration Date
FRAMEWORKVERSION	QUANT	7.01	Framework Version
INSTRUMENTVERSION	LABEL	4.00	Instrument Version
CURVE	TABLE	92
	Pt	T	Vf	Im	Vu	Pwr	Sig	Ach	Temp	IERange	Over
	#	s	V	A	V	W	V	V	deg C	#	bits
	0	0.013333	8.59852E-001	-9.80216E-005	0.00000E+000	-8.42840E-005	-5.99601E-002	8.60199E-001	3.58010E+000	9	...........
	1	0.026667	8.47920E-001	-9.90437E-005	0.00000E+000	-8.39811E-005	-5.99601E-002	8.48231E-001	3.58010E+000	9	...........
	2	0.04	8.36686E-001	-9.82435E-005	0.00000E+000	-8.21989E-005	-5.99601E-002	8.37008E-001	3.57928E+000	9	...........
	3	0.053333	8.25992E-001	-9.95198E-005	0.00000E+000	-8.22026E-005	-5.99601E-002	8.26322E-001	3.57900E+000	9	...........
	4	0.066667	8.15663E-001	-9.89583E-005	0.00000E+000	-8.07166E-005	-5.99601E-002	8.15977E-001	3.57900E+000	9	...........
	5	0.08	8.05674E-001	-9.84279E-005	0.00000E+000	-7.93008E-005	-5.99601E-002	8.05968E-001	3.57900E+000	9	...........
	6	0.093333	7.95844E-001	-9.89687E-005	0.00000E+000	-7.87637E-005	-5.99601E-002	7.96166E-001	3.57900E+000	9	...........
	7	0.106667	7.86200E-001	-9.91573E-005	0.00000E+000	-7.79574E-005	-5.99601E-002	7.86509E-001	3.57900E+000	9	...........
	8	0.12	7.76715E-001	-9.94552E-005	0.00000E+000	-7.72483E-005	-5.99601E-002	7.77009E-001	3.57900E+000	9	...........
	9	0.133333	7.67313E-001	-9.85790E-005	0.00000E+000	-7.56409E-005	-5.99601E-002	7.67625E-001	3.57900E+000	9	...........
	10	0.146667	7.58019E-001	-9.95844E-005	0.00000E+000	-7.54869E-005	-5.99601E-002	7.58282E-001	3.57900E+000	9	...........
	11	0.16	7.48758E-001	-9.90885E-005	0.00000E+000	-7.41933E-005	-5.99601E-002	7.49056E-001	3.57900E+000	9	...........
	12	0.173333	7.39566E-001	-9.91218E-005	0.00000E+000	-7.33071E-005	-5.99601E-002	7.39866E-001	3.57900E+000	9	...........
	13	0.186667	7.30429E-001	-9.86311E-005	0.00000E+000	-7.20430E-005	-5.99601E-002	7.30734E-001	3.57900E+000	9	...........
	14	0.2	7.21331E-001	-9.91656E-005	0.00000E+000	-7.15312E-005	-5.99601E-002	7.21606E-001	3.57900E+000	9	...........
	15	0.213333	7.12182E-001	-9.87082E-005	0.00000E+000	-7.02982E-005	-5.99601E-002	7.12500E-001	3.57900E+000	9	...........
	16	0.226667	7.03134E-001	-9.83988E-005	0.00000E+000	-6.91875E-005	-5.99601E-002	7.03424E-001	3.57900E+000	9	...........
	17	0.24	6.94062E-001	-9.90312E-005	0.00000E+000	-6.87338E-005	-5.99601E-002	6.94353E-001	3.57900E+000	9	...........
	18	0.253333	6.85001E-001	-9.92135E-005	0.00000E+000	-6.79613E-005	-5.99601E-002	6.85305E-001	3.57900E+000	9	...........
	19	0.266667	6.75941E-001	-9.87447E-005	0.00000E+000	-6.67456E-005	-5.99601E-002	6.76254E-001	3.57900E+000	9	...........
	20	0.28	6.66894E-001	-9.86509E-005	0.00000E+000	-6.57897E-005	-5.99601E-002	6.67203E-001	3.57900E+000	9	...........
	21	0.293333	6.57803E-001	-9.95271E-005	0.00000E+000	-6.54693E-005	-5.99601E-002	6.58116E-001	3.57900E+000	9	...........
	22	0.306667	6.48736E-001	-9.87363E-005	0.00000E+000	-6.40538E-005	-5.99601E-002	6.49009E-001	3.57900E+000	9	...........
	23	0.32	6.39635E-001	-9.80935E-005	0.00000E+000	-6.27441E-005	-5.99601E-002	6.39953E-001	3.57900E+000	9	...........
	24	0.333333	6.30522E-001	-9.87488E-005	0.00000E+000	-6.22633E-005	-5.99601E-002	6.30832E-001	3.57900E+000	9	...........
	25	0.346667	6.21435E-001	-9.80904E-005	0.00000E+000	-6.09568E-005	-5.99601E-002	6.21713E-001	3.57900E+000	9	...........
	26	0.36	6.12283E-001	-9.85071E-005	0.00000E+000	-6.03142E-005	-5.99601E-002	6.12591E-001	3.57900E+000	9	...........
	27	0.373333	6.03127E-001	-9.92792E-005	0.00000E+000	-5.98779E-005	-5.99601E-002	6.03455E-001	3.57900E+000	9	...........
	28	0.386667	5.93997E-001	-9.90999E-005	0.00000E+000	-5.88651E-005	-5.99601E-002	5.94290E-001	3.57900E+000	9	...........
	29	0.4	5.84816E-001	-9.86582E-005	0.00000E+000	-5.76969E-005	-5.99601E-002	5.85102E-001	3.57900E+000	9	...........
	30	0.413333	5.75619E-001	-9.89655E-005	0.00000E+000	-5.69665E-005	-5.99601E-002	5.75911E-001	3.57900E+000	9	...........
	31	0.426667	5.66429E-001	-9.90239E-005	0.00000E+000	-5.60901E-005	-5.99601E-002	5.66695E-001	3.57900E+000	9	...........
	32	0.44	5.57162E-001	-9.81716E-005	0.00000E+000	-5.46975E-005	-5.99601E-002	5.57444E-001	3.57900E+000	9	...........
	33	0.453333	5.47930E-001	-9.90208E-005	0.00000E+000	-5.42565E-005	-5.99601E-002	5.48195E-001	3.57900E+000	9	...........
	34	0.466667	5.38687E-001	-9.89739E-005	0.00000E+000	-5.33159E-005	-5.99601E-002	5.38916E-001	3.57900E+000	9	...........
	35	0.48	5.29390E-001	-9.83602E-005	0.00000E+000	-5.20709E-005	-5.99601E-002	5.29629E-001	3.57900E+000	9	...........
	36	0.493333	5.20089E-001	-9.84311E-005	0.00000E+000	-5.11929E-005	-5.99601E-002	5.20329E-001	3.57900E+000	9	...........
	37	0.506667	5.10753E-001	-9.82248E-005	0.00000E+000	-5.01686E-005	-5.99601E-002	5.10981E-001	3.57900E+000	9	...........
	38	0.52	5.01403E-001	-9.82550E-005	0.00000E+000	-4.92653E-005	-5.99601E-002	5.01633E-001	3.57900E+000	9	...........
	39	0.533333	4.92060E-001	-9.90666E-005	0.00000E+000	-4.87467E-005	-5.99601E-002	4.92288E-001	3.57900E+000	9	...........
	40	0.546667	4.82926E-001	-9.86103E-005	0.00000E+000	-4.76215E-005	-5.99601E-002	4.83079E-001	3.57900E+000	9	...........
	41	0.56	4.73675E-001	-9.95521E-005	0.00000E+000	-4.71554E-005	-5.99601E-002	4.73775E-001	3.57900E+000	9	...........
	42	0.573333	4.64274E-001	-9.93490E-005	0.00000E+000	-4.61251E-005	-5.99601E-002	4.64374E-001	3.57900E+000	9	...........
	43	0.586667	4.54866E-001	-9.82591E-005	0.00000E+000	-4.46947E-005	-5.99601E-002	4.54963E-001	3.57900E+000	9	...........
	44	0.6	4.45444E-001	-9.87530E-005	0.00000E+000	-4.39890E-005	-5.99601E-002	4.45540E-001	3.57900E+000	9	...........
	45	0.613333	4.36006E-001	-9.91177E-005	0.00000E+000	-4.32159E-005	-5.99601E-002	4.36099E-001	3.57900E+000	9	...........
	46	0.626667	4.26557E-001	-9.87926E-005	0.00000E+000	-4.21407E-005	-5.99601E-002	4.26654E-001	3.57900E+000	9	...........
	47	0.64	4.17097E-001	-9.91468E-005	0.00000E+000	-4.13539E-005	-5.99601E-002	4.17186E-001	3.57900E+000	9	...........
	48	0.653333	4.07632E-001	-9.88707E-005	0.00000E+000	-4.03029E-005	-5.99601E-002	4.07718E-001	3.57900E+000	9	...........
	49	0.666667	3.98166E-001	-9.90114E-005	0.00000E+000	-3.94230E-005	-5.99601E-002	3.98240E-001	3.57900E+000	9	...........
	50	0.68	3.88670E-001	-9.81748E-005	0.00000E+000	-3.81576E-005	-5.99601E-002	3.88754E-001	3.57900E+000	9	...........
	51	0.693333	3.79183E-001	-9.80331E-005	0.00000E+000	-3.71725E-005	-5.99601E-002	3.79253E-001	3.57900E+000	9	...........
	52	0.706667	3.69686E-001	-9.91823E-005	0.00000E+000	-3.66663E-005	-5.99601E-002	3.69749E-001	3.57900E+000	9	...........
	53	0.72	3.60173E-001	-9.90156E-005	0.00000E+000	-3.56628E-005	-5.99601E-002	3.60247E-001	3.57900E+000	9	...........
	54	0.733333	3.50658E-001	-9.94511E-005	0.00000E+000	-3.48733E-005	-5.99601E-002	3.50726E-001	3.57900E+000	9	...........
	55	0.746667	3.41137E-001	-9.88843E-005	0.00000E+000	-3.37331E-005	-5.99601E-002	3.41205E-001	3.57900E+000	9	...........
	56	0.76	3.31613E-001	-9.91791E-005	0.00000E+000	-3.28891E-005	-5.99601E-002	3.31675E-001	3.57900E+000	9	...........
	57	0.773333	3.22086E-001	-9.80393E-005	0.00000E+000	-3.15771E-005	-5.99601E-002	3.22149E-001	3.57900E+000	9	...........
	58	0.786667	3.12547E-001	-9.89885E-005	0.00000E+000	-3.09385E-005	-5.99601E-002	3.12605E-001	3.57900E+000	9	...........
	59	0.8	3.03002E-001	-9.82081E-005	0.00000E+000	-2.97573E-005	-5.99601E-002	3.03060E-001	3.57900E+000	9	...........
	60	0.813333	2.93451E-001	-9.93813E-005	0.00000E+000	-2.91636E-005	-5.99601E-002	2.93504E-001	3.57900E+000	9	...........
	61	0.826667	2.83897E-001	-9.87988E-005	0.00000E+000	-2.80487E-005	-5.99601E-002	2.83958E-001	3.57900E+000	9	...........
	62	0.84	2.74342E-001	-9.85102E-005	0.00000E+000	-2.70255E-005	-5.99601E-002	2.74398E-001	3.57900E+000	9	...........
	63	0.853333	2.64784E-001	-9.90260E-005	0.00000E+000	-2.62205E-005	-5.99601E-002	2.64836E-001	3.57900E+000	9	...........
	64	0.866667	2.55220E-001	-9.88124E-005	0.00000E+000	-2.52189E-005	-5.99601E-002	2.55272E-001	3.57900E+000	9	...........
	65	0.88	2.45654E-001	-9.84092E-005	0.00000E+000	-2.41746E-005	-5.99601E-002	2.45705E-001	3.57900E+000	9	...........
	66	0.893333	2.36097E-001	-9.87249E-005	0.00000E+000	-2.33086E-005	-5.99601E-002	2.36138E-001	3.57900E+000	9	...........
	67	0.906667	2.26536E-001	-9.96063E-005	0.00000E+000	-2.25644E-005	-5.99601E-002	2.26572E-001	3.57900E+000	9	...........
	68	0.92	2.16976E-001	-9.82300E-005	0.00000E+000	-2.13136E-005	-5.99601E-002	2.17019E-001	3.57900E+000	9	...........
	69	0.933333	2.07424E-001	-9.85561E-005	0.00000E+000	-2.04429E-005	-5.99601E-002	2.07460E-001	3.57900E+000	9	...........
	70	0.946667	1.97877E-001	-9.84071E-005	0.00000E+000	-1.94725E-005	-5.99601E-002	1.97909E-001	3.57900E+000	9	...........
	71	0.96	1.88344E-001	-9.91864E-005	0.00000E+000	-1.86812E-005	-5.99601E-002	1.88368E-001	3.57900E+000	9	...........
	72	0.97333	1.78810E-001	-9.96094E-005	0.00000E+000	-1.78111E-005	-5.99601E-002	1.78841E-001	3.57900E+000	9	...........
	73	0.98667	1.69296E-001	-9.83654E-005	0.00000E+000	-1.66529E-005	-5.99601E-002	1.69320E-001	3.57900E+000	9	...........
	74	1	1.59797E-001	-9.85061E-005	0.00000E+000	-1.57409E-005	-5.99601E-002	1.59820E-001	3.57900E+000	9	...........
	75	1.01333	1.50315E-001	-9.92864E-005	0.00000E+000	-1.49243E-005	-5.99601E-002	1.50335E-001	3.57900E+000	9	...........
	76	1.02667	1.40854E-001	-9.81654E-005	0.00000E+000	-1.38270E-005	-5.99601E-002	1.40867E-001	3.57900E+000	9	...........
	77	1.04	1.31409E-001	-9.86301E-005	0.00000E+000	-1.29608E-005	-5.99601E-002	1.31426E-001	3.57907E+000	9	...........
	78	1.05333	1.21993E-001	-9.89822E-005	0.00000E+000	-1.20752E-005	-5.99601E-002	1.22002E-001	3.57910E+000	9	...........
	79	1.06667	1.12603E-001	-9.92187E-005	0.00000E+000	-1.11724E-005	-5.99601E-002	1.12614E-001	3.57910E+000	9	...........
	80	1.08	1.03248E-001	-9.85665E-005	0.00000E+000	-1.01768E-005	-5.99601E-002	1.03253E-001	3.57910E+000	9	...........
	81	1.09333	9.39261E-002	-9.90593E-005	0.00000E+000	-9.30426E-006	-5.99601E-002	9.39293E-002	3.57910E+000	9	...........
	82	1.10667	8.46467E-002	-9.81529E-005	0.00000E+000	-8.30832E-006	-5.99601E-002	8.46473E-002	3.57910E+000	9	...........
	83	1.12	7.54088E-002	-9.93948E-005	0.00000E+000	-7.49524E-006	-5.99601E-002	7.54063E-002	3.57910E+000	9	...........
	84	1.13333	6.62167E-002	-9.83748E-005	0.00000E+000	-6.51405E-006	-5.99601E-002	6.62166E-002	3.57910E+000	9	...........
	85	1.14667	5.70743E-002	-9.88655E-005	0.00000E+000	-5.64268E-006	-5.99601E-002	5.70703E-002	3.57910E+000	9	...........
	86	1.16	4.80001E-002	-9.80893E-005	0.00000E+000	-4.70829E-006	-5.99601E-002	4.79900E-002	3.57910E+000	9	...........
	87	1.17333	3.89870E-002	-9.87176E-005	0.00000E+000	-3.84871E-006	-5.99601E-002	3.89750E-002	3.57910E+000	9	...........
	88	1.18667	3.00100E-002	-9.81289E-005	0.00000E+000	-2.94485E-006	-5.99601E-002	2.99942E-002	3.57910E+000	9	...........
	89	1.2	2.10885E-002	-9.89166E-005	0.00000E+000	-2.08600E-006	-5.99601E-002	2.10641E-002	3.57910E+000	9	...........
	90	1.21333	1.22295E-002	-1.00351E-004	0.00000E+000	-1.22725E-006	-5.99601E-002	1.22060E-002	3.57910E+000	9	...........
	91	1.22667	3.43287E-003	-9.86186E-005	0.00000E+000	-3.38545E-007	-5.99601E-002	3.40295E-003	3.57910E+000	9	...........
STARTTIMEOFFSET	QUANT	23.71833	Start Time Offset (s)
