EXPLAIN
TAG	PWR800_DISCHARGE
TITLE	LABEL	PWR Cyclic Charge Discharge (Cell) - Discharge Step	Test &Identifier
DATE	LABEL	13-7-2017	Date
TIME	LABEL	15:42:36	Time
NOTES	NOTES	2	&Notes...
	supercap test cell
	6M KOH
PSTAT	PSTAT	IFC5000-01520	Potentiostat
CAPACITY	QUANT	1.00000E-003	Capacity (A-hr)
CELLTYPE	SELECTOR	1	&Cell Type
WORKINGCONNECTION	SELECTOR	0	&Working Lead
MAXDISCHARGETIME	VARIABLEANDUNITS	1.00000E+002	s	1.00000E+002	second(s)	Max &Discharge Time
DISCHARGEMODE	MULTIPARAM	0	1.00000E-004	&Discharge Mode	Constant Current	Amp(s)
SAMPLETIME	QUANT	1.00000E-002	Sa&mple Period (s)
DISCHARGESTOPAT1	MULTIPARAM	3	0.00000E+000	Discharge Stop At &1	Voltage < Limit	V
DISCHARGESTOPAT2	MULTIPARAM	0	0.00000E+000	Discharge Stop At &2	None	N/A
AESBHCSELECTOR	TOGGLE	F	Save Both Half Cells
IRCOMP	TOGGLE	F	IR &Measure
EOC	QUANT	0	Open Circuit (V)
SEQUENCER	TOGGLE	TRUE	Run as Sequence
PSTATMODEL	IQUANT	53	Pstat Model
PSTATSECTION	LABEL	IFC5000-01520	Pstat Section
PSTATSERIALNO	LABEL	01520	Pstat Serial Number
CTRLMODE	IQUANT	0	Control Mode
ELECTROMETER	IQUANT	1	RE=0 or CS=1
IESTAB	IQUANT	0	I/E Stability
CASPEED	IQUANT	4	Control Amp Speed
CONVENTION	IQUANT	1	Current Convention
ICHRANGE	IQUANT	2	Ich Range
ICHRANGEMODE	TOGGLE	T	Ich Auto Range
ICHOFFSETENABLE	TOGGLE	F	Ich Offset Enable
ICHOFFSET	QUANT	0	Ich Offset (V)
ICHFILTER	IQUANT	1	Ich Filter
VCHRANGE	IQUANT	2	Vch Range
VCHRANGEMODE	TOGGLE	T	Vch Auto Range
VCHOFFSETENABLE	TOGGLE	F	Vch Offset Enable
VCHOFFSET	QUANT	0	Vch Offset (V)
VCHFILTER	IQUANT	1	Vch Filter
IERANGELOWERLIMIT	IQUANT	9	I/E Range Lower Limit
IERANGEMODE	TOGGLE	F	I/E AutoRange
IERANGE	IQUANT	9	I/E Range
ACHSELECT	IQUANT	1	Ach Select
ACHRANGE	IQUANT	2	Ach Range
ACHOFFSETENABLE	TOGGLE	F	Ach Offset Enable
ACHOFFSET	QUANT	0	Ach Offset (V)
ACHFILTER	IQUANT	1	Ach Filter
CABLEID	IQUANT	14	Cable ID
DCCALDATE	LABEL	5-7-2017	DC Calibration Date
ACCALDATE	LABEL	12/3/2015	AC Calibration Date
FRAMEWORKVERSION	QUANT	7.01	Framework Version
INSTRUMENTVERSION	LABEL	4.00	Instrument Version
CURVE	TABLE	86
	Pt	T	Vf	Im	Vu	Pwr	Sig	Ach	Temp	IERange	Over
	#	s	V	A	V	W	V	V	deg C	#	bits
	0	0.013333	8.45718E-001	-9.89655E-005	0.00000E+000	-8.36969E-005	-5.99601E-002	8.46056E-001	3.57850E+000	9	...........
	1	0.026667	8.31449E-001	-9.87124E-005	0.00000E+000	-8.20743E-005	-5.99601E-002	8.31771E-001	3.57850E+000	9	...........
	2	0.04	8.18029E-001	-9.93344E-005	0.00000E+000	-8.12584E-005	-5.99601E-002	8.18346E-001	3.57850E+000	9	...........
	3	0.053333	8.05163E-001	-9.90760E-005	0.00000E+000	-7.97723E-005	-5.99601E-002	8.05482E-001	3.57850E+000	9	...........
	4	0.066667	7.92734E-001	-9.88864E-005	0.00000E+000	-7.83906E-005	-5.99601E-002	7.93030E-001	3.57850E+000	9	...........
	5	0.08	7.80570E-001	-9.86884E-005	0.00000E+000	-7.70332E-005	-5.99601E-002	7.80866E-001	3.57850E+000	9	...........
	6	0.093333	7.68660E-001	-9.84696E-005	0.00000E+000	-7.56897E-005	-5.99601E-002	7.68931E-001	3.57850E+000	9	...........
	7	0.106667	7.56871E-001	-9.84863E-005	0.00000E+000	-7.45414E-005	-5.99601E-002	7.57130E-001	3.57850E+000	9	...........
	8	0.12	7.45216E-001	-9.84102E-005	0.00000E+000	-7.33368E-005	-5.99601E-002	7.45488E-001	3.57850E+000	9	...........
	9	0.133333	7.33638E-001	-9.95480E-005	0.00000E+000	-7.30321E-005	-5.99601E-002	7.33893E-001	3.57850E+000	9	...........
	10	0.146667	7.22175E-001	-9.88697E-005	0.00000E+000	-7.14012E-005	-5.99601E-002	7.22405E-001	3.57850E+000	9	...........
	11	0.16	7.10702E-001	-9.82633E-005	0.00000E+000	-6.98359E-005	-5.99601E-002	7.10945E-001	3.57850E+000	9	...........
	12	0.173333	6.99314E-001	-9.87624E-005	0.00000E+000	-6.90659E-005	-5.99601E-002	6.99583E-001	3.57850E+000	9	...........
	13	0.186667	6.87992E-001	-9.90468E-005	0.00000E+000	-6.81434E-005	-5.99601E-002	6.88238E-001	3.57850E+000	9	...........
	14	0.2	6.76674E-001	-9.89062E-005	0.00000E+000	-6.69272E-005	-5.99601E-002	6.76952E-001	3.57850E+000	9	...........
	15	0.213333	6.65385E-001	-9.84269E-005	0.00000E+000	-6.54918E-005	-5.99601E-002	6.65658E-001	3.57850E+000	9	...........
	16	0.226667	6.54102E-001	-9.85227E-005	0.00000E+000	-6.44439E-005	-5.99601E-002	6.54373E-001	3.57850E+000	9	...........
	17	0.24	6.42877E-001	-9.87905E-005	0.00000E+000	-6.35101E-005	-5.99601E-002	6.43138E-001	3.57850E+000	9	...........
	18	0.253333	6.31642E-001	-9.81258E-005	0.00000E+000	-6.19804E-005	-5.99601E-002	6.31917E-001	3.57850E+000	9	...........
	19	0.266667	6.20463E-001	-9.90301E-005	0.00000E+000	-6.14446E-005	-5.99601E-002	6.20701E-001	3.57850E+000	9	...........
	20	0.28	6.09238E-001	-9.87874E-005	0.00000E+000	-6.01850E-005	-5.99601E-002	6.09529E-001	3.57850E+000	9	...........
	21	0.293333	5.98116E-001	-9.88718E-005	0.00000E+000	-5.91368E-005	-5.99601E-002	5.98386E-001	3.57850E+000	9	...........
	22	0.306667	5.86975E-001	-9.84998E-005	0.00000E+000	-5.78169E-005	-5.99601E-002	5.87262E-001	3.57850E+000	9	...........
	23	0.32	5.75906E-001	-9.91197E-005	0.00000E+000	-5.70836E-005	-5.99601E-002	5.76167E-001	3.57850E+000	9	...........
	24	0.333333	5.64869E-001	-9.90781E-005	0.00000E+000	-5.59661E-005	-5.99601E-002	5.65103E-001	3.57850E+000	9	...........
	25	0.346667	5.53822E-001	-9.90374E-005	0.00000E+000	-5.48491E-005	-5.99601E-002	5.54072E-001	3.57850E+000	9	...........
	26	0.36	5.42857E-001	-9.87686E-005	0.00000E+000	-5.36172E-005	-5.99601E-002	5.43081E-001	3.57850E+000	9	...........
	27	0.373333	5.31893E-001	-9.83852E-005	0.00000E+000	-5.23304E-005	-5.99601E-002	5.32122E-001	3.57850E+000	9	...........
	28	0.386667	5.21018E-001	-9.95355E-005	0.00000E+000	-5.18597E-005	-5.99601E-002	5.21227E-001	3.57850E+000	9	...........
	29	0.4	5.10137E-001	-9.91239E-005	0.00000E+000	-5.05668E-005	-5.99601E-002	5.10363E-001	3.57850E+000	9	...........
	30	0.413333	4.99373E-001	-9.94490E-005	0.00000E+000	-4.96622E-005	-5.99601E-002	4.99581E-001	3.57850E+000	9	...........
	31	0.426667	4.88704E-001	-9.95271E-005	0.00000E+000	-4.86393E-005	-5.99601E-002	4.88866E-001	3.57850E+000	9	...........
	32	0.44	4.78354E-001	-9.91562E-005	0.00000E+000	-4.74317E-005	-5.99601E-002	4.78451E-001	3.57850E+000	9	...........
	33	0.453333	4.67748E-001	-9.91989E-005	0.00000E+000	-4.64001E-005	-5.99601E-002	4.67834E-001	3.57850E+000	9	...........
	34	0.466667	4.57194E-001	-9.91187E-005	0.00000E+000	-4.53164E-005	-5.99601E-002	4.57287E-001	3.57850E+000	9	...........
	35	0.48	4.46715E-001	-9.88541E-005	0.00000E+000	-4.41596E-005	-5.99601E-002	4.46805E-001	3.57850E+000	9	...........
	36	0.493333	4.36305E-001	-9.85759E-005	0.00000E+000	-4.30091E-005	-5.99601E-002	4.36394E-001	3.57850E+000	9	...........
	37	0.506667	4.25957E-001	-9.96063E-005	0.00000E+000	-4.24280E-005	-5.99601E-002	4.26047E-001	3.57850E+000	9	...........
	38	0.52	4.15686E-001	-9.88166E-005	0.00000E+000	-4.10766E-005	-5.99601E-002	4.15768E-001	3.57850E+000	9	...........
	39	0.533333	4.05483E-001	-9.87936E-005	0.00000E+000	-4.00592E-005	-5.99601E-002	4.05561E-001	3.57850E+000	9	...........
	40	0.546667	3.95335E-001	-9.95480E-005	0.00000E+000	-3.93548E-005	-5.99601E-002	3.95415E-001	3.57850E+000	9	...........
	41	0.56	3.85269E-001	-9.91260E-005	0.00000E+000	-3.81901E-005	-5.99601E-002	3.85340E-001	3.57850E+000	9	...........
	42	0.573333	3.75259E-001	-9.93635E-005	0.00000E+000	-3.72871E-005	-5.99601E-002	3.75331E-001	3.57850E+000	9	...........
	43	0.586667	3.65311E-001	-9.91395E-005	0.00000E+000	-3.62168E-005	-5.99601E-002	3.65381E-001	3.57850E+000	9	...........
	44	0.6	3.55424E-001	-9.90333E-005	0.00000E+000	-3.51988E-005	-5.99601E-002	3.55496E-001	3.57850E+000	9	...........
	45	0.613333	3.45604E-001	-9.88593E-005	0.00000E+000	-3.41662E-005	-5.99601E-002	3.45668E-001	3.57850E+000	9	...........
	46	0.626667	3.35844E-001	-9.86238E-005	0.00000E+000	-3.31222E-005	-5.99601E-002	3.35909E-001	3.57850E+000	9	...........
	47	0.64	3.26149E-001	-9.95730E-005	0.00000E+000	-3.24756E-005	-5.99601E-002	3.26208E-001	3.57850E+000	9	...........
	48	0.653333	3.16507E-001	-9.84936E-005	0.00000E+000	-3.11739E-005	-5.99601E-002	3.16565E-001	3.57850E+000	9	...........
	49	0.666667	3.06918E-001	-9.76819E-005	0.00000E+000	-2.99803E-005	-5.99601E-002	3.06977E-001	3.57850E+000	9	...........
	50	0.68	2.97378E-001	-9.94469E-005	0.00000E+000	-2.95733E-005	-5.99601E-002	2.97429E-001	3.57850E+000	9	...........
	51	0.693333	2.87897E-001	-9.86999E-005	0.00000E+000	-2.84154E-005	-5.99601E-002	2.87950E-001	3.57850E+000	9	...........
	52	0.706667	2.78466E-001	-9.91229E-005	0.00000E+000	-2.76023E-005	-5.99601E-002	2.78515E-001	3.57850E+000	9	...........
	53	0.72	2.69083E-001	-9.86832E-005	0.00000E+000	-2.65540E-005	-5.99601E-002	2.69131E-001	3.57850E+000	9	...........
	54	0.733333	2.59744E-001	-9.87415E-005	0.00000E+000	-2.56475E-005	-5.99601E-002	2.59794E-001	3.57850E+000	9	...........
	55	0.746667	2.50468E-001	-9.97282E-005	0.00000E+000	-2.49788E-005	-5.99601E-002	2.50511E-001	3.57850E+000	9	...........
	56	0.76	2.41243E-001	-9.82018E-005	0.00000E+000	-2.36905E-005	-5.99601E-002	2.41281E-001	3.57850E+000	9	...........
	57	0.773333	2.32064E-001	-9.91156E-005	0.00000E+000	-2.30011E-005	-5.99601E-002	2.32097E-001	3.57850E+000	9	...........
	58	0.786667	2.22931E-001	-9.84436E-005	0.00000E+000	-2.19461E-005	-5.99601E-002	2.22961E-001	3.57850E+000	9	...........
	59	0.8	2.13849E-001	-9.93365E-005	0.00000E+000	-2.12430E-005	-5.99601E-002	2.13882E-001	3.57850E+000	9	...........
	60	0.813333	2.04821E-001	-9.94406E-005	0.00000E+000	-2.03675E-005	-5.99601E-002	2.04855E-001	3.57850E+000	9	...........
	61	0.826667	1.95854E-001	-9.83883E-005	0.00000E+000	-1.92698E-005	-5.99601E-002	1.95884E-001	3.57850E+000	9	...........
	62	0.84	1.86945E-001	-9.97657E-005	0.00000E+000	-1.86507E-005	-5.99601E-002	1.86974E-001	3.57850E+000	9	...........
	63	0.853333	1.78102E-001	-9.92635E-005	0.00000E+000	-1.76791E-005	-5.99601E-002	1.78127E-001	3.57850E+000	9	...........
	64	0.866667	1.69315E-001	-9.86822E-005	0.00000E+000	-1.67084E-005	-5.99601E-002	1.69339E-001	3.57850E+000	9	...........
	65	0.88	1.60600E-001	-9.90864E-005	0.00000E+000	-1.59132E-005	-5.99601E-002	1.60619E-001	3.57850E+000	9	...........
	66	0.893333	1.51955E-001	-9.87207E-005	0.00000E+000	-1.50011E-005	-5.99601E-002	1.51972E-001	3.57850E+000	9	...........
	67	0.906667	1.43369E-001	-9.83081E-005	0.00000E+000	-1.40944E-005	-5.99601E-002	1.43384E-001	3.57850E+000	9	...........
	68	0.92	1.34858E-001	-9.94854E-005	0.00000E+000	-1.34164E-005	-5.99601E-002	1.34876E-001	3.57850E+000	9	...........
	69	0.933333	1.26418E-001	-9.86717E-005	0.00000E+000	-1.24738E-005	-5.99601E-002	1.26437E-001	3.57850E+000	9	...........
	70	0.946667	1.18056E-001	-9.88384E-005	0.00000E+000	-1.16685E-005	-5.99601E-002	1.18069E-001	3.57850E+000	9	...........
	71	0.96	1.09769E-001	-9.88707E-005	0.00000E+000	-1.08530E-005	-5.99601E-002	1.09778E-001	3.57850E+000	9	...........
	72	0.97333	1.01557E-001	-9.89572E-005	0.00000E+000	-1.00498E-005	-5.99601E-002	1.01562E-001	3.57850E+000	9	...........
	73	0.98667	9.34222E-002	-9.82591E-005	0.00000E+000	-9.17958E-006	-5.99601E-002	9.34274E-002	3.57850E+000	9	...........
	74	1	8.53550E-002	-9.85436E-005	0.00000E+000	-8.41118E-006	-5.99601E-002	8.53593E-002	3.57860E+000	9	...........
	75	1.01333	7.73728E-002	-9.86092E-005	0.00000E+000	-7.62968E-006	-5.99601E-002	7.73723E-002	3.57860E+000	9	...........
	76	1.02667	6.94548E-002	-9.92614E-005	0.00000E+000	-6.89418E-006	-5.99601E-002	6.94559E-002	3.57860E+000	9	...........
	77	1.04	6.16083E-002	-9.87134E-005	0.00000E+000	-6.08157E-006	-5.99601E-002	6.16086E-002	3.57860E+000	9	...........
	78	1.05333	5.38334E-002	-9.88801E-005	0.00000E+000	-5.32305E-006	-5.99601E-002	5.38274E-002	3.57860E+000	9	...........
	79	1.06667	4.61576E-002	-9.89343E-005	0.00000E+000	-4.56657E-006	-5.99601E-002	4.61494E-002	3.57860E+000	9	...........
	80	1.08	3.85324E-002	-9.81998E-005	0.00000E+000	-3.78387E-006	-5.99601E-002	3.85195E-002	3.57860E+000	9	...........
	81	1.09333	3.09589E-002	-9.99314E-005	0.00000E+000	-3.09376E-006	-5.99601E-002	3.09439E-002	3.57860E+000	9	...........
	82	1.10667	2.34591E-002	-9.88603E-005	0.00000E+000	-2.31917E-006	-5.99601E-002	2.34402E-002	3.57860E+000	9	...........
	83	1.12	1.60244E-002	-9.91104E-005	0.00000E+000	-1.58818E-006	-5.99601E-002	1.59925E-002	3.57860E+000	9	...........
	84	1.13333	8.65298E-003	-9.97334E-005	0.00000E+000	-8.62991E-007	-5.99601E-002	8.62551E-003	3.57860E+000	9	...........
	85	1.145	1.80747E-003	-9.98165E-005	0.00000E+000	-1.80415E-007	-5.99601E-002	1.77558E-003	3.57860E+000	9	...........
STARTTIMEOFFSET	QUANT	1834.427	Start Time Offset (s)
