EXPLAIN
TAG	PWR800_DISCHARGE
TITLE	LABEL	PWR Cyclic Charge Discharge (Cell) - Discharge Step	Test &Identifier
DATE	LABEL	13-7-2017	Date
TIME	LABEL	15:11:30	Time
NOTES	NOTES	2	&Notes...
	supercap test cell
	6M KOH
PSTAT	PSTAT	IFC5000-01520	Potentiostat
CAPACITY	QUANT	1.00000E-003	Capacity (A-hr)
CELLTYPE	SELECTOR	1	&Cell Type
WORKINGCONNECTION	SELECTOR	0	&Working Lead
MAXDISCHARGETIME	VARIABLEANDUNITS	1.00000E+002	s	1.00000E+002	second(s)	Max &Discharge Time
DISCHARGEMODE	MULTIPARAM	0	1.00000E-004	&Discharge Mode	Constant Current	Amp(s)
SAMPLETIME	QUANT	1.00000E-002	Sa&mple Period (s)
DISCHARGESTOPAT1	MULTIPARAM	3	0.00000E+000	Discharge Stop At &1	Voltage < Limit	V
DISCHARGESTOPAT2	MULTIPARAM	0	0.00000E+000	Discharge Stop At &2	None	N/A
AESBHCSELECTOR	TOGGLE	F	Save Both Half Cells
IRCOMP	TOGGLE	F	IR &Measure
EOC	QUANT	0	Open Circuit (V)
SEQUENCER	TOGGLE	TRUE	Run as Sequence
PSTATMODEL	IQUANT	53	Pstat Model
PSTATSECTION	LABEL	IFC5000-01520	Pstat Section
PSTATSERIALNO	LABEL	01520	Pstat Serial Number
CTRLMODE	IQUANT	0	Control Mode
ELECTROMETER	IQUANT	1	RE=0 or CS=1
IESTAB	IQUANT	0	I/E Stability
CASPEED	IQUANT	4	Control Amp Speed
CONVENTION	IQUANT	1	Current Convention
ICHRANGE	IQUANT	2	Ich Range
ICHRANGEMODE	TOGGLE	T	Ich Auto Range
ICHOFFSETENABLE	TOGGLE	F	Ich Offset Enable
ICHOFFSET	QUANT	0	Ich Offset (V)
ICHFILTER	IQUANT	1	Ich Filter
VCHRANGE	IQUANT	2	Vch Range
VCHRANGEMODE	TOGGLE	T	Vch Auto Range
VCHOFFSETENABLE	TOGGLE	F	Vch Offset Enable
VCHOFFSET	QUANT	0	Vch Offset (V)
VCHFILTER	IQUANT	1	Vch Filter
IERANGELOWERLIMIT	IQUANT	9	I/E Range Lower Limit
IERANGEMODE	TOGGLE	F	I/E AutoRange
IERANGE	IQUANT	9	I/E Range
ACHSELECT	IQUANT	1	Ach Select
ACHRANGE	IQUANT	2	Ach Range
ACHOFFSETENABLE	TOGGLE	F	Ach Offset Enable
ACHOFFSET	QUANT	0	Ach Offset (V)
ACHFILTER	IQUANT	1	Ach Filter
CABLEID	IQUANT	14	Cable ID
DCCALDATE	LABEL	5-7-2017	DC Calibration Date
ACCALDATE	LABEL	12/3/2015	AC Calibration Date
FRAMEWORKVERSION	QUANT	7.01	Framework Version
INSTRUMENTVERSION	LABEL	4.00	Instrument Version
CURVE	TABLE	91
	Pt	T	Vf	Im	Vu	Pwr	Sig	Ach	Temp	IERange	Over
	#	s	V	A	V	W	V	V	deg C	#	bits
	0	0.013333	8.53882E-001	-9.98032E-005	0.00000E+000	-8.52202E-005	-5.99601E-002	8.54239E-001	3.58020E+000	9	...........
	1	0.026667	8.40585E-001	-9.90895E-005	0.00000E+000	-8.32931E-005	-5.99601E-002	8.40904E-001	3.58020E+000	9	...........
	2	0.04	8.28109E-001	-9.87092E-005	0.00000E+000	-8.17420E-005	-5.99601E-002	8.28430E-001	3.58020E+000	9	...........
	3	0.053333	8.16196E-001	-9.87561E-005	0.00000E+000	-8.06043E-005	-5.99601E-002	8.16482E-001	3.58020E+000	9	...........
	4	0.066667	8.04693E-001	-9.91052E-005	0.00000E+000	-7.97492E-005	-5.99601E-002	8.04961E-001	3.58020E+000	9	...........
	5	0.08	7.93468E-001	-9.78434E-005	0.00000E+000	-7.76357E-005	-5.99601E-002	7.93736E-001	3.58020E+000	9	...........
	6	0.093333	7.82428E-001	-9.97428E-005	0.00000E+000	-7.80416E-005	-5.99601E-002	7.82732E-001	3.58020E+000	9	...........
	7	0.106667	7.71618E-001	-9.90614E-005	0.00000E+000	-7.64376E-005	-5.99601E-002	7.71906E-001	3.58020E+000	9	...........
	8	0.12	7.60900E-001	-9.87009E-005	0.00000E+000	-7.51015E-005	-5.99601E-002	7.61177E-001	3.58020E+000	9	...........
	9	0.133333	7.50301E-001	-9.89374E-005	0.00000E+000	-7.42329E-005	-5.99601E-002	7.50570E-001	3.58020E+000	9	...........
	10	0.146667	7.39754E-001	-9.95104E-005	0.00000E+000	-7.36132E-005	-5.99601E-002	7.40034E-001	3.58020E+000	9	...........
	11	0.16	7.29316E-001	-9.89353E-005	0.00000E+000	-7.21551E-005	-5.99601E-002	7.29588E-001	3.58020E+000	9	...........
	12	0.173333	7.18891E-001	-9.90447E-005	0.00000E+000	-7.12023E-005	-5.99601E-002	7.19178E-001	3.58020E+000	9	...........
	13	0.186667	7.08488E-001	-9.89249E-005	0.00000E+000	-7.00871E-005	-5.99601E-002	7.08774E-001	3.58020E+000	9	...........
	14	0.2	6.98154E-001	-9.82831E-005	0.00000E+000	-6.86168E-005	-5.99601E-002	6.98434E-001	3.58020E+000	9	...........
	15	0.213333	6.87828E-001	-9.82789E-005	0.00000E+000	-6.75990E-005	-5.99601E-002	6.88102E-001	3.58020E+000	9	...........
	16	0.226667	6.77517E-001	-9.90239E-005	0.00000E+000	-6.70904E-005	-5.99601E-002	6.77790E-001	3.58020E+000	9	...........
	17	0.24	6.67207E-001	-9.84488E-005	0.00000E+000	-6.56857E-005	-5.99601E-002	6.67475E-001	3.58020E+000	9	...........
	18	0.253333	6.56918E-001	-9.90437E-005	0.00000E+000	-6.50636E-005	-5.99601E-002	6.57161E-001	3.58020E+000	9	...........
	19	0.266667	6.46630E-001	-9.89343E-005	0.00000E+000	-6.39739E-005	-5.99601E-002	6.46869E-001	3.58020E+000	9	...........
	20	0.28	6.36339E-001	-9.81831E-005	0.00000E+000	-6.24777E-005	-5.99601E-002	6.36603E-001	3.57945E+000	9	...........
	21	0.293333	6.26095E-001	-9.96063E-005	0.00000E+000	-6.23630E-005	-5.99601E-002	6.26321E-001	3.57870E+000	9	...........
	22	0.306667	6.15815E-001	-9.83696E-005	0.00000E+000	-6.05775E-005	-5.99601E-002	6.16078E-001	3.57870E+000	9	...........
	23	0.32	6.05498E-001	-9.88030E-005	0.00000E+000	-5.98250E-005	-5.99601E-002	6.05812E-001	3.57870E+000	9	...........
	24	0.333333	5.95281E-001	-9.87436E-005	0.00000E+000	-5.87802E-005	-5.99601E-002	5.95570E-001	3.57870E+000	9	...........
	25	0.346667	5.85050E-001	-9.80216E-005	0.00000E+000	-5.73475E-005	-5.99601E-002	5.85308E-001	3.57870E+000	9	...........
	26	0.36	5.74815E-001	-9.98511E-005	0.00000E+000	-5.73959E-005	-5.99601E-002	5.75092E-001	3.57870E+000	9	...........
	27	0.373333	5.64631E-001	-9.85269E-005	0.00000E+000	-5.56314E-005	-5.99601E-002	5.64898E-001	3.57870E+000	9	...........
	28	0.386667	5.54403E-001	-9.80893E-005	0.00000E+000	-5.43810E-005	-5.99601E-002	5.54682E-001	3.57870E+000	9	...........
	29	0.4	5.44241E-001	-9.90499E-005	0.00000E+000	-5.39071E-005	-5.99601E-002	5.44505E-001	3.57870E+000	9	...........
	30	0.413333	5.34053E-001	-9.93437E-005	0.00000E+000	-5.30548E-005	-5.99601E-002	5.34336E-001	3.57870E+000	9	...........
	31	0.426667	5.23924E-001	-9.77726E-005	0.00000E+000	-5.12254E-005	-5.99601E-002	5.24188E-001	3.57870E+000	9	...........
	32	0.44	5.13818E-001	-9.88978E-005	0.00000E+000	-5.08154E-005	-5.99601E-002	5.14098E-001	3.57870E+000	9	...........
	33	0.453333	5.03711E-001	-9.86905E-005	0.00000E+000	-4.97115E-005	-5.99601E-002	5.03986E-001	3.57870E+000	9	...........
	34	0.466667	4.93675E-001	-9.89947E-005	0.00000E+000	-4.88712E-005	-5.99601E-002	4.93946E-001	3.57870E+000	9	...........
	35	0.48	4.83855E-001	-9.87603E-005	0.00000E+000	-4.77857E-005	-5.99601E-002	4.84042E-001	3.57870E+000	9	...........
	36	0.493333	4.74061E-001	-9.89968E-005	0.00000E+000	-4.69306E-005	-5.99601E-002	4.74167E-001	3.57870E+000	9	...........
	37	0.506667	4.64123E-001	-9.88739E-005	0.00000E+000	-4.58896E-005	-5.99601E-002	4.64221E-001	3.57870E+000	9	...........
	38	0.52	4.54218E-001	-9.90114E-005	0.00000E+000	-4.49728E-005	-5.99601E-002	4.54318E-001	3.57870E+000	9	...........
	39	0.533333	4.44357E-001	-9.89166E-005	0.00000E+000	-4.39543E-005	-5.99601E-002	4.44461E-001	3.57870E+000	9	...........
	40	0.546667	4.34537E-001	-9.97074E-005	0.00000E+000	-4.33266E-005	-5.99601E-002	4.34631E-001	3.57870E+000	9	...........
	41	0.56	4.24762E-001	-9.85269E-005	0.00000E+000	-4.18505E-005	-5.99601E-002	4.24852E-001	3.57870E+000	9	...........
	42	0.573333	4.15030E-001	-9.88259E-005	0.00000E+000	-4.10157E-005	-5.99601E-002	4.15114E-001	3.57870E+000	9	...........
	43	0.586667	4.05344E-001	-9.93740E-005	0.00000E+000	-4.02806E-005	-5.99601E-002	4.05431E-001	3.57870E+000	9	...........
	44	0.6	3.95709E-001	-9.86113E-005	0.00000E+000	-3.90214E-005	-5.99601E-002	3.95786E-001	3.57870E+000	9	...........
	45	0.613333	3.86111E-001	-9.86301E-005	0.00000E+000	-3.80822E-005	-5.99601E-002	3.86189E-001	3.57870E+000	9	...........
	46	0.626667	3.76562E-001	-9.88207E-005	0.00000E+000	-3.72121E-005	-5.99601E-002	3.76633E-001	3.57870E+000	9	...........
	47	0.64	3.67063E-001	-9.87197E-005	0.00000E+000	-3.62363E-005	-5.99601E-002	3.67132E-001	3.57870E+000	9	...........
	48	0.653333	3.57605E-001	-9.79278E-005	0.00000E+000	-3.50195E-005	-5.99601E-002	3.57671E-001	3.57870E+000	9	...........
	49	0.666667	3.48193E-001	-9.91781E-005	0.00000E+000	-3.45331E-005	-5.99601E-002	3.48254E-001	3.57870E+000	9	...........
	50	0.68	3.38818E-001	-9.88780E-005	0.00000E+000	-3.35016E-005	-5.99601E-002	3.38887E-001	3.57870E+000	9	...........
	51	0.693333	3.29497E-001	-9.90781E-005	0.00000E+000	-3.26459E-005	-5.99601E-002	3.29555E-001	3.57870E+000	9	...........
	52	0.706667	3.20209E-001	-9.85926E-005	0.00000E+000	-3.15703E-005	-5.99601E-002	3.20275E-001	3.57870E+000	9	...........
	53	0.72	3.10963E-001	-9.93469E-005	0.00000E+000	-3.08932E-005	-5.99601E-002	3.11027E-001	3.57870E+000	9	...........
	54	0.733333	3.01761E-001	-9.85113E-005	0.00000E+000	-2.97269E-005	-5.99601E-002	3.01818E-001	3.57870E+000	9	...........
	55	0.746667	2.92591E-001	-9.85801E-005	0.00000E+000	-2.88437E-005	-5.99601E-002	2.92655E-001	3.57870E+000	9	...........
	56	0.76	2.83468E-001	-9.95532E-005	0.00000E+000	-2.82202E-005	-5.99601E-002	2.83528E-001	3.57870E+000	9	...........
	57	0.773333	2.74371E-001	-9.90916E-005	0.00000E+000	-2.71878E-005	-5.99601E-002	2.74430E-001	3.57870E+000	9	...........
	58	0.786667	2.65322E-001	-9.89989E-005	0.00000E+000	-2.62666E-005	-5.99601E-002	2.65374E-001	3.57870E+000	9	...........
	59	0.8	2.56304E-001	-9.93510E-005	0.00000E+000	-2.54641E-005	-5.99601E-002	2.56355E-001	3.57870E+000	9	...........
	60	0.813333	2.47328E-001	-9.84946E-005	0.00000E+000	-2.43605E-005	-5.99601E-002	2.47374E-001	3.57870E+000	9	...........
	61	0.826667	2.38386E-001	-9.87822E-005	0.00000E+000	-2.35483E-005	-5.99601E-002	2.38431E-001	3.57870E+000	9	...........
	62	0.84	2.29476E-001	-9.93823E-005	0.00000E+000	-2.28059E-005	-5.99601E-002	2.29517E-001	3.57870E+000	9	...........
	63	0.853333	2.20608E-001	-9.90197E-005	0.00000E+000	-2.18445E-005	-5.99601E-002	2.20648E-001	3.57870E+000	9	...........
	64	0.866667	2.11778E-001	-9.83727E-005	0.00000E+000	-2.08331E-005	-5.99601E-002	2.11817E-001	3.57870E+000	9	...........
	65	0.88	2.02985E-001	-9.80622E-005	0.00000E+000	-1.99051E-005	-5.99601E-002	2.03017E-001	3.57870E+000	9	...........
	66	0.893333	1.94231E-001	-9.87155E-005	0.00000E+000	-1.91736E-005	-5.99601E-002	1.94265E-001	3.57870E+000	9	...........
	67	0.906667	1.85521E-001	-9.91677E-005	0.00000E+000	-1.83977E-005	-5.99601E-002	1.85552E-001	3.57870E+000	9	...........
	68	0.92	1.76855E-001	-9.88520E-005	0.00000E+000	-1.74825E-005	-5.99601E-002	1.76885E-001	3.57870E+000	9	...........
	69	0.933333	1.68236E-001	-9.83529E-005	0.00000E+000	-1.65465E-005	-5.99601E-002	1.68262E-001	3.57870E+000	9	...........
	70	0.946667	1.59667E-001	-9.79560E-005	0.00000E+000	-1.56404E-005	-5.99601E-002	1.59694E-001	3.57870E+000	9	...........
	71	0.96	1.51151E-001	-9.87134E-005	0.00000E+000	-1.49206E-005	-5.99601E-002	1.51175E-001	3.57870E+000	9	...........
	72	0.97333	1.42682E-001	-9.84165E-005	0.00000E+000	-1.40423E-005	-5.99601E-002	1.42703E-001	3.57870E+000	9	...........
	73	0.98667	1.34270E-001	-9.93219E-005	0.00000E+000	-1.33360E-005	-5.99601E-002	1.34290E-001	3.57870E+000	9	...........
	74	1	1.25922E-001	-9.86301E-005	0.00000E+000	-1.24197E-005	-5.99601E-002	1.25937E-001	3.57870E+000	9	...........
	75	1.01333	1.17624E-001	-9.98782E-005	0.00000E+000	-1.17481E-005	-5.99601E-002	1.17641E-001	3.57870E+000	9	...........
	76	1.02667	1.09396E-001	-9.88009E-005	0.00000E+000	-1.08084E-005	-5.99601E-002	1.09411E-001	3.57870E+000	9	...........
	77	1.04	1.01232E-001	-9.82977E-005	0.00000E+000	-9.95084E-006	-5.99601E-002	1.01248E-001	3.57870E+000	9	...........
	78	1.05333	9.31312E-002	-9.85300E-005	0.00000E+000	-9.17622E-006	-5.99601E-002	9.31447E-002	3.57870E+000	9	...........
	79	1.06667	8.51022E-002	-9.83310E-005	0.00000E+000	-8.36819E-006	-5.99601E-002	8.51071E-002	3.57870E+000	9	...........
	80	1.08	7.71323E-002	-9.86582E-005	0.00000E+000	-7.60973E-006	-5.99601E-002	7.71332E-002	3.57870E+000	9	...........
	81	1.09333	6.92290E-002	-9.92614E-005	0.00000E+000	-6.87177E-006	-5.99601E-002	6.92229E-002	3.57870E+000	9	...........
	82	1.10667	6.13817E-002	-9.97532E-005	0.00000E+000	-6.12302E-006	-5.99601E-002	6.13805E-002	3.57870E+000	9	...........
	83	1.12	5.36032E-002	-9.82696E-005	0.00000E+000	-5.26756E-006	-5.99601E-002	5.35962E-002	3.57870E+000	9	...........
	84	1.13333	4.59222E-002	-9.85332E-005	0.00000E+000	-4.52486E-006	-5.99601E-002	4.59172E-002	3.57870E+000	9	...........
	85	1.14667	3.82783E-002	-9.82112E-005	0.00000E+000	-3.75936E-006	-5.99601E-002	3.82679E-002	3.57870E+000	9	...........
	86	1.16	3.06915E-002	-9.86707E-005	0.00000E+000	-3.02836E-006	-5.99601E-002	3.06741E-002	3.57870E+000	9	...........
	87	1.17333	2.31628E-002	-9.88113E-005	0.00000E+000	-2.28874E-006	-5.99601E-002	2.31449E-002	3.57870E+000	9	...........
	88	1.18667	1.56991E-002	-9.82737E-005	0.00000E+000	-1.54281E-006	-5.99601E-002	1.56746E-002	3.57870E+000	9	...........
	89	1.2	8.29613E-003	-9.85811E-005	0.00000E+000	-8.17842E-007	-5.99601E-002	8.26918E-003	3.57870E+000	9	...........
	90	1.21	1.86480E-003	-9.86255E-005	0.00000E+000	-1.83917E-007	-5.99601E-002	1.82774E-003	3.57870E+000	9	...........
STARTTIMEOFFSET	QUANT	427.6282	Start Time Offset (s)
