EXPLAIN
TAG	PWR800_DISCHARGE
TITLE	LABEL	PWR Cyclic Charge Discharge (Cell) - Discharge Step	Test &Identifier
DATE	LABEL	13-7-2017	Date
TIME	LABEL	15:22:45	Time
NOTES	NOTES	2	&Notes...
	supercap test cell
	6M KOH
PSTAT	PSTAT	IFC5000-01520	Potentiostat
CAPACITY	QUANT	1.00000E-003	Capacity (A-hr)
CELLTYPE	SELECTOR	1	&Cell Type
WORKINGCONNECTION	SELECTOR	0	&Working Lead
MAXDISCHARGETIME	VARIABLEANDUNITS	1.00000E+002	s	1.00000E+002	second(s)	Max &Discharge Time
DISCHARGEMODE	MULTIPARAM	0	1.00000E-004	&Discharge Mode	Constant Current	Amp(s)
SAMPLETIME	QUANT	1.00000E-002	Sa&mple Period (s)
DISCHARGESTOPAT1	MULTIPARAM	3	0.00000E+000	Discharge Stop At &1	Voltage < Limit	V
DISCHARGESTOPAT2	MULTIPARAM	0	0.00000E+000	Discharge Stop At &2	None	N/A
AESBHCSELECTOR	TOGGLE	F	Save Both Half Cells
IRCOMP	TOGGLE	F	IR &Measure
EOC	QUANT	0	Open Circuit (V)
SEQUENCER	TOGGLE	TRUE	Run as Sequence
PSTATMODEL	IQUANT	53	Pstat Model
PSTATSECTION	LABEL	IFC5000-01520	Pstat Section
PSTATSERIALNO	LABEL	01520	Pstat Serial Number
CTRLMODE	IQUANT	0	Control Mode
ELECTROMETER	IQUANT	1	RE=0 or CS=1
IESTAB	IQUANT	0	I/E Stability
CASPEED	IQUANT	4	Control Amp Speed
CONVENTION	IQUANT	1	Current Convention
ICHRANGE	IQUANT	2	Ich Range
ICHRANGEMODE	TOGGLE	T	Ich Auto Range
ICHOFFSETENABLE	TOGGLE	F	Ich Offset Enable
ICHOFFSET	QUANT	0	Ich Offset (V)
ICHFILTER	IQUANT	1	Ich Filter
VCHRANGE	IQUANT	2	Vch Range
VCHRANGEMODE	TOGGLE	T	Vch Auto Range
VCHOFFSETENABLE	TOGGLE	F	Vch Offset Enable
VCHOFFSET	QUANT	0	Vch Offset (V)
VCHFILTER	IQUANT	1	Vch Filter
IERANGELOWERLIMIT	IQUANT	9	I/E Range Lower Limit
IERANGEMODE	TOGGLE	F	I/E AutoRange
IERANGE	IQUANT	9	I/E Range
ACHSELECT	IQUANT	1	Ach Select
ACHRANGE	IQUANT	2	Ach Range
ACHOFFSETENABLE	TOGGLE	F	Ach Offset Enable
ACHOFFSET	QUANT	0	Ach Offset (V)
ACHFILTER	IQUANT	1	Ach Filter
CABLEID	IQUANT	14	Cable ID
DCCALDATE	LABEL	5-7-2017	DC Calibration Date
ACCALDATE	LABEL	12/3/2015	AC Calibration Date
FRAMEWORKVERSION	QUANT	7.01	Framework Version
INSTRUMENTVERSION	LABEL	4.00	Instrument Version
CURVE	TABLE	89
	Pt	T	Vf	Im	Vu	Pwr	Sig	Ach	Temp	IERange	Over
	#	s	V	A	V	W	V	V	deg C	#	bits
	0	0.013333	8.50152E-001	-9.83446E-005	0.00000E+000	-8.36078E-005	-5.99601E-002	8.50489E-001	3.57983E+000	9	...........
	1	0.026667	8.36398E-001	-9.90010E-005	0.00000E+000	-8.28042E-005	-5.99601E-002	8.36736E-001	3.57850E+000	9	...........
	2	0.04	8.23506E-001	-9.77882E-005	0.00000E+000	-8.05292E-005	-5.99601E-002	8.23832E-001	3.57850E+000	9	...........
	3	0.053333	8.11131E-001	-9.91510E-005	0.00000E+000	-8.04245E-005	-5.99601E-002	8.11477E-001	3.57850E+000	9	...........
	4	0.066667	7.99203E-001	-9.79580E-005	0.00000E+000	-7.82884E-005	-5.99601E-002	7.99500E-001	3.57850E+000	9	...........
	5	0.08	7.87517E-001	-9.94896E-005	0.00000E+000	-7.83498E-005	-5.99601E-002	7.87811E-001	3.57850E+000	9	...........
	6	0.093333	7.76078E-001	-9.92573E-005	0.00000E+000	-7.70314E-005	-5.99601E-002	7.76389E-001	3.57850E+000	9	...........
	7	0.106667	7.64792E-001	-9.83581E-005	0.00000E+000	-7.52235E-005	-5.99601E-002	7.65104E-001	3.57850E+000	9	...........
	8	0.12	7.53641E-001	-9.87092E-005	0.00000E+000	-7.43913E-005	-5.99601E-002	7.53944E-001	3.57850E+000	9	...........
	9	0.133333	7.42588E-001	-9.92125E-005	0.00000E+000	-7.36740E-005	-5.99601E-002	7.42890E-001	3.57850E+000	9	...........
	10	0.146667	7.31628E-001	-9.80810E-005	0.00000E+000	-7.17588E-005	-5.99601E-002	7.31903E-001	3.57850E+000	9	...........
	11	0.16	7.20712E-001	-9.85092E-005	0.00000E+000	-7.09967E-005	-5.99601E-002	7.20983E-001	3.57850E+000	9	...........
	12	0.173333	7.09814E-001	-9.95125E-005	0.00000E+000	-7.06354E-005	-5.99601E-002	7.10081E-001	3.57850E+000	9	...........
	13	0.186667	6.98966E-001	-9.81029E-005	0.00000E+000	-6.85706E-005	-5.99601E-002	6.99250E-001	3.57850E+000	9	...........
	14	0.2	6.88155E-001	-9.95521E-005	0.00000E+000	-6.85072E-005	-5.99601E-002	6.88459E-001	3.57850E+000	9	...........
	15	0.213333	6.77368E-001	-9.90531E-005	0.00000E+000	-6.70954E-005	-5.99601E-002	6.77653E-001	3.57850E+000	9	...........
	16	0.226667	6.66598E-001	-9.86582E-005	0.00000E+000	-6.57653E-005	-5.99601E-002	6.66895E-001	3.57850E+000	9	...........
	17	0.24	6.55841E-001	-9.83394E-005	0.00000E+000	-6.44950E-005	-5.99601E-002	6.56143E-001	3.57850E+000	9	...........
	18	0.253333	6.45099E-001	-9.86498E-005	0.00000E+000	-6.36389E-005	-5.99601E-002	6.45381E-001	3.57850E+000	9	...........
	19	0.266667	6.34355E-001	-9.89853E-005	0.00000E+000	-6.27918E-005	-5.99601E-002	6.34634E-001	3.57850E+000	9	...........
	20	0.28	6.23666E-001	-9.84738E-005	0.00000E+000	-6.14147E-005	-5.99601E-002	6.23902E-001	3.57850E+000	9	...........
	21	0.293333	6.12937E-001	-9.89510E-005	0.00000E+000	-6.06507E-005	-5.99601E-002	6.13209E-001	3.57850E+000	9	...........
	22	0.306667	6.02234E-001	-9.93615E-005	0.00000E+000	-5.98389E-005	-5.99601E-002	6.02517E-001	3.57850E+000	9	...........
	23	0.32	5.91584E-001	-9.86269E-005	0.00000E+000	-5.83461E-005	-5.99601E-002	5.91846E-001	3.57850E+000	9	...........
	24	0.333333	5.80904E-001	-9.90572E-005	0.00000E+000	-5.75427E-005	-5.99601E-002	5.81172E-001	3.57850E+000	9	...........
	25	0.346667	5.70296E-001	-9.80372E-005	0.00000E+000	-5.59102E-005	-5.99601E-002	5.70553E-001	3.57850E+000	9	...........
	26	0.36	5.59663E-001	-9.92146E-005	0.00000E+000	-5.55267E-005	-5.99601E-002	5.59956E-001	3.57850E+000	9	...........
	27	0.373333	5.49114E-001	-9.93688E-005	0.00000E+000	-5.45648E-005	-5.99601E-002	5.49365E-001	3.57850E+000	9	...........
	28	0.386667	5.38593E-001	-9.88551E-005	0.00000E+000	-5.32427E-005	-5.99601E-002	5.38847E-001	3.57850E+000	9	...........
	29	0.4	5.28045E-001	-9.91135E-005	0.00000E+000	-5.23364E-005	-5.99601E-002	5.28311E-001	3.57850E+000	9	...........
	30	0.413333	5.17584E-001	-9.90322E-005	0.00000E+000	-5.12575E-005	-5.99601E-002	5.17834E-001	3.57850E+000	9	...........
	31	0.426667	5.07086E-001	-9.90103E-005	0.00000E+000	-5.02068E-005	-5.99601E-002	5.07386E-001	3.57850E+000	9	...........
	32	0.44	4.96719E-001	-9.90093E-005	0.00000E+000	-4.91798E-005	-5.99601E-002	4.97005E-001	3.57850E+000	9	...........
	33	0.453333	4.86474E-001	-9.89812E-005	0.00000E+000	-4.81518E-005	-5.99601E-002	4.86695E-001	3.57850E+000	9	...........
	34	0.466667	4.76452E-001	-9.92500E-005	0.00000E+000	-4.72878E-005	-5.99601E-002	4.76556E-001	3.57850E+000	9	...........
	35	0.48	4.66195E-001	-9.95323E-005	0.00000E+000	-4.64014E-005	-5.99601E-002	4.66296E-001	3.57850E+000	9	...........
	36	0.493333	4.55992E-001	-9.85665E-005	0.00000E+000	-4.49455E-005	-5.99601E-002	4.56084E-001	3.57850E+000	9	...........
	37	0.506667	4.45836E-001	-9.94125E-005	0.00000E+000	-4.43217E-005	-5.99601E-002	4.45930E-001	3.57850E+000	9	...........
	38	0.52	4.35745E-001	-9.92229E-005	0.00000E+000	-4.32359E-005	-5.99601E-002	4.35836E-001	3.57850E+000	9	...........
	39	0.533333	4.25699E-001	-9.85227E-005	0.00000E+000	-4.19410E-005	-5.99601E-002	4.25792E-001	3.57850E+000	9	...........
	40	0.546667	4.15710E-001	-9.85425E-005	0.00000E+000	-4.09651E-005	-5.99601E-002	4.15801E-001	3.57850E+000	9	...........
	41	0.56	4.05788E-001	-9.93646E-005	0.00000E+000	-4.03209E-005	-5.99601E-002	4.05865E-001	3.57850E+000	9	...........
	42	0.573333	3.95916E-001	-9.91583E-005	0.00000E+000	-3.92583E-005	-5.99601E-002	3.95991E-001	3.57850E+000	9	...........
	43	0.586667	3.86101E-001	-9.87738E-005	0.00000E+000	-3.81367E-005	-5.99601E-002	3.86175E-001	3.57850E+000	9	...........
	44	0.6	3.76339E-001	-9.90916E-005	0.00000E+000	-3.72920E-005	-5.99601E-002	3.76404E-001	3.57850E+000	9	...........
	45	0.613333	3.66635E-001	-9.93500E-005	0.00000E+000	-3.64252E-005	-5.99601E-002	3.66705E-001	3.57850E+000	9	...........
	46	0.626667	3.56986E-001	-9.87197E-005	0.00000E+000	-3.52416E-005	-5.99601E-002	3.57052E-001	3.57850E+000	9	...........
	47	0.64	3.47386E-001	-9.84206E-005	0.00000E+000	-3.41900E-005	-5.99601E-002	3.47450E-001	3.57850E+000	9	...........
	48	0.653333	3.37837E-001	-9.82112E-005	0.00000E+000	-3.31794E-005	-5.99601E-002	3.37903E-001	3.57850E+000	9	...........
	49	0.666667	3.28345E-001	-9.90593E-005	0.00000E+000	-3.25257E-005	-5.99601E-002	3.28402E-001	3.57850E+000	9	...........
	50	0.68	3.18905E-001	-9.91458E-005	0.00000E+000	-3.16181E-005	-5.99601E-002	3.18960E-001	3.57850E+000	9	...........
	51	0.693333	3.09506E-001	-9.84217E-005	0.00000E+000	-3.04621E-005	-5.99601E-002	3.09563E-001	3.57850E+000	9	...........
	52	0.706667	3.00147E-001	-1.00236E-004	0.00000E+000	-3.00854E-005	-5.99601E-002	3.00207E-001	3.57850E+000	9	...........
	53	0.72	2.90848E-001	-9.91302E-005	0.00000E+000	-2.88318E-005	-5.99601E-002	2.90898E-001	3.57850E+000	9	...........
	54	0.733333	2.81588E-001	-9.90093E-005	0.00000E+000	-2.78798E-005	-5.99601E-002	2.81640E-001	3.57850E+000	9	...........
	55	0.746667	2.72369E-001	-9.77830E-005	0.00000E+000	-2.66331E-005	-5.99601E-002	2.72426E-001	3.57850E+000	9	...........
	56	0.76	2.63195E-001	-9.91114E-005	0.00000E+000	-2.60856E-005	-5.99601E-002	2.63252E-001	3.57850E+000	9	...........
	57	0.773333	2.54069E-001	-9.84998E-005	0.00000E+000	-2.50258E-005	-5.99601E-002	2.54118E-001	3.57850E+000	9	...........
	58	0.786667	2.44987E-001	-9.82050E-005	0.00000E+000	-2.40589E-005	-5.99601E-002	2.45034E-001	3.57850E+000	9	...........
	59	0.8	2.35949E-001	-9.83675E-005	0.00000E+000	-2.32097E-005	-5.99601E-002	2.35986E-001	3.57850E+000	9	...........
	60	0.813333	2.26946E-001	-9.83977E-005	0.00000E+000	-2.23310E-005	-5.99601E-002	2.26984E-001	3.57850E+000	9	...........
	61	0.826667	2.17987E-001	-9.93625E-005	0.00000E+000	-2.16598E-005	-5.99601E-002	2.18024E-001	3.57850E+000	9	...........
	62	0.84	2.09071E-001	-9.77966E-005	0.00000E+000	-2.04465E-005	-5.99601E-002	2.09108E-001	3.57850E+000	9	...........
	63	0.853333	2.00205E-001	-9.88051E-005	0.00000E+000	-1.97813E-005	-5.99601E-002	2.00239E-001	3.57850E+000	9	...........
	64	0.866667	1.91386E-001	-9.92198E-005	0.00000E+000	-1.89893E-005	-5.99601E-002	1.91421E-001	3.57850E+000	9	...........
	65	0.88	1.82621E-001	-1.00219E-004	0.00000E+000	-1.83021E-005	-5.99601E-002	1.82652E-001	3.57850E+000	9	...........
	66	0.893333	1.73910E-001	-9.92114E-005	0.00000E+000	-1.72538E-005	-5.99601E-002	1.73938E-001	3.57850E+000	9	...........
	67	0.906667	1.65252E-001	-9.89853E-005	0.00000E+000	-1.63576E-005	-5.99601E-002	1.65281E-001	3.57850E+000	9	...........
	68	0.92	1.56657E-001	-9.83633E-005	0.00000E+000	-1.54093E-005	-5.99601E-002	1.56680E-001	3.57850E+000	9	...........
	69	0.933333	1.48120E-001	-9.92677E-005	0.00000E+000	-1.47035E-005	-5.99601E-002	1.48138E-001	3.57850E+000	9	...........
	70	0.946667	1.39640E-001	-9.96438E-005	0.00000E+000	-1.39143E-005	-5.99601E-002	1.39657E-001	3.57850E+000	9	...........
	71	0.96	1.31224E-001	-9.87582E-005	0.00000E+000	-1.29595E-005	-5.99601E-002	1.31240E-001	3.57850E+000	9	...........
	72	0.97333	1.22885E-001	-9.93198E-005	0.00000E+000	-1.22049E-005	-5.99601E-002	1.22899E-001	3.57850E+000	9	...........
	73	0.98667	1.14601E-001	-9.87957E-005	0.00000E+000	-1.13221E-005	-5.99601E-002	1.14621E-001	3.57850E+000	9	...........
	74	1	1.06401E-001	-9.88457E-005	0.00000E+000	-1.05173E-005	-5.99601E-002	1.06409E-001	3.57850E+000	9	...........
	75	1.01333	9.82574E-002	-9.85936E-005	0.00000E+000	-9.68755E-006	-5.99601E-002	9.82707E-002	3.57854E+000	9	...........
	76	1.02667	9.01880E-002	-9.88145E-005	0.00000E+000	-8.91188E-006	-5.99601E-002	9.02033E-002	3.57860E+000	9	...........
	77	1.04	8.21992E-002	-9.91989E-005	0.00000E+000	-8.15407E-006	-5.99601E-002	8.22037E-002	3.57860E+000	9	...........
	78	1.05333	7.42741E-002	-9.83383E-005	0.00000E+000	-7.30399E-006	-5.99601E-002	7.42759E-002	3.57860E+000	9	...........
	79	1.06667	6.64160E-002	-9.89895E-005	0.00000E+000	-6.57448E-006	-5.99601E-002	6.64129E-002	3.57860E+000	9	...........
	80	1.08	5.86292E-002	-9.90093E-005	0.00000E+000	-5.80484E-006	-5.99601E-002	5.86239E-002	3.57860E+000	9	...........
	81	1.09333	5.09051E-002	-9.91833E-005	0.00000E+000	-5.04894E-006	-5.99601E-002	5.09053E-002	3.57860E+000	9	...........
	82	1.10667	4.32862E-002	-9.94459E-005	0.00000E+000	-4.30463E-006	-5.99601E-002	4.32811E-002	3.57860E+000	9	...........
	83	1.12	3.56969E-002	-9.92885E-005	0.00000E+000	-3.54429E-006	-5.99601E-002	3.56872E-002	3.57860E+000	9	...........
	84	1.13333	2.81693E-002	-9.85738E-005	0.00000E+000	-2.77675E-006	-5.99601E-002	2.81547E-002	3.57860E+000	9	...........
	85	1.14667	2.07034E-002	-9.92760E-005	0.00000E+000	-2.05535E-006	-5.99601E-002	2.06843E-002	3.57860E+000	9	...........
	86	1.16	1.33057E-002	-9.87790E-005	0.00000E+000	-1.31432E-006	-5.99601E-002	1.32796E-002	3.57860E+000	9	...........
	87	1.17333	5.97311E-003	-9.98616E-005	0.00000E+000	-5.96484E-007	-5.99601E-002	5.94461E-003	3.57860E+000	9	...........
	88	1.18	5.09903E-004	-9.95875E-005	0.00000E+000	-5.07799E-008	-5.99601E-002	4.73225E-004	3.57860E+000	9	...........
STARTTIMEOFFSET	QUANT	938.2653	Start Time Offset (s)
