EXPLAIN
TAG	PWR800_DISCHARGE
TITLE	LABEL	PWR Cyclic Charge Discharge (Cell) - Discharge Step	Test &Identifier
DATE	LABEL	13-7-2017	Date
TIME	LABEL	15:08:36	Time
NOTES	NOTES	2	&Notes...
	supercap test cell
	6M KOH
PSTAT	PSTAT	IFC5000-01520	Potentiostat
CAPACITY	QUANT	1.00000E-003	Capacity (A-hr)
CELLTYPE	SELECTOR	1	&Cell Type
WORKINGCONNECTION	SELECTOR	0	&Working Lead
MAXDISCHARGETIME	VARIABLEANDUNITS	1.00000E+002	s	1.00000E+002	second(s)	Max &Discharge Time
DISCHARGEMODE	MULTIPARAM	0	1.00000E-004	&Discharge Mode	Constant Current	Amp(s)
SAMPLETIME	QUANT	1.00000E-002	Sa&mple Period (s)
DISCHARGESTOPAT1	MULTIPARAM	3	0.00000E+000	Discharge Stop At &1	Voltage < Limit	V
DISCHARGESTOPAT2	MULTIPARAM	0	0.00000E+000	Discharge Stop At &2	None	N/A
AESBHCSELECTOR	TOGGLE	F	Save Both Half Cells
IRCOMP	TOGGLE	F	IR &Measure
EOC	QUANT	0	Open Circuit (V)
SEQUENCER	TOGGLE	TRUE	Run as Sequence
PSTATMODEL	IQUANT	53	Pstat Model
PSTATSECTION	LABEL	IFC5000-01520	Pstat Section
PSTATSERIALNO	LABEL	01520	Pstat Serial Number
CTRLMODE	IQUANT	0	Control Mode
ELECTROMETER	IQUANT	1	RE=0 or CS=1
IESTAB	IQUANT	0	I/E Stability
CASPEED	IQUANT	4	Control Amp Speed
CONVENTION	IQUANT	1	Current Convention
ICHRANGE	IQUANT	2	Ich Range
ICHRANGEMODE	TOGGLE	T	Ich Auto Range
ICHOFFSETENABLE	TOGGLE	F	Ich Offset Enable
ICHOFFSET	QUANT	0	Ich Offset (V)
ICHFILTER	IQUANT	1	Ich Filter
VCHRANGE	IQUANT	2	Vch Range
VCHRANGEMODE	TOGGLE	T	Vch Auto Range
VCHOFFSETENABLE	TOGGLE	F	Vch Offset Enable
VCHOFFSET	QUANT	0	Vch Offset (V)
VCHFILTER	IQUANT	1	Vch Filter
IERANGELOWERLIMIT	IQUANT	9	I/E Range Lower Limit
IERANGEMODE	TOGGLE	F	I/E AutoRange
IERANGE	IQUANT	9	I/E Range
ACHSELECT	IQUANT	1	Ach Select
ACHRANGE	IQUANT	2	Ach Range
ACHOFFSETENABLE	TOGGLE	F	Ach Offset Enable
ACHOFFSET	QUANT	0	Ach Offset (V)
ACHFILTER	IQUANT	1	Ach Filter
CABLEID	IQUANT	14	Cable ID
DCCALDATE	LABEL	5-7-2017	DC Calibration Date
ACCALDATE	LABEL	12/3/2015	AC Calibration Date
FRAMEWORKVERSION	QUANT	7.01	Framework Version
INSTRUMENTVERSION	LABEL	4.00	Instrument Version
CURVE	TABLE	92
	Pt	T	Vf	Im	Vu	Pwr	Sig	Ach	Temp	IERange	Over
	#	s	V	A	V	W	V	V	deg C	#	bits
	0	0.013333	8.55104E-001	-9.95157E-005	0.00000E+000	-8.50962E-005	-5.99601E-002	8.55493E-001	3.58020E+000	9	...........
	1	0.026667	8.42136E-001	-9.77642E-005	0.00000E+000	-8.23308E-005	-5.99601E-002	8.42498E-001	3.58020E+000	9	...........
	2	0.04	8.29916E-001	-9.87697E-005	0.00000E+000	-8.19705E-005	-5.99601E-002	8.30293E-001	3.58020E+000	9	...........
	3	0.053333	8.18245E-001	-9.90218E-005	0.00000E+000	-8.10241E-005	-5.99601E-002	8.18616E-001	3.58020E+000	9	...........
	4	0.066667	8.06942E-001	-9.95042E-005	0.00000E+000	-8.02941E-005	-5.99601E-002	8.07307E-001	3.58020E+000	9	...........
	5	0.08	7.95969E-001	-9.85269E-005	0.00000E+000	-7.84244E-005	-5.99601E-002	7.96316E-001	3.58020E+000	9	...........
	6	0.093333	7.85174E-001	-9.85425E-005	0.00000E+000	-7.73731E-005	-5.99601E-002	7.85515E-001	3.58005E+000	9	...........
	7	0.106667	7.74553E-001	-9.96584E-005	0.00000E+000	-7.71907E-005	-5.99601E-002	7.74881E-001	3.57900E+000	9	...........
	8	0.12	7.64055E-001	-9.84967E-005	0.00000E+000	-7.52569E-005	-5.99601E-002	7.64372E-001	3.57900E+000	9	...........
	9	0.133333	7.53653E-001	-9.82706E-005	0.00000E+000	-7.40619E-005	-5.99601E-002	7.53994E-001	3.57900E+000	9	...........
	10	0.146667	7.43336E-001	-9.86540E-005	0.00000E+000	-7.33331E-005	-5.99601E-002	7.43649E-001	3.57900E+000	9	...........
	11	0.16	7.33064E-001	-9.94386E-005	0.00000E+000	-7.28948E-005	-5.99601E-002	7.33376E-001	3.57900E+000	9	...........
	12	0.173333	7.22890E-001	-9.99783E-005	0.00000E+000	-7.22733E-005	-5.99601E-002	7.23171E-001	3.57900E+000	9	...........
	13	0.186667	7.12666E-001	-9.91906E-005	0.00000E+000	-7.06898E-005	-5.99601E-002	7.12964E-001	3.57900E+000	9	...........
	14	0.2	7.02540E-001	-9.85790E-005	0.00000E+000	-6.92557E-005	-5.99601E-002	7.02798E-001	3.57900E+000	9	...........
	15	0.213333	6.92407E-001	-9.82300E-005	0.00000E+000	-6.80151E-005	-5.99601E-002	6.92662E-001	3.57900E+000	9	...........
	16	0.226667	6.82296E-001	-9.94719E-005	0.00000E+000	-6.78693E-005	-5.99601E-002	6.82550E-001	3.57900E+000	9	...........
	17	0.24	6.72204E-001	-9.97740E-005	0.00000E+000	-6.70685E-005	-5.99601E-002	6.72435E-001	3.57900E+000	9	...........
	18	0.253333	6.62086E-001	-9.93854E-005	0.00000E+000	-6.58017E-005	-5.99601E-002	6.62330E-001	3.57900E+000	9	...........
	19	0.266667	6.51991E-001	-9.88687E-005	0.00000E+000	-6.44615E-005	-5.99601E-002	6.52248E-001	3.57900E+000	9	...........
	20	0.28	6.41886E-001	-9.90885E-005	0.00000E+000	-6.36035E-005	-5.99601E-002	6.42169E-001	3.57900E+000	9	...........
	21	0.293333	6.31802E-001	-9.78914E-005	0.00000E+000	-6.18480E-005	-5.99601E-002	6.32068E-001	3.57900E+000	9	...........
	22	0.306667	6.21749E-001	-9.88405E-005	0.00000E+000	-6.14540E-005	-5.99601E-002	6.22012E-001	3.57900E+000	9	...........
	23	0.32	6.11626E-001	-9.92708E-005	0.00000E+000	-6.07166E-005	-5.99601E-002	6.11939E-001	3.57900E+000	9	...........
	24	0.333333	6.01561E-001	-9.87197E-005	0.00000E+000	-5.93859E-005	-5.99601E-002	6.01888E-001	3.57900E+000	9	...........
	25	0.346667	5.91514E-001	-9.95052E-005	0.00000E+000	-5.88587E-005	-5.99601E-002	5.91825E-001	3.57900E+000	9	...........
	26	0.36	5.81464E-001	-9.86540E-005	0.00000E+000	-5.73637E-005	-5.99601E-002	5.81751E-001	3.57900E+000	9	...........
	27	0.373333	5.71433E-001	-9.90812E-005	0.00000E+000	-5.66182E-005	-5.99601E-002	5.71700E-001	3.57900E+000	9	...........
	28	0.386667	5.61359E-001	-9.95709E-005	0.00000E+000	-5.58950E-005	-5.99601E-002	5.61667E-001	3.57900E+000	9	...........
	29	0.4	5.51349E-001	-9.96792E-005	0.00000E+000	-5.49580E-005	-5.99601E-002	5.51640E-001	3.57900E+000	9	...........
	30	0.413333	5.41348E-001	-9.82810E-005	0.00000E+000	-5.32042E-005	-5.99601E-002	5.41632E-001	3.57900E+000	9	...........
	31	0.426667	5.31354E-001	-9.91093E-005	0.00000E+000	-5.26621E-005	-5.99601E-002	5.31615E-001	3.57900E+000	9	...........
	32	0.44	5.21390E-001	-9.87624E-005	0.00000E+000	-5.14938E-005	-5.99601E-002	5.21611E-001	3.57900E+000	9	...........
	33	0.453333	5.11430E-001	-9.94761E-005	0.00000E+000	-5.08751E-005	-5.99601E-002	5.11640E-001	3.57900E+000	9	...........
	34	0.466667	5.01500E-001	-9.93000E-005	0.00000E+000	-4.97990E-005	-5.99601E-002	5.01706E-001	3.57900E+000	9	...........
	35	0.48	4.91604E-001	-9.87936E-005	0.00000E+000	-4.85674E-005	-5.99601E-002	4.91830E-001	3.57900E+000	9	...........
	36	0.493333	4.82039E-001	-9.78507E-005	0.00000E+000	-4.71678E-005	-5.99601E-002	4.82171E-001	3.57900E+000	9	...........
	37	0.506667	4.72297E-001	-9.80893E-005	0.00000E+000	-4.63273E-005	-5.99601E-002	4.72394E-001	3.57900E+000	9	...........
	38	0.52	4.62491E-001	-9.90333E-005	0.00000E+000	-4.58020E-005	-5.99601E-002	4.62587E-001	3.57900E+000	9	...........
	39	0.533333	4.52719E-001	-9.89020E-005	0.00000E+000	-4.47748E-005	-5.99601E-002	4.52820E-001	3.57900E+000	9	...........
	40	0.546667	4.42989E-001	-9.89030E-005	0.00000E+000	-4.38130E-005	-5.99601E-002	4.43087E-001	3.57900E+000	9	...........
	41	0.56	4.33295E-001	-9.88916E-005	0.00000E+000	-4.28492E-005	-5.99601E-002	4.33388E-001	3.57900E+000	9	...........
	42	0.573333	4.23643E-001	-9.92260E-005	0.00000E+000	-4.20364E-005	-5.99601E-002	4.23734E-001	3.57900E+000	9	...........
	43	0.586667	4.14030E-001	-9.85040E-005	0.00000E+000	-4.07836E-005	-5.99601E-002	4.14123E-001	3.57900E+000	9	...........
	44	0.6	4.04464E-001	-9.96105E-005	0.00000E+000	-4.02889E-005	-5.99601E-002	4.04543E-001	3.57900E+000	9	...........
	45	0.613333	3.94931E-001	-9.95615E-005	0.00000E+000	-3.93200E-005	-5.99601E-002	3.95007E-001	3.57900E+000	9	...........
	46	0.626667	3.85439E-001	-9.93042E-005	0.00000E+000	-3.82757E-005	-5.99601E-002	3.85513E-001	3.57900E+000	9	...........
	47	0.64	3.75990E-001	-9.95302E-005	0.00000E+000	-3.74224E-005	-5.99601E-002	3.76065E-001	3.57900E+000	9	...........
	48	0.653333	3.66582E-001	-9.93125E-005	0.00000E+000	-3.64061E-005	-5.99601E-002	3.66658E-001	3.57900E+000	9	...........
	49	0.666667	3.57214E-001	-9.85394E-005	0.00000E+000	-3.51996E-005	-5.99601E-002	3.57287E-001	3.57900E+000	9	...........
	50	0.68	3.47883E-001	-9.81268E-005	0.00000E+000	-3.41367E-005	-5.99601E-002	3.47959E-001	3.57900E+000	9	...........
	51	0.693333	3.38592E-001	-9.88947E-005	0.00000E+000	-3.34850E-005	-5.99601E-002	3.38658E-001	3.57900E+000	9	...........
	52	0.706667	3.29347E-001	-9.93750E-005	0.00000E+000	-3.27289E-005	-5.99601E-002	3.29411E-001	3.57900E+000	9	...........
	53	0.72	3.20136E-001	-9.87582E-005	0.00000E+000	-3.16160E-005	-5.99601E-002	3.20200E-001	3.57900E+000	9	...........
	54	0.733333	3.10956E-001	-9.84008E-005	0.00000E+000	-3.05983E-005	-5.99601E-002	3.11020E-001	3.57900E+000	9	...........
	55	0.746667	3.01818E-001	-9.83196E-005	0.00000E+000	-2.96746E-005	-5.99601E-002	3.01880E-001	3.57900E+000	9	...........
	56	0.76	2.92712E-001	-9.85675E-005	0.00000E+000	-2.88519E-005	-5.99601E-002	2.92770E-001	3.57900E+000	9	...........
	57	0.773333	2.83641E-001	-9.90145E-005	0.00000E+000	-2.80846E-005	-5.99601E-002	2.83702E-001	3.57900E+000	9	...........
	58	0.786667	2.74612E-001	-9.88541E-005	0.00000E+000	-2.71465E-005	-5.99601E-002	2.74664E-001	3.57900E+000	9	...........
	59	0.8	2.65610E-001	-9.95730E-005	0.00000E+000	-2.64476E-005	-5.99601E-002	2.65663E-001	3.57900E+000	9	...........
	60	0.813333	2.56643E-001	-9.84446E-005	0.00000E+000	-2.52651E-005	-5.99601E-002	2.56694E-001	3.57900E+000	9	...........
	61	0.826667	2.47718E-001	-9.89770E-005	0.00000E+000	-2.45184E-005	-5.99601E-002	2.47768E-001	3.57900E+000	9	...........
	62	0.84	2.38827E-001	-9.87145E-005	0.00000E+000	-2.35757E-005	-5.99601E-002	2.38870E-001	3.57900E+000	9	...........
	63	0.853333	2.29967E-001	-9.90322E-005	0.00000E+000	-2.27741E-005	-5.99601E-002	2.30005E-001	3.57900E+000	9	...........
	64	0.866667	2.21137E-001	-9.81758E-005	0.00000E+000	-2.17103E-005	-5.99601E-002	2.21176E-001	3.57900E+000	9	...........
	65	0.88	2.12351E-001	-9.87697E-005	0.00000E+000	-2.09738E-005	-5.99601E-002	2.12384E-001	3.57900E+000	9	...........
	66	0.893333	2.03592E-001	-9.89374E-005	0.00000E+000	-2.01429E-005	-5.99601E-002	2.03624E-001	3.57900E+000	9	...........
	67	0.906667	1.94875E-001	-9.86280E-005	0.00000E+000	-1.92202E-005	-5.99601E-002	1.94909E-001	3.57900E+000	9	...........
	68	0.92	1.86197E-001	-9.86822E-005	0.00000E+000	-1.83743E-005	-5.99601E-002	1.86225E-001	3.57900E+000	9	...........
	69	0.933333	1.77555E-001	-9.90916E-005	0.00000E+000	-1.75942E-005	-5.99601E-002	1.77591E-001	3.57900E+000	9	...........
	70	0.946667	1.68970E-001	-9.87655E-005	0.00000E+000	-1.66884E-005	-5.99601E-002	1.69001E-001	3.57900E+000	9	...........
	71	0.96	1.60431E-001	-9.91239E-005	0.00000E+000	-1.59026E-005	-5.99601E-002	1.60453E-001	3.57900E+000	9	...........
	72	0.97333	1.51928E-001	-9.90666E-005	0.00000E+000	-1.50510E-005	-5.99601E-002	1.51956E-001	3.57900E+000	9	...........
	73	0.98667	1.43482E-001	-9.86509E-005	0.00000E+000	-1.41547E-005	-5.99601E-002	1.43510E-001	3.57900E+000	9	...........
	74	1	1.35090E-001	-9.88405E-005	0.00000E+000	-1.33523E-005	-5.99601E-002	1.35112E-001	3.57900E+000	9	...........
	75	1.01333	1.26750E-001	-9.89770E-005	0.00000E+000	-1.25454E-005	-5.99601E-002	1.26772E-001	3.57900E+000	9	...........
	76	1.02667	1.18471E-001	-9.88489E-005	0.00000E+000	-1.17107E-005	-5.99601E-002	1.18486E-001	3.57900E+000	9	...........
	77	1.04	1.10248E-001	-9.90635E-005	0.00000E+000	-1.09216E-005	-5.99601E-002	1.10267E-001	3.57900E+000	9	...........
	78	1.05333	1.02084E-001	-9.82842E-005	0.00000E+000	-1.00332E-005	-5.99601E-002	1.02094E-001	3.57900E+000	9	...........
	79	1.06667	9.39789E-002	-9.93083E-005	0.00000E+000	-9.33289E-006	-5.99601E-002	9.39945E-002	3.57900E+000	9	...........
	80	1.08	8.59456E-002	-9.90229E-005	0.00000E+000	-8.51058E-006	-5.99601E-002	8.59488E-002	3.57900E+000	9	...........
	81	1.09333	7.79716E-002	-9.90812E-005	0.00000E+000	-7.72552E-006	-5.99601E-002	7.79742E-002	3.57904E+000	9	...........
	82	1.10667	7.00704E-002	-9.98980E-005	0.00000E+000	-6.99990E-006	-5.99601E-002	7.00687E-002	3.57930E+000	9	...........
	83	1.12	6.22276E-002	-9.85603E-005	0.00000E+000	-6.13317E-006	-5.99601E-002	6.22201E-002	3.57930E+000	9	...........
	84	1.13333	5.44430E-002	-9.79528E-005	0.00000E+000	-5.33285E-006	-5.99601E-002	5.44385E-002	3.57930E+000	9	...........
	85	1.14667	4.67477E-002	-9.90801E-005	0.00000E+000	-4.63177E-006	-5.99601E-002	4.67376E-002	3.57930E+000	9	...........
	86	1.16	3.91000E-002	-9.92281E-005	0.00000E+000	-3.87982E-006	-5.99601E-002	3.90922E-002	3.57930E+000	9	...........
	87	1.17333	3.15025E-002	-9.95542E-005	0.00000E+000	-3.13621E-006	-5.99601E-002	3.14857E-002	3.57930E+000	9	...........
	88	1.18667	2.39697E-002	-9.89155E-005	0.00000E+000	-2.37097E-006	-5.99601E-002	2.39507E-002	3.57930E+000	9	...........
	89	1.2	1.64944E-002	-9.84665E-005	0.00000E+000	-1.62414E-006	-5.99601E-002	1.64744E-002	3.57930E+000	9	...........
	90	1.21333	9.07893E-003	-9.89260E-005	0.00000E+000	-8.98142E-007	-5.99601E-002	9.04446E-003	3.57930E+000	9	...........
	91	1.225	2.17615E-003	-9.93973E-005	0.00000E+000	-2.16303E-007	-5.99601E-002	2.14077E-003	3.57930E+000	9	...........
STARTTIMEOFFSET	QUANT	294.3298	Start Time Offset (s)
