EXPLAIN
TAG	PWR800_DISCHARGE
TITLE	LABEL	PWR Cyclic Charge Discharge (Cell) - Discharge Step	Test &Identifier
DATE	LABEL	13-7-2017	Date
TIME	LABEL	15:13:38	Time
NOTES	NOTES	2	&Notes...
	supercap test cell
	6M KOH
PSTAT	PSTAT	IFC5000-01520	Potentiostat
CAPACITY	QUANT	1.00000E-003	Capacity (A-hr)
CELLTYPE	SELECTOR	1	&Cell Type
WORKINGCONNECTION	SELECTOR	0	&Working Lead
MAXDISCHARGETIME	VARIABLEANDUNITS	1.00000E+002	s	1.00000E+002	second(s)	Max &Discharge Time
DISCHARGEMODE	MULTIPARAM	0	1.00000E-004	&Discharge Mode	Constant Current	Amp(s)
SAMPLETIME	QUANT	1.00000E-002	Sa&mple Period (s)
DISCHARGESTOPAT1	MULTIPARAM	3	0.00000E+000	Discharge Stop At &1	Voltage < Limit	V
DISCHARGESTOPAT2	MULTIPARAM	0	0.00000E+000	Discharge Stop At &2	None	N/A
AESBHCSELECTOR	TOGGLE	F	Save Both Half Cells
IRCOMP	TOGGLE	F	IR &Measure
EOC	QUANT	0	Open Circuit (V)
SEQUENCER	TOGGLE	TRUE	Run as Sequence
PSTATMODEL	IQUANT	53	Pstat Model
PSTATSECTION	LABEL	IFC5000-01520	Pstat Section
PSTATSERIALNO	LABEL	01520	Pstat Serial Number
CTRLMODE	IQUANT	0	Control Mode
ELECTROMETER	IQUANT	1	RE=0 or CS=1
IESTAB	IQUANT	0	I/E Stability
CASPEED	IQUANT	4	Control Amp Speed
CONVENTION	IQUANT	1	Current Convention
ICHRANGE	IQUANT	2	Ich Range
ICHRANGEMODE	TOGGLE	T	Ich Auto Range
ICHOFFSETENABLE	TOGGLE	F	Ich Offset Enable
ICHOFFSET	QUANT	0	Ich Offset (V)
ICHFILTER	IQUANT	1	Ich Filter
VCHRANGE	IQUANT	2	Vch Range
VCHRANGEMODE	TOGGLE	T	Vch Auto Range
VCHOFFSETENABLE	TOGGLE	F	Vch Offset Enable
VCHOFFSET	QUANT	0	Vch Offset (V)
VCHFILTER	IQUANT	1	Vch Filter
IERANGELOWERLIMIT	IQUANT	9	I/E Range Lower Limit
IERANGEMODE	TOGGLE	F	I/E AutoRange
IERANGE	IQUANT	9	I/E Range
ACHSELECT	IQUANT	1	Ach Select
ACHRANGE	IQUANT	2	Ach Range
ACHOFFSETENABLE	TOGGLE	F	Ach Offset Enable
ACHOFFSET	QUANT	0	Ach Offset (V)
ACHFILTER	IQUANT	1	Ach Filter
CABLEID	IQUANT	14	Cable ID
DCCALDATE	LABEL	5-7-2017	DC Calibration Date
ACCALDATE	LABEL	12/3/2015	AC Calibration Date
FRAMEWORKVERSION	QUANT	7.01	Framework Version
INSTRUMENTVERSION	LABEL	4.00	Instrument Version
CURVE	TABLE	91
	Pt	T	Vf	Im	Vu	Pwr	Sig	Ach	Temp	IERange	Over
	#	s	V	A	V	W	V	V	deg C	#	bits
	0	0.013333	8.51732E-001	-9.90822E-005	0.00000E+000	-8.43916E-005	-5.99601E-002	8.52063E-001	3.58010E+000	9	...........
	1	0.026667	8.38331E-001	-9.95261E-005	0.00000E+000	-8.34358E-005	-5.99601E-002	8.38668E-001	3.58010E+000	9	...........
	2	0.04	8.25803E-001	-9.91281E-005	0.00000E+000	-8.18603E-005	-5.99601E-002	8.26130E-001	3.58010E+000	9	...........
	3	0.053333	8.13782E-001	-9.83123E-005	0.00000E+000	-8.00048E-005	-5.99601E-002	8.14105E-001	3.58010E+000	9	...........
	4	0.066667	8.02208E-001	-9.90791E-005	0.00000E+000	-7.94820E-005	-5.99601E-002	8.02538E-001	3.58010E+000	9	...........
	5	0.08	7.90914E-001	-9.84227E-005	0.00000E+000	-7.78439E-005	-5.99601E-002	7.91222E-001	3.58010E+000	9	...........
	6	0.093333	7.79828E-001	-9.90145E-005	0.00000E+000	-7.72143E-005	-5.99601E-002	7.80130E-001	3.58010E+000	9	...........
	7	0.106667	7.68913E-001	-9.88457E-005	0.00000E+000	-7.60038E-005	-5.99601E-002	7.69206E-001	3.58010E+000	9	...........
	8	0.12	7.58119E-001	-9.92291E-005	0.00000E+000	-7.52275E-005	-5.99601E-002	7.58396E-001	3.58010E+000	9	...........
	9	0.133333	7.47415E-001	-9.83810E-005	0.00000E+000	-7.35315E-005	-5.99601E-002	7.47701E-001	3.58010E+000	9	...........
	10	0.146667	7.36814E-001	-9.84394E-005	0.00000E+000	-7.25315E-005	-5.99601E-002	7.37051E-001	3.58010E+000	9	...........
	11	0.16	7.26270E-001	-9.83362E-005	0.00000E+000	-7.14187E-005	-5.99601E-002	7.26489E-001	3.58010E+000	9	...........
	12	0.173333	7.15752E-001	-9.91302E-005	0.00000E+000	-7.09526E-005	-5.99601E-002	7.15970E-001	3.58010E+000	9	...........
	13	0.186667	7.05266E-001	-9.88874E-005	0.00000E+000	-6.97419E-005	-5.99601E-002	7.05518E-001	3.58010E+000	9	...........
	14	0.2	6.94821E-001	-9.93750E-005	0.00000E+000	-6.90478E-005	-5.99601E-002	6.95083E-001	3.58010E+000	9	...........
	15	0.213333	6.84389E-001	-9.90593E-005	0.00000E+000	-6.77951E-005	-5.99601E-002	6.84650E-001	3.58010E+000	9	...........
	16	0.226667	6.74008E-001	-9.87395E-005	0.00000E+000	-6.65512E-005	-5.99601E-002	6.74258E-001	3.58010E+000	9	...........
	17	0.24	6.63594E-001	-9.89291E-005	0.00000E+000	-6.56488E-005	-5.99601E-002	6.63860E-001	3.57992E+000	9	...........
	18	0.253333	6.53205E-001	-9.92937E-005	0.00000E+000	-6.48592E-005	-5.99601E-002	6.53459E-001	3.57870E+000	9	...........
	19	0.266667	6.42847E-001	-9.89385E-005	0.00000E+000	-6.36022E-005	-5.99601E-002	6.43099E-001	3.57870E+000	9	...........
	20	0.28	6.32459E-001	-9.90906E-005	0.00000E+000	-6.26707E-005	-5.99601E-002	6.32714E-001	3.57870E+000	9	...........
	21	0.293333	6.22128E-001	-9.85936E-005	0.00000E+000	-6.13378E-005	-5.99601E-002	6.22353E-001	3.57870E+000	9	...........
	22	0.306667	6.11740E-001	-9.87280E-005	0.00000E+000	-6.03959E-005	-5.99601E-002	6.12017E-001	3.57870E+000	9	...........
	23	0.32	6.01390E-001	-9.88311E-005	0.00000E+000	-5.94361E-005	-5.99601E-002	6.01663E-001	3.57870E+000	9	...........
	24	0.333333	5.91045E-001	-9.93781E-005	0.00000E+000	-5.87369E-005	-5.99601E-002	5.91352E-001	3.57870E+000	9	...........
	25	0.346667	5.80730E-001	-9.85082E-005	0.00000E+000	-5.72066E-005	-5.99601E-002	5.81026E-001	3.57870E+000	9	...........
	26	0.36	5.70456E-001	-9.90124E-005	0.00000E+000	-5.64822E-005	-5.99601E-002	5.70736E-001	3.57870E+000	9	...........
	27	0.373333	5.60137E-001	-9.89676E-005	0.00000E+000	-5.54355E-005	-5.99601E-002	5.60414E-001	3.57870E+000	9	...........
	28	0.386667	5.49901E-001	-9.82102E-005	0.00000E+000	-5.40059E-005	-5.99601E-002	5.50151E-001	3.57870E+000	9	...........
	29	0.4	5.39660E-001	-9.86123E-005	0.00000E+000	-5.32171E-005	-5.99601E-002	5.39927E-001	3.57870E+000	9	...........
	30	0.413333	5.29421E-001	-9.92541E-005	0.00000E+000	-5.25472E-005	-5.99601E-002	5.29680E-001	3.57870E+000	9	...........
	31	0.426667	5.19241E-001	-9.95115E-005	0.00000E+000	-5.16704E-005	-5.99601E-002	5.19464E-001	3.57870E+000	9	...........
	32	0.44	5.09050E-001	-9.85373E-005	0.00000E+000	-5.01604E-005	-5.99601E-002	5.09270E-001	3.57870E+000	9	...........
	33	0.453333	4.98910E-001	-9.82789E-005	0.00000E+000	-4.90323E-005	-5.99601E-002	4.99144E-001	3.57870E+000	9	...........
	34	0.466667	4.88816E-001	-9.88239E-005	0.00000E+000	-4.83067E-005	-5.99601E-002	4.89060E-001	3.57870E+000	9	...........
	35	0.48	4.79148E-001	-9.87228E-005	0.00000E+000	-4.73028E-005	-5.99601E-002	4.79247E-001	3.57870E+000	9	...........
	36	0.493333	4.69133E-001	-9.84029E-005	0.00000E+000	-4.61641E-005	-5.99601E-002	4.69236E-001	3.57870E+000	9	...........
	37	0.506667	4.59155E-001	-9.79091E-005	0.00000E+000	-4.49555E-005	-5.99601E-002	4.59254E-001	3.57870E+000	9	...........
	38	0.52	4.49226E-001	-9.95980E-005	0.00000E+000	-4.47420E-005	-5.99601E-002	4.49313E-001	3.57870E+000	9	...........
	39	0.533333	4.39336E-001	-9.88082E-005	0.00000E+000	-4.34100E-005	-5.99601E-002	4.39431E-001	3.57870E+000	9	...........
	40	0.546667	4.29503E-001	-9.82946E-005	0.00000E+000	-4.22178E-005	-5.99601E-002	4.29590E-001	3.57870E+000	9	...........
	41	0.56	4.19708E-001	-9.91781E-005	0.00000E+000	-4.16259E-005	-5.99601E-002	4.19797E-001	3.57870E+000	9	...........
	42	0.573333	4.09971E-001	-9.90770E-005	0.00000E+000	-4.06187E-005	-5.99601E-002	4.10052E-001	3.57870E+000	9	...........
	43	0.586667	4.00278E-001	-1.00049E-004	0.00000E+000	-4.00475E-005	-5.99601E-002	4.00360E-001	3.57870E+000	9	...........
	44	0.6	3.90642E-001	-9.91322E-005	0.00000E+000	-3.87252E-005	-5.99601E-002	3.90716E-001	3.57870E+000	9	...........
	45	0.613333	3.81046E-001	-9.89187E-005	0.00000E+000	-3.76925E-005	-5.99601E-002	3.81122E-001	3.57870E+000	9	...........
	46	0.626667	3.71502E-001	-9.82112E-005	0.00000E+000	-3.64856E-005	-5.99601E-002	3.71574E-001	3.57870E+000	9	...........
	47	0.64	3.61997E-001	-9.91573E-005	0.00000E+000	-3.58946E-005	-5.99601E-002	3.62068E-001	3.57870E+000	9	...........
	48	0.653333	3.52545E-001	-9.82675E-005	0.00000E+000	-3.46437E-005	-5.99601E-002	3.52613E-001	3.57870E+000	9	...........
	49	0.666667	3.43135E-001	-9.91718E-005	0.00000E+000	-3.40294E-005	-5.99601E-002	3.43199E-001	3.57870E+000	9	...........
	50	0.68	3.33776E-001	-9.91645E-005	0.00000E+000	-3.30988E-005	-5.99601E-002	3.33840E-001	3.57870E+000	9	...........
	51	0.693333	3.24466E-001	-9.89343E-005	0.00000E+000	-3.21008E-005	-5.99601E-002	3.24531E-001	3.57870E+000	9	...........
	52	0.706667	3.15195E-001	-9.90249E-005	0.00000E+000	-3.12122E-005	-5.99601E-002	3.15253E-001	3.57870E+000	9	...........
	53	0.72	3.05970E-001	-9.85894E-005	0.00000E+000	-3.01654E-005	-5.99601E-002	3.06026E-001	3.57870E+000	9	...........
	54	0.733333	2.96781E-001	-9.90958E-005	0.00000E+000	-2.94097E-005	-5.99601E-002	2.96842E-001	3.57870E+000	9	...........
	55	0.746667	2.87634E-001	-9.90385E-005	0.00000E+000	-2.84869E-005	-5.99601E-002	2.87688E-001	3.57870E+000	9	...........
	56	0.76	2.78530E-001	-9.88468E-005	0.00000E+000	-2.75317E-005	-5.99601E-002	2.78584E-001	3.57870E+000	9	...........
	57	0.773333	2.69462E-001	-9.83342E-005	0.00000E+000	-2.64973E-005	-5.99601E-002	2.69515E-001	3.57870E+000	9	...........
	58	0.786667	2.60434E-001	-9.88176E-005	0.00000E+000	-2.57354E-005	-5.99601E-002	2.60480E-001	3.57870E+000	9	...........
	59	0.8	2.51441E-001	-9.82446E-005	0.00000E+000	-2.47027E-005	-5.99601E-002	2.51486E-001	3.57870E+000	9	...........
	60	0.813333	2.42487E-001	-9.84967E-005	0.00000E+000	-2.38841E-005	-5.99601E-002	2.42524E-001	3.57870E+000	9	...........
	61	0.826667	2.33571E-001	-9.89916E-005	0.00000E+000	-2.31216E-005	-5.99601E-002	2.33609E-001	3.57870E+000	9	...........
	62	0.84	2.24692E-001	-9.93906E-005	0.00000E+000	-2.23323E-005	-5.99601E-002	2.24733E-001	3.57870E+000	9	...........
	63	0.853333	2.15853E-001	-9.89947E-005	0.00000E+000	-2.13683E-005	-5.99601E-002	2.15886E-001	3.57870E+000	9	...........
	64	0.866667	2.07055E-001	-9.86801E-005	0.00000E+000	-2.04322E-005	-5.99601E-002	2.07089E-001	3.57870E+000	9	...........
	65	0.88	1.98300E-001	-9.91573E-005	0.00000E+000	-1.96629E-005	-5.99601E-002	1.98340E-001	3.57870E+000	9	...........
	66	0.893333	1.89591E-001	-9.88770E-005	0.00000E+000	-1.87461E-005	-5.99601E-002	1.89622E-001	3.57870E+000	9	...........
	67	0.906667	1.80925E-001	-9.90260E-005	0.00000E+000	-1.79163E-005	-5.99601E-002	1.80949E-001	3.57870E+000	9	...........
	68	0.92	1.72306E-001	-9.95917E-005	0.00000E+000	-1.71602E-005	-5.99601E-002	1.72331E-001	3.57870E+000	9	...........
	69	0.933333	1.63745E-001	-9.97199E-005	0.00000E+000	-1.63286E-005	-5.99601E-002	1.63767E-001	3.57870E+000	9	...........
	70	0.946667	1.55226E-001	-9.90770E-005	0.00000E+000	-1.53794E-005	-5.99601E-002	1.55249E-001	3.57870E+000	9	...........
	71	0.96	1.46772E-001	-9.92656E-005	0.00000E+000	-1.45694E-005	-5.99601E-002	1.46787E-001	3.57870E+000	9	...........
	72	0.97333	1.38370E-001	-9.88728E-005	0.00000E+000	-1.36810E-005	-5.99601E-002	1.38386E-001	3.57870E+000	9	...........
	73	0.98667	1.30031E-001	-9.77809E-005	0.00000E+000	-1.27145E-005	-5.99601E-002	1.30040E-001	3.57870E+000	9	...........
	74	1	1.21745E-001	-9.86290E-005	0.00000E+000	-1.20076E-005	-5.99601E-002	1.21758E-001	3.57870E+000	9	...........
	75	1.01333	1.13527E-001	-9.84352E-005	0.00000E+000	-1.11751E-005	-5.99601E-002	1.13540E-001	3.57870E+000	9	...........
	76	1.02667	1.05374E-001	-9.95855E-005	0.00000E+000	-1.04937E-005	-5.99601E-002	1.05379E-001	3.57870E+000	9	...........
	77	1.04	9.72818E-002	-1.00012E-004	0.00000E+000	-9.72930E-006	-5.99601E-002	9.72898E-002	3.57870E+000	9	...........
	78	1.05333	8.92581E-002	-9.91541E-005	0.00000E+000	-8.85031E-006	-5.99601E-002	8.92670E-002	3.57870E+000	9	...........
	79	1.06667	8.13044E-002	-9.81143E-005	0.00000E+000	-7.97712E-006	-5.99601E-002	8.13058E-002	3.57870E+000	9	...........
	80	1.08	7.34088E-002	-9.89249E-005	0.00000E+000	-7.26196E-006	-5.99601E-002	7.34129E-002	3.57870E+000	9	...........
	81	1.09333	6.55845E-002	-9.84936E-005	0.00000E+000	-6.45965E-006	-5.99601E-002	6.55818E-002	3.57870E+000	9	...........
	82	1.10667	5.78257E-002	-9.95782E-005	0.00000E+000	-5.75817E-006	-5.99601E-002	5.78175E-002	3.57870E+000	9	...........
	83	1.12	5.01344E-002	-9.98366E-005	0.00000E+000	-5.00525E-006	-5.99601E-002	5.01285E-002	3.57870E+000	9	...........
	84	1.13333	4.25308E-002	-9.86019E-005	0.00000E+000	-4.19362E-006	-5.99601E-002	4.25254E-002	3.57870E+000	9	...........
	85	1.14667	3.49585E-002	-9.89385E-005	0.00000E+000	-3.45874E-006	-5.99601E-002	3.49471E-002	3.57870E+000	9	...........
	86	1.16	2.74460E-002	-9.85113E-005	0.00000E+000	-2.70374E-006	-5.99601E-002	2.74310E-002	3.57870E+000	9	...........
	87	1.17333	1.99975E-002	-9.77768E-005	0.00000E+000	-1.95529E-006	-5.99601E-002	1.99721E-002	3.57870E+000	9	...........
	88	1.18667	1.26040E-002	-9.97376E-005	0.00000E+000	-1.25710E-006	-5.99601E-002	1.25776E-002	3.57870E+000	9	...........
	89	1.2	5.27333E-003	-9.89822E-005	0.00000E+000	-5.21966E-007	-5.99601E-002	5.24573E-003	3.57870E+000	9	...........
	90	1.205	2.66526E-004	-9.76712E-005	0.00000E+000	-2.60319E-008	-5.99601E-002	2.29524E-004	3.57870E+000	9	...........
STARTTIMEOFFSET	QUANT	524.7049	Start Time Offset (s)
