EXPLAIN
TAG	PWR800_DISCHARGE
TITLE	LABEL	PWR Cyclic Charge Discharge (Cell) - Discharge Step	Test &Identifier
DATE	LABEL	13-7-2017	Date
TIME	LABEL	15:03:27	Time
NOTES	NOTES	2	&Notes...
	supercap test cell
	6M KOH
PSTAT	PSTAT	IFC5000-01520	Potentiostat
CAPACITY	QUANT	1.00000E-003	Capacity (A-hr)
CELLTYPE	SELECTOR	1	&Cell Type
WORKINGCONNECTION	SELECTOR	0	&Working Lead
MAXDISCHARGETIME	VARIABLEANDUNITS	1.00000E+002	s	1.00000E+002	second(s)	Max &Discharge Time
DISCHARGEMODE	MULTIPARAM	0	1.00000E-004	&Discharge Mode	Constant Current	Amp(s)
SAMPLETIME	QUANT	1.00000E-002	Sa&mple Period (s)
DISCHARGESTOPAT1	MULTIPARAM	3	0.00000E+000	Discharge Stop At &1	Voltage < Limit	V
DISCHARGESTOPAT2	MULTIPARAM	0	0.00000E+000	Discharge Stop At &2	None	N/A
AESBHCSELECTOR	TOGGLE	F	Save Both Half Cells
IRCOMP	TOGGLE	F	IR &Measure
EOC	QUANT	0	Open Circuit (V)
SEQUENCER	TOGGLE	TRUE	Run as Sequence
PSTATMODEL	IQUANT	53	Pstat Model
PSTATSECTION	LABEL	IFC5000-01520	Pstat Section
PSTATSERIALNO	LABEL	01520	Pstat Serial Number
CTRLMODE	IQUANT	0	Control Mode
ELECTROMETER	IQUANT	1	RE=0 or CS=1
IESTAB	IQUANT	0	I/E Stability
CASPEED	IQUANT	4	Control Amp Speed
CONVENTION	IQUANT	1	Current Convention
ICHRANGE	IQUANT	2	Ich Range
ICHRANGEMODE	TOGGLE	T	Ich Auto Range
ICHOFFSETENABLE	TOGGLE	F	Ich Offset Enable
ICHOFFSET	QUANT	0	Ich Offset (V)
ICHFILTER	IQUANT	1	Ich Filter
VCHRANGE	IQUANT	2	Vch Range
VCHRANGEMODE	TOGGLE	T	Vch Auto Range
VCHOFFSETENABLE	TOGGLE	F	Vch Offset Enable
VCHOFFSET	QUANT	0	Vch Offset (V)
VCHFILTER	IQUANT	1	Vch Filter
IERANGELOWERLIMIT	IQUANT	9	I/E Range Lower Limit
IERANGEMODE	TOGGLE	F	I/E AutoRange
IERANGE	IQUANT	9	I/E Range
ACHSELECT	IQUANT	1	Ach Select
ACHRANGE	IQUANT	2	Ach Range
ACHOFFSETENABLE	TOGGLE	F	Ach Offset Enable
ACHOFFSET	QUANT	0	Ach Offset (V)
ACHFILTER	IQUANT	1	Ach Filter
CABLEID	IQUANT	14	Cable ID
DCCALDATE	LABEL	5-7-2017	DC Calibration Date
ACCALDATE	LABEL	12/3/2015	AC Calibration Date
FRAMEWORKVERSION	QUANT	7.01	Framework Version
INSTRUMENTVERSION	LABEL	4.00	Instrument Version
CURVE	TABLE	94
	Pt	T	Vf	Im	Vu	Pwr	Sig	Ach	Temp	IERange	Over
	#	s	V	A	V	W	V	V	deg C	#	bits
	0	0.013333	8.59809E-001	-9.92729E-005	0.00000E+000	-8.53558E-005	-5.99601E-002	8.60163E-001	3.57950E+000	9	...........
	1	0.026667	8.47483E-001	-9.94146E-005	0.00000E+000	-8.42522E-005	-5.99601E-002	8.47821E-001	3.57950E+000	9	...........
	2	0.04	8.35872E-001	-9.93635E-005	0.00000E+000	-8.30552E-005	-5.99601E-002	8.36208E-001	3.57950E+000	9	...........
	3	0.053333	8.24850E-001	-9.97345E-005	0.00000E+000	-8.22660E-005	-5.99601E-002	8.25158E-001	3.57950E+000	9	...........
	4	0.066667	8.14172E-001	-9.89270E-005	0.00000E+000	-8.05436E-005	-5.99601E-002	8.14471E-001	3.57950E+000	9	...........
	5	0.08	8.03855E-001	-9.86790E-005	0.00000E+000	-7.93236E-005	-5.99601E-002	8.04123E-001	3.57950E+000	9	...........
	6	0.093333	7.93691E-001	-9.84925E-005	0.00000E+000	-7.81726E-005	-5.99601E-002	7.93985E-001	3.57950E+000	9	...........
	7	0.106667	7.83716E-001	-9.84821E-005	0.00000E+000	-7.71820E-005	-5.99601E-002	7.84004E-001	3.57950E+000	9	...........
	8	0.12	7.73870E-001	-9.95157E-005	0.00000E+000	-7.70122E-005	-5.99601E-002	7.74167E-001	3.57950E+000	9	...........
	9	0.133333	7.64139E-001	-9.90239E-005	0.00000E+000	-7.56680E-005	-5.99601E-002	7.64444E-001	3.57950E+000	9	...........
	10	0.146667	7.54502E-001	-9.89447E-005	0.00000E+000	-7.46539E-005	-5.99601E-002	7.54801E-001	3.57950E+000	9	...........
	11	0.16	7.44907E-001	-9.88905E-005	0.00000E+000	-7.36642E-005	-5.99601E-002	7.45195E-001	3.57950E+000	9	...........
	12	0.173333	7.35372E-001	-9.94917E-005	0.00000E+000	-7.31634E-005	-5.99601E-002	7.35646E-001	3.57950E+000	9	...........
	13	0.186667	7.25906E-001	-9.99064E-005	0.00000E+000	-7.25226E-005	-5.99601E-002	7.26159E-001	3.57950E+000	9	...........
	14	0.2	7.16431E-001	-9.94292E-005	0.00000E+000	-7.12342E-005	-5.99601E-002	7.16694E-001	3.57950E+000	9	...........
	15	0.213333	7.06999E-001	-9.93896E-005	0.00000E+000	-7.02683E-005	-5.99601E-002	7.07220E-001	3.57950E+000	9	...........
	16	0.226667	6.97573E-001	-9.86363E-005	0.00000E+000	-6.88060E-005	-5.99601E-002	6.97792E-001	3.57950E+000	9	...........
	17	0.24	6.88150E-001	-9.89572E-005	0.00000E+000	-6.80974E-005	-5.99601E-002	6.88387E-001	3.57950E+000	9	...........
	18	0.253333	6.78766E-001	-9.87019E-005	0.00000E+000	-6.69955E-005	-5.99601E-002	6.78975E-001	3.57950E+000	9	...........
	19	0.266667	6.69359E-001	-9.81998E-005	0.00000E+000	-6.57309E-005	-5.99601E-002	6.69615E-001	3.57950E+000	9	...........
	20	0.28	6.59947E-001	-9.82581E-005	0.00000E+000	-6.48451E-005	-5.99601E-002	6.60207E-001	3.57950E+000	9	...........
	21	0.293333	6.50556E-001	-9.87145E-005	0.00000E+000	-6.42192E-005	-5.99601E-002	6.50823E-001	3.57950E+000	9	...........
	22	0.306667	6.41156E-001	-9.98647E-005	0.00000E+000	-6.40288E-005	-5.99601E-002	6.41432E-001	3.57950E+000	9	...........
	23	0.32	6.31739E-001	-9.85436E-005	0.00000E+000	-6.22538E-005	-5.99601E-002	6.32017E-001	3.57910E+000	9	...........
	24	0.333333	6.22361E-001	-9.89187E-005	0.00000E+000	-6.15632E-005	-5.99601E-002	6.22619E-001	3.57870E+000	9	...........
	25	0.346667	6.12902E-001	-9.83748E-005	0.00000E+000	-6.02941E-005	-5.99601E-002	6.13197E-001	3.57870E+000	9	...........
	26	0.36	6.03480E-001	-9.89739E-005	0.00000E+000	-5.97287E-005	-5.99601E-002	6.03778E-001	3.57870E+000	9	...........
	27	0.373333	5.94057E-001	-9.81716E-005	0.00000E+000	-5.83196E-005	-5.99601E-002	5.94327E-001	3.57870E+000	9	...........
	28	0.386667	5.84620E-001	-9.84488E-005	0.00000E+000	-5.75551E-005	-5.99601E-002	5.84886E-001	3.57870E+000	9	...........
	29	0.4	5.75207E-001	-9.92594E-005	0.00000E+000	-5.70946E-005	-5.99601E-002	5.75436E-001	3.57870E+000	9	...........
	30	0.413333	5.65754E-001	-9.87634E-005	0.00000E+000	-5.58758E-005	-5.99601E-002	5.65993E-001	3.57870E+000	9	...........
	31	0.426667	5.56282E-001	-9.76028E-005	0.00000E+000	-5.42947E-005	-5.99601E-002	5.56532E-001	3.57870E+000	9	...........
	32	0.44	5.46846E-001	-9.80539E-005	0.00000E+000	-5.36204E-005	-5.99601E-002	5.47077E-001	3.57870E+000	9	...........
	33	0.453333	5.37405E-001	-9.89968E-005	0.00000E+000	-5.32014E-005	-5.99601E-002	5.37629E-001	3.57870E+000	9	...........
	34	0.466667	5.27905E-001	-9.79653E-005	0.00000E+000	-5.17164E-005	-5.99601E-002	5.28179E-001	3.57870E+000	9	...........
	35	0.48	5.18466E-001	-9.87009E-005	0.00000E+000	-5.11730E-005	-5.99601E-002	5.18701E-001	3.57870E+000	9	...........
	36	0.493333	5.08987E-001	-9.88864E-005	0.00000E+000	-5.03319E-005	-5.99601E-002	5.09250E-001	3.57870E+000	9	...........
	37	0.506667	4.99506E-001	-9.89270E-005	0.00000E+000	-4.94146E-005	-5.99601E-002	4.99770E-001	3.57870E+000	9	...........
	38	0.52	4.90075E-001	-9.87436E-005	0.00000E+000	-4.83918E-005	-5.99601E-002	4.90306E-001	3.57870E+000	9	...........
	39	0.533333	4.80926E-001	-9.83342E-005	0.00000E+000	-4.72915E-005	-5.99601E-002	4.81062E-001	3.57870E+000	9	...........
	40	0.546667	4.71534E-001	-9.86134E-005	0.00000E+000	-4.64996E-005	-5.99601E-002	4.71634E-001	3.57870E+000	9	...........
	41	0.56	4.62089E-001	-9.85446E-005	0.00000E+000	-4.55364E-005	-5.99601E-002	4.62193E-001	3.57870E+000	9	...........
	42	0.573333	4.52657E-001	-9.89103E-005	0.00000E+000	-4.47725E-005	-5.99601E-002	4.52751E-001	3.57870E+000	9	...........
	43	0.586667	4.43233E-001	-9.87613E-005	0.00000E+000	-4.37742E-005	-5.99601E-002	4.43328E-001	3.57870E+000	9	...........
	44	0.6	4.33818E-001	-9.89499E-005	0.00000E+000	-4.29263E-005	-5.99601E-002	4.33912E-001	3.57870E+000	9	...........
	45	0.613333	4.24418E-001	-9.88739E-005	0.00000E+000	-4.19639E-005	-5.99601E-002	4.24508E-001	3.57870E+000	9	...........
	46	0.626667	4.15021E-001	-1.00709E-004	0.00000E+000	-4.17962E-005	-5.99601E-002	4.15114E-001	3.57870E+000	9	...........
	47	0.64	4.05649E-001	-9.83998E-005	0.00000E+000	-3.99158E-005	-5.99601E-002	4.05730E-001	3.57870E+000	9	...........
	48	0.653333	3.96280E-001	-9.81320E-005	0.00000E+000	-3.88878E-005	-5.99601E-002	3.96361E-001	3.57870E+000	9	...........
	49	0.666667	3.86929E-001	-9.81643E-005	0.00000E+000	-3.79826E-005	-5.99601E-002	3.87005E-001	3.57870E+000	9	...........
	50	0.68	3.77591E-001	-9.97813E-005	0.00000E+000	-3.76765E-005	-5.99601E-002	3.77661E-001	3.57870E+000	9	...........
	51	0.693333	3.68264E-001	-9.90447E-005	0.00000E+000	-3.64746E-005	-5.99601E-002	3.68337E-001	3.57870E+000	9	...........
	52	0.706667	3.58953E-001	-9.79112E-005	0.00000E+000	-3.51455E-005	-5.99601E-002	3.59027E-001	3.57870E+000	9	...........
	53	0.72	3.49659E-001	-9.91864E-005	0.00000E+000	-3.46814E-005	-5.99601E-002	3.49727E-001	3.57870E+000	9	...........
	54	0.733333	3.40377E-001	-9.96105E-005	0.00000E+000	-3.39051E-005	-5.99601E-002	3.40445E-001	3.57870E+000	9	...........
	55	0.746667	3.31113E-001	-9.91218E-005	0.00000E+000	-3.28205E-005	-5.99601E-002	3.31175E-001	3.57870E+000	9	...........
	56	0.76	3.21859E-001	-9.85384E-005	0.00000E+000	-3.17154E-005	-5.99601E-002	3.21928E-001	3.57870E+000	9	...........
	57	0.773333	3.12626E-001	-9.84623E-005	0.00000E+000	-3.07819E-005	-5.99601E-002	3.12683E-001	3.57870E+000	9	...........
	58	0.786667	3.03395E-001	-9.94761E-005	0.00000E+000	-3.01806E-005	-5.99601E-002	3.03453E-001	3.57870E+000	9	...........
	59	0.8	2.94181E-001	-9.84936E-005	0.00000E+000	-2.89750E-005	-5.99601E-002	2.94241E-001	3.57870E+000	9	...........
	60	0.813333	2.84981E-001	-9.92573E-005	0.00000E+000	-2.82864E-005	-5.99601E-002	2.85036E-001	3.57870E+000	9	...........
	61	0.826667	2.75793E-001	-9.89551E-005	0.00000E+000	-2.72912E-005	-5.99601E-002	2.75846E-001	3.57870E+000	9	...........
	62	0.84	2.66615E-001	-9.77736E-005	0.00000E+000	-2.60679E-005	-5.99601E-002	2.66668E-001	3.57870E+000	9	...........
	63	0.853333	2.57455E-001	-9.82477E-005	0.00000E+000	-2.52944E-005	-5.99601E-002	2.57509E-001	3.57870E+000	9	...........
	64	0.866667	2.48315E-001	-9.87530E-005	0.00000E+000	-2.45218E-005	-5.99601E-002	2.48360E-001	3.57870E+000	9	...........
	65	0.88	2.39194E-001	-9.84342E-005	0.00000E+000	-2.35449E-005	-5.99601E-002	2.39237E-001	3.57870E+000	9	...........
	66	0.893333	2.30085E-001	-9.81737E-005	0.00000E+000	-2.25883E-005	-5.99601E-002	2.30126E-001	3.57870E+000	9	...........
	67	0.906667	2.20991E-001	-9.87988E-005	0.00000E+000	-2.18336E-005	-5.99601E-002	2.21024E-001	3.57870E+000	9	...........
	68	0.92	2.11913E-001	-9.85498E-005	0.00000E+000	-2.08840E-005	-5.99601E-002	2.11948E-001	3.57870E+000	9	...........
	69	0.933333	2.02859E-001	-9.82466E-005	0.00000E+000	-1.99303E-005	-5.99601E-002	2.02897E-001	3.57870E+000	9	...........
	70	0.946667	1.93821E-001	-9.81289E-005	0.00000E+000	-1.90195E-005	-5.99601E-002	1.93861E-001	3.57870E+000	9	...........
	71	0.96	1.84811E-001	-9.84029E-005	0.00000E+000	-1.81859E-005	-5.99601E-002	1.84844E-001	3.57870E+000	9	...........
	72	0.97333	1.75820E-001	-9.77497E-005	0.00000E+000	-1.71863E-005	-5.99601E-002	1.75849E-001	3.57870E+000	9	...........
	73	0.98667	1.66860E-001	-9.93042E-005	0.00000E+000	-1.65699E-005	-5.99601E-002	1.66887E-001	3.57870E+000	9	...........
	74	1	1.57942E-001	-9.84675E-005	0.00000E+000	-1.55522E-005	-5.99601E-002	1.57958E-001	3.57870E+000	9	...........
	75	1.01333	1.49040E-001	-9.80549E-005	0.00000E+000	-1.46141E-005	-5.99601E-002	1.49061E-001	3.57870E+000	9	...........
	76	1.02667	1.40174E-001	-9.86082E-005	0.00000E+000	-1.38223E-005	-5.99601E-002	1.40192E-001	3.57870E+000	9	...........
	77	1.04	1.31347E-001	-9.91948E-005	0.00000E+000	-1.30290E-005	-5.99601E-002	1.31363E-001	3.57870E+000	9	...........
	78	1.05333	1.22562E-001	-9.89166E-005	0.00000E+000	-1.21234E-005	-5.99601E-002	1.22579E-001	3.57870E+000	9	...........
	79	1.06667	1.13816E-001	-9.87030E-005	0.00000E+000	-1.12339E-005	-5.99601E-002	1.13831E-001	3.57870E+000	9	...........
	80	1.08	1.05122E-001	-9.91354E-005	0.00000E+000	-1.04213E-005	-5.99601E-002	1.05136E-001	3.57870E+000	9	...........
	81	1.09333	9.64778E-002	-9.82487E-005	0.00000E+000	-9.47883E-006	-5.99601E-002	9.64880E-002	3.57870E+000	9	...........
	82	1.10667	8.78803E-002	-9.82591E-005	0.00000E+000	-8.63504E-006	-5.99601E-002	8.78901E-002	3.57870E+000	9	...........
	83	1.12	7.93472E-002	-9.87999E-005	0.00000E+000	-7.83949E-006	-5.99601E-002	7.93483E-002	3.57870E+000	9	...........
	84	1.13333	7.08661E-002	-9.90854E-005	0.00000E+000	-7.02179E-006	-5.99601E-002	7.08704E-002	3.57870E+000	9	...........
	85	1.14667	6.24517E-002	-9.89228E-005	0.00000E+000	-6.17790E-006	-5.99601E-002	6.24452E-002	3.57870E+000	9	...........
	86	1.16	5.40929E-002	-9.91177E-005	0.00000E+000	-5.36156E-006	-5.99601E-002	5.40912E-002	3.57870E+000	9	...........
	87	1.17333	4.58321E-002	-9.82414E-005	0.00000E+000	-4.50261E-006	-5.99601E-002	4.58301E-002	3.57870E+000	9	...........
	88	1.18667	3.76140E-002	-1.00236E-004	0.00000E+000	-3.77026E-006	-5.99601E-002	3.76065E-002	3.57870E+000	9	...........
	89	1.2	2.94557E-002	-9.88207E-005	0.00000E+000	-2.91083E-006	-5.99601E-002	2.94383E-002	3.57870E+000	9	...........
	90	1.21333	2.13624E-002	-9.86051E-005	0.00000E+000	-2.10644E-006	-5.99601E-002	2.13391E-002	3.57870E+000	9	...........
	91	1.22667	1.33235E-002	-9.95365E-005	0.00000E+000	-1.32618E-006	-5.99601E-002	1.33007E-002	3.57870E+000	9	...........
	92	1.24	5.36175E-003	-9.86738E-005	0.00000E+000	-5.29064E-007	-5.99601E-002	5.32639E-003	3.57870E+000	9	...........
	93	1.24333	4.10418E-004	-1.00473E-004	0.00000E+000	-4.12360E-008	-5.99601E-002	3.74767E-004	3.57870E+000	9	...........
STARTTIMEOFFSET	QUANT	57.86	Start Time Offset (s)
