EXPLAIN
TAG	PWR800_DISCHARGE
TITLE	LABEL	PWR Cyclic Charge Discharge (Cell) - Discharge Step	Test &Identifier
DATE	LABEL	13-7-2017	Date
TIME	LABEL	15:22:35	Time
NOTES	NOTES	2	&Notes...
	supercap test cell
	6M KOH
PSTAT	PSTAT	IFC5000-01520	Potentiostat
CAPACITY	QUANT	1.00000E-003	Capacity (A-hr)
CELLTYPE	SELECTOR	1	&Cell Type
WORKINGCONNECTION	SELECTOR	0	&Working Lead
MAXDISCHARGETIME	VARIABLEANDUNITS	1.00000E+002	s	1.00000E+002	second(s)	Max &Discharge Time
DISCHARGEMODE	MULTIPARAM	0	1.00000E-004	&Discharge Mode	Constant Current	Amp(s)
SAMPLETIME	QUANT	1.00000E-002	Sa&mple Period (s)
DISCHARGESTOPAT1	MULTIPARAM	3	0.00000E+000	Discharge Stop At &1	Voltage < Limit	V
DISCHARGESTOPAT2	MULTIPARAM	0	0.00000E+000	Discharge Stop At &2	None	N/A
AESBHCSELECTOR	TOGGLE	F	Save Both Half Cells
IRCOMP	TOGGLE	F	IR &Measure
EOC	QUANT	0	Open Circuit (V)
SEQUENCER	TOGGLE	TRUE	Run as Sequence
PSTATMODEL	IQUANT	53	Pstat Model
PSTATSECTION	LABEL	IFC5000-01520	Pstat Section
PSTATSERIALNO	LABEL	01520	Pstat Serial Number
CTRLMODE	IQUANT	0	Control Mode
ELECTROMETER	IQUANT	1	RE=0 or CS=1
IESTAB	IQUANT	0	I/E Stability
CASPEED	IQUANT	4	Control Amp Speed
CONVENTION	IQUANT	1	Current Convention
ICHRANGE	IQUANT	2	Ich Range
ICHRANGEMODE	TOGGLE	T	Ich Auto Range
ICHOFFSETENABLE	TOGGLE	F	Ich Offset Enable
ICHOFFSET	QUANT	0	Ich Offset (V)
ICHFILTER	IQUANT	1	Ich Filter
VCHRANGE	IQUANT	2	Vch Range
VCHRANGEMODE	TOGGLE	T	Vch Auto Range
VCHOFFSETENABLE	TOGGLE	F	Vch Offset Enable
VCHOFFSET	QUANT	0	Vch Offset (V)
VCHFILTER	IQUANT	1	Vch Filter
IERANGELOWERLIMIT	IQUANT	9	I/E Range Lower Limit
IERANGEMODE	TOGGLE	F	I/E AutoRange
IERANGE	IQUANT	9	I/E Range
ACHSELECT	IQUANT	1	Ach Select
ACHRANGE	IQUANT	2	Ach Range
ACHOFFSETENABLE	TOGGLE	F	Ach Offset Enable
ACHOFFSET	QUANT	0	Ach Offset (V)
ACHFILTER	IQUANT	1	Ach Filter
CABLEID	IQUANT	14	Cable ID
DCCALDATE	LABEL	5-7-2017	DC Calibration Date
ACCALDATE	LABEL	12/3/2015	AC Calibration Date
FRAMEWORKVERSION	QUANT	7.01	Framework Version
INSTRUMENTVERSION	LABEL	4.00	Instrument Version
CURVE	TABLE	89
	Pt	T	Vf	Im	Vu	Pwr	Sig	Ach	Temp	IERange	Over
	#	s	V	A	V	W	V	V	deg C	#	bits
	0	0.013333	8.48590E-001	-9.86134E-005	0.00000E+000	-8.36823E-005	-5.99601E-002	8.48893E-001	3.57900E+000	9	...........
	1	0.026667	8.34825E-001	-9.92041E-005	0.00000E+000	-8.28181E-005	-5.99601E-002	8.35150E-001	3.57900E+000	9	...........
	2	0.04	8.21925E-001	-9.98178E-005	0.00000E+000	-8.20428E-005	-5.99601E-002	8.22227E-001	3.57900E+000	9	...........
	3	0.053333	8.09573E-001	-9.92500E-005	0.00000E+000	-8.03501E-005	-5.99601E-002	8.09883E-001	3.57900E+000	9	...........
	4	0.066667	7.97656E-001	-9.92708E-005	0.00000E+000	-7.91840E-005	-5.99601E-002	7.97957E-001	3.57900E+000	9	...........
	5	0.08	7.86003E-001	-9.86165E-005	0.00000E+000	-7.75129E-005	-5.99601E-002	7.86297E-001	3.57900E+000	9	...........
	6	0.093333	7.74559E-001	-9.94354E-005	0.00000E+000	-7.70186E-005	-5.99601E-002	7.74876E-001	3.57900E+000	9	...........
	7	0.106667	7.63302E-001	-9.83321E-005	0.00000E+000	-7.50571E-005	-5.99601E-002	7.63610E-001	3.57900E+000	9	...........
	8	0.12	7.52172E-001	-9.86947E-005	0.00000E+000	-7.42354E-005	-5.99601E-002	7.52449E-001	3.57900E+000	9	...........
	9	0.133333	7.41142E-001	-9.89239E-005	0.00000E+000	-7.33166E-005	-5.99601E-002	7.41388E-001	3.57900E+000	9	...........
	10	0.146667	7.30141E-001	-9.87322E-005	0.00000E+000	-7.20884E-005	-5.99601E-002	7.30381E-001	3.57900E+000	9	...........
	11	0.16	7.19260E-001	-9.94771E-005	0.00000E+000	-7.15499E-005	-5.99601E-002	7.19476E-001	3.57900E+000	9	...........
	12	0.173333	7.08357E-001	-9.86780E-005	0.00000E+000	-6.98992E-005	-5.99601E-002	7.08611E-001	3.57900E+000	9	...........
	13	0.186667	6.97538E-001	-9.86613E-005	0.00000E+000	-6.88200E-005	-5.99601E-002	6.97774E-001	3.57900E+000	9	...........
	14	0.2	6.86714E-001	-9.91020E-005	0.00000E+000	-6.80547E-005	-5.99601E-002	6.86974E-001	3.57900E+000	9	...........
	15	0.213333	6.75993E-001	-9.89395E-005	0.00000E+000	-6.68824E-005	-5.99601E-002	6.76219E-001	3.57900E+000	9	...........
	16	0.226667	6.65219E-001	-9.90447E-005	0.00000E+000	-6.58864E-005	-5.99601E-002	6.65478E-001	3.57900E+000	9	...........
	17	0.24	6.54477E-001	-9.86082E-005	0.00000E+000	-6.45368E-005	-5.99601E-002	6.54742E-001	3.57900E+000	9	...........
	18	0.253333	6.43738E-001	-9.84331E-005	0.00000E+000	-6.33652E-005	-5.99601E-002	6.44017E-001	3.57900E+000	9	...........
	19	0.266667	6.33028E-001	-9.85425E-005	0.00000E+000	-6.23802E-005	-5.99601E-002	6.33277E-001	3.57900E+000	9	...........
	20	0.28	6.22350E-001	-9.87624E-005	0.00000E+000	-6.14648E-005	-5.99601E-002	6.22599E-001	3.57900E+000	9	...........
	21	0.293333	6.11619E-001	-9.86853E-005	0.00000E+000	-6.03578E-005	-5.99601E-002	6.11938E-001	3.57900E+000	9	...........
	22	0.306667	6.00962E-001	-9.78716E-005	0.00000E+000	-5.88171E-005	-5.99601E-002	6.01257E-001	3.57900E+000	9	...........
	23	0.32	5.90313E-001	-9.90666E-005	0.00000E+000	-5.84803E-005	-5.99601E-002	5.90588E-001	3.57900E+000	9	...........
	24	0.333333	5.79677E-001	-9.88874E-005	0.00000E+000	-5.73227E-005	-5.99601E-002	5.79948E-001	3.57900E+000	9	...........
	25	0.346667	5.69080E-001	-9.99418E-005	0.00000E+000	-5.68749E-005	-5.99601E-002	5.69318E-001	3.57900E+000	9	...........
	26	0.36	5.58463E-001	-9.89239E-005	0.00000E+000	-5.52453E-005	-5.99601E-002	5.58731E-001	3.57900E+000	9	...........
	27	0.373333	5.47924E-001	-9.86280E-005	0.00000E+000	-5.40406E-005	-5.99601E-002	5.48135E-001	3.57900E+000	9	...........
	28	0.386667	5.37385E-001	-9.95834E-005	0.00000E+000	-5.35146E-005	-5.99601E-002	5.37602E-001	3.57900E+000	9	...........
	29	0.4	5.26887E-001	-9.94198E-005	0.00000E+000	-5.23830E-005	-5.99601E-002	5.27101E-001	3.57900E+000	9	...........
	30	0.413333	5.16429E-001	-9.93823E-005	0.00000E+000	-5.13239E-005	-5.99601E-002	5.16659E-001	3.57900E+000	9	...........
	31	0.426667	5.05941E-001	-9.93844E-005	0.00000E+000	-5.02826E-005	-5.99601E-002	5.06236E-001	3.57900E+000	9	...........
	32	0.44	4.95611E-001	-9.97720E-005	0.00000E+000	-4.94481E-005	-5.99601E-002	4.95851E-001	3.57900E+000	9	...........
	33	0.453333	4.85419E-001	-9.79768E-005	0.00000E+000	-4.75598E-005	-5.99601E-002	4.85611E-001	3.57900E+000	9	...........
	34	0.466667	4.75361E-001	-9.94292E-005	0.00000E+000	-4.72647E-005	-5.99601E-002	4.75458E-001	3.57900E+000	9	...........
	35	0.48	4.65118E-001	-9.92614E-005	0.00000E+000	-4.61683E-005	-5.99601E-002	4.65217E-001	3.57900E+000	9	...........
	36	0.493333	4.54932E-001	-9.83019E-005	0.00000E+000	-4.47206E-005	-5.99601E-002	4.55028E-001	3.57900E+000	9	...........
	37	0.506667	4.44794E-001	-9.94417E-005	0.00000E+000	-4.42311E-005	-5.99601E-002	4.44892E-001	3.57900E+000	9	...........
	38	0.52	4.34721E-001	-9.92583E-005	0.00000E+000	-4.31497E-005	-5.99601E-002	4.34811E-001	3.57900E+000	9	...........
	39	0.533333	4.24694E-001	-9.85405E-005	0.00000E+000	-4.18496E-005	-5.99601E-002	4.24784E-001	3.57900E+000	9	...........
	40	0.546667	4.14732E-001	-9.82425E-005	0.00000E+000	-4.07443E-005	-5.99601E-002	4.14818E-001	3.57900E+000	9	...........
	41	0.56	4.04826E-001	-9.95657E-005	0.00000E+000	-4.03068E-005	-5.99601E-002	4.04913E-001	3.57900E+000	9	...........
	42	0.573333	3.94968E-001	-9.88853E-005	0.00000E+000	-3.90565E-005	-5.99601E-002	3.95055E-001	3.57900E+000	9	...........
	43	0.586667	3.85173E-001	-9.88093E-005	0.00000E+000	-3.80586E-005	-5.99601E-002	3.85249E-001	3.57900E+000	9	...........
	44	0.6	3.75424E-001	-9.85623E-005	0.00000E+000	-3.70027E-005	-5.99601E-002	3.75501E-001	3.57900E+000	9	...........
	45	0.613333	3.65734E-001	-9.78382E-005	0.00000E+000	-3.57828E-005	-5.99601E-002	3.65811E-001	3.57900E+000	9	...........
	46	0.626667	3.56105E-001	-9.95813E-005	0.00000E+000	-3.54614E-005	-5.99601E-002	3.56169E-001	3.57900E+000	9	...........
	47	0.64	3.46517E-001	-9.87311E-005	0.00000E+000	-3.42120E-005	-5.99601E-002	3.46588E-001	3.57900E+000	9	...........
	48	0.653333	3.36992E-001	-9.91802E-005	0.00000E+000	-3.34230E-005	-5.99601E-002	3.37058E-001	3.57900E+000	9	...........
	49	0.666667	3.27513E-001	-9.93844E-005	0.00000E+000	-3.25497E-005	-5.99601E-002	3.27576E-001	3.57900E+000	9	...........
	50	0.68	3.18087E-001	-9.82143E-005	0.00000E+000	-3.12407E-005	-5.99601E-002	3.18148E-001	3.57900E+000	9	...........
	51	0.693333	3.08704E-001	-9.94177E-005	0.00000E+000	-3.06907E-005	-5.99601E-002	3.08764E-001	3.57900E+000	9	...........
	52	0.706667	2.99370E-001	-9.83810E-005	0.00000E+000	-2.94524E-005	-5.99601E-002	2.99431E-001	3.57900E+000	9	...........
	53	0.72	2.90083E-001	-9.81675E-005	0.00000E+000	-2.84768E-005	-5.99601E-002	2.90142E-001	3.57900E+000	9	...........
	54	0.733333	2.80842E-001	-9.86603E-005	0.00000E+000	-2.77080E-005	-5.99601E-002	2.80894E-001	3.57900E+000	9	...........
	55	0.746667	2.71641E-001	-9.87478E-005	0.00000E+000	-2.68239E-005	-5.99601E-002	2.71696E-001	3.57900E+000	9	...........
	56	0.76	2.62481E-001	-9.88759E-005	0.00000E+000	-2.59531E-005	-5.99601E-002	2.62532E-001	3.57900E+000	9	...........
	57	0.773333	2.53366E-001	-9.92062E-005	0.00000E+000	-2.51355E-005	-5.99601E-002	2.53415E-001	3.57900E+000	9	...........
	58	0.786667	2.44299E-001	-9.88968E-005	0.00000E+000	-2.41603E-005	-5.99601E-002	2.44343E-001	3.57900E+000	9	...........
	59	0.8	2.35273E-001	-9.90114E-005	0.00000E+000	-2.32947E-005	-5.99601E-002	2.35314E-001	3.57900E+000	9	...........
	60	0.813333	2.26287E-001	-9.82935E-005	0.00000E+000	-2.22426E-005	-5.99601E-002	2.26322E-001	3.57900E+000	9	...........
	61	0.826667	2.17340E-001	-9.93031E-005	0.00000E+000	-2.15825E-005	-5.99601E-002	2.17373E-001	3.57900E+000	9	...........
	62	0.84	2.08444E-001	-9.83644E-005	0.00000E+000	-2.05035E-005	-5.99601E-002	2.08477E-001	3.57900E+000	9	...........
	63	0.853333	1.99586E-001	-9.87874E-005	0.00000E+000	-1.97165E-005	-5.99601E-002	1.99619E-001	3.57900E+000	9	...........
	64	0.866667	1.90782E-001	-9.84654E-005	0.00000E+000	-1.87855E-005	-5.99601E-002	1.90821E-001	3.57900E+000	9	...........
	65	0.88	1.82028E-001	-9.81716E-005	0.00000E+000	-1.78700E-005	-5.99601E-002	1.82063E-001	3.57900E+000	9	...........
	66	0.893333	1.73327E-001	-9.94740E-005	0.00000E+000	-1.72415E-005	-5.99601E-002	1.73358E-001	3.57900E+000	9	...........
	67	0.906667	1.64686E-001	-9.92854E-005	0.00000E+000	-1.63509E-005	-5.99601E-002	1.64711E-001	3.57900E+000	9	...........
	68	0.92	1.56102E-001	-9.93531E-005	0.00000E+000	-1.55092E-005	-5.99601E-002	1.56121E-001	3.57900E+000	9	...........
	69	0.933333	1.47586E-001	-9.84550E-005	0.00000E+000	-1.45305E-005	-5.99601E-002	1.47596E-001	3.57900E+000	9	...........
	70	0.946667	1.39125E-001	-9.80508E-005	0.00000E+000	-1.36413E-005	-5.99601E-002	1.39134E-001	3.57900E+000	9	...........
	71	0.96	1.30722E-001	-9.84811E-005	0.00000E+000	-1.28736E-005	-5.99601E-002	1.30729E-001	3.57900E+000	9	...........
	72	0.97333	1.22388E-001	-9.84352E-005	0.00000E+000	-1.20473E-005	-5.99601E-002	1.22398E-001	3.57900E+000	9	...........
	73	0.98667	1.14125E-001	-9.88832E-005	0.00000E+000	-1.12850E-005	-5.99601E-002	1.14135E-001	3.57900E+000	9	...........
	74	1	1.05929E-001	-9.83019E-005	0.00000E+000	-1.04130E-005	-5.99601E-002	1.05939E-001	3.57900E+000	9	...........
	75	1.01333	9.78050E-002	-9.89947E-005	0.00000E+000	-9.68218E-006	-5.99601E-002	9.78121E-002	3.57900E+000	9	...........
	76	1.02667	8.97529E-002	-9.90635E-005	0.00000E+000	-8.89124E-006	-5.99601E-002	8.97625E-002	3.57900E+000	9	...........
	77	1.04	8.17739E-002	-9.90062E-005	0.00000E+000	-8.09613E-006	-5.99601E-002	8.17783E-002	3.57900E+000	9	...........
	78	1.05333	7.38626E-002	-9.90479E-005	0.00000E+000	-7.31593E-006	-5.99601E-002	7.38645E-002	3.57900E+000	9	...........
	79	1.06667	6.60219E-002	-9.85332E-005	0.00000E+000	-6.50535E-006	-5.99601E-002	6.60180E-002	3.57900E+000	9	...........
	80	1.08	5.82384E-002	-9.93615E-005	0.00000E+000	-5.78666E-006	-5.99601E-002	5.82320E-002	3.57900E+000	9	...........
	81	1.09333	5.05343E-002	-9.93000E-005	0.00000E+000	-5.01805E-006	-5.99601E-002	5.05270E-002	3.57900E+000	9	...........
	82	1.10667	4.29228E-002	-9.88749E-005	0.00000E+000	-4.24399E-006	-5.99601E-002	4.29167E-002	3.57900E+000	9	...........
	83	1.12	3.53420E-002	-9.82591E-005	0.00000E+000	-3.47267E-006	-5.99601E-002	3.53319E-002	3.57900E+000	9	...........
	84	1.13333	2.78275E-002	-9.91333E-005	0.00000E+000	-2.75863E-006	-5.99601E-002	2.78081E-002	3.57900E+000	9	...........
	85	1.14667	2.03745E-002	-9.93875E-005	0.00000E+000	-2.02497E-006	-5.99601E-002	2.03526E-002	3.57900E+000	9	...........
	86	1.16	1.29875E-002	-9.90447E-005	0.00000E+000	-1.28634E-006	-5.99601E-002	1.29617E-002	3.57900E+000	9	...........
	87	1.17333	5.66960E-003	-9.86134E-005	0.00000E+000	-5.59099E-007	-5.99601E-002	5.63887E-003	3.57900E+000	9	...........
	88	1.17833	6.73541E-004	-1.00186E-004	0.00000E+000	-6.74791E-008	-5.99601E-002	6.33934E-004	3.57900E+000	9	...........
STARTTIMEOFFSET	QUANT	931.0053	Start Time Offset (s)
