EXPLAIN
TAG	PWR800_DISCHARGE
TITLE	LABEL	PWR Cyclic Charge Discharge (Cell) - Discharge Step	Test &Identifier
DATE	LABEL	13-7-2017	Date
TIME	LABEL	15:49:12	Time
NOTES	NOTES	2	&Notes...
	supercap test cell
	6M KOH
PSTAT	PSTAT	IFC5000-01520	Potentiostat
CAPACITY	QUANT	1.00000E-003	Capacity (A-hr)
CELLTYPE	SELECTOR	1	&Cell Type
WORKINGCONNECTION	SELECTOR	0	&Working Lead
MAXDISCHARGETIME	VARIABLEANDUNITS	1.00000E+002	s	1.00000E+002	second(s)	Max &Discharge Time
DISCHARGEMODE	MULTIPARAM	0	1.00000E-004	&Discharge Mode	Constant Current	Amp(s)
SAMPLETIME	QUANT	1.00000E-002	Sa&mple Period (s)
DISCHARGESTOPAT1	MULTIPARAM	3	0.00000E+000	Discharge Stop At &1	Voltage < Limit	V
DISCHARGESTOPAT2	MULTIPARAM	0	0.00000E+000	Discharge Stop At &2	None	N/A
AESBHCSELECTOR	TOGGLE	F	Save Both Half Cells
IRCOMP	TOGGLE	F	IR &Measure
EOC	QUANT	0	Open Circuit (V)
SEQUENCER	TOGGLE	TRUE	Run as Sequence
PSTATMODEL	IQUANT	53	Pstat Model
PSTATSECTION	LABEL	IFC5000-01520	Pstat Section
PSTATSERIALNO	LABEL	01520	Pstat Serial Number
CTRLMODE	IQUANT	0	Control Mode
ELECTROMETER	IQUANT	1	RE=0 or CS=1
IESTAB	IQUANT	0	I/E Stability
CASPEED	IQUANT	4	Control Amp Speed
CONVENTION	IQUANT	1	Current Convention
ICHRANGE	IQUANT	2	Ich Range
ICHRANGEMODE	TOGGLE	T	Ich Auto Range
ICHOFFSETENABLE	TOGGLE	F	Ich Offset Enable
ICHOFFSET	QUANT	0	Ich Offset (V)
ICHFILTER	IQUANT	1	Ich Filter
VCHRANGE	IQUANT	2	Vch Range
VCHRANGEMODE	TOGGLE	T	Vch Auto Range
VCHOFFSETENABLE	TOGGLE	F	Vch Offset Enable
VCHOFFSET	QUANT	0	Vch Offset (V)
VCHFILTER	IQUANT	1	Vch Filter
IERANGELOWERLIMIT	IQUANT	9	I/E Range Lower Limit
IERANGEMODE	TOGGLE	F	I/E AutoRange
IERANGE	IQUANT	9	I/E Range
ACHSELECT	IQUANT	1	Ach Select
ACHRANGE	IQUANT	2	Ach Range
ACHOFFSETENABLE	TOGGLE	F	Ach Offset Enable
ACHOFFSET	QUANT	0	Ach Offset (V)
ACHFILTER	IQUANT	1	Ach Filter
CABLEID	IQUANT	14	Cable ID
DCCALDATE	LABEL	5-7-2017	DC Calibration Date
ACCALDATE	LABEL	12/3/2015	AC Calibration Date
FRAMEWORKVERSION	QUANT	7.01	Framework Version
INSTRUMENTVERSION	LABEL	4.00	Instrument Version
CURVE	TABLE	86
	Pt	T	Vf	Im	Vu	Pwr	Sig	Ach	Temp	IERange	Over
	#	s	V	A	V	W	V	V	deg C	#	bits
	0	0.013333	8.46409E-001	-9.83029E-005	0.00000E+000	-8.32045E-005	-5.99601E-002	8.46734E-001	3.57870E+000	9	...........
	1	0.026667	8.32169E-001	-9.86321E-005	0.00000E+000	-8.20786E-005	-5.99601E-002	8.32485E-001	3.57870E+000	9	...........
	2	0.04	8.18778E-001	-9.99699E-005	0.00000E+000	-8.18531E-005	-5.99601E-002	8.19097E-001	3.57870E+000	9	...........
	3	0.053333	8.05926E-001	-9.89989E-005	0.00000E+000	-7.97857E-005	-5.99601E-002	8.06217E-001	3.57870E+000	9	...........
	4	0.066667	7.93452E-001	-9.88916E-005	0.00000E+000	-7.84657E-005	-5.99601E-002	7.93738E-001	3.57870E+000	9	...........
	5	0.08	7.81251E-001	-9.82800E-005	0.00000E+000	-7.67814E-005	-5.99601E-002	7.81546E-001	3.57870E+000	9	...........
	6	0.093333	7.69280E-001	-9.94979E-005	0.00000E+000	-7.65417E-005	-5.99601E-002	7.69559E-001	3.57870E+000	9	...........
	7	0.106667	7.57444E-001	-9.91708E-005	0.00000E+000	-7.51163E-005	-5.99601E-002	7.57720E-001	3.57870E+000	9	...........
	8	0.12	7.45725E-001	-9.93781E-005	0.00000E+000	-7.41087E-005	-5.99601E-002	7.45994E-001	3.57870E+000	9	...........
	9	0.133333	7.34092E-001	-9.94073E-005	0.00000E+000	-7.29741E-005	-5.99601E-002	7.34349E-001	3.57870E+000	9	...........
	10	0.146667	7.22545E-001	-9.92510E-005	0.00000E+000	-7.17133E-005	-5.99601E-002	7.22800E-001	3.57870E+000	9	...........
	11	0.16	7.10993E-001	-9.91322E-005	0.00000E+000	-7.04823E-005	-5.99601E-002	7.11253E-001	3.57870E+000	9	...........
	12	0.173333	6.99534E-001	-9.94250E-005	0.00000E+000	-6.95511E-005	-5.99601E-002	6.99798E-001	3.57870E+000	9	...........
	13	0.186667	6.88093E-001	-9.88207E-005	0.00000E+000	-6.79979E-005	-5.99601E-002	6.88357E-001	3.57870E+000	9	...........
	14	0.2	6.76699E-001	-9.90614E-005	0.00000E+000	-6.70348E-005	-5.99601E-002	6.76952E-001	3.57870E+000	9	...........
	15	0.213333	6.65326E-001	-9.93427E-005	0.00000E+000	-6.60953E-005	-5.99601E-002	6.65578E-001	3.57870E+000	9	...........
	16	0.226667	6.53932E-001	-9.89541E-005	0.00000E+000	-6.47092E-005	-5.99601E-002	6.54200E-001	3.57870E+000	9	...........
	17	0.24	6.42576E-001	-9.90395E-005	0.00000E+000	-6.36405E-005	-5.99601E-002	6.42871E-001	3.57870E+000	9	...........
	18	0.253333	6.31265E-001	-9.74319E-005	0.00000E+000	-6.15053E-005	-5.99601E-002	6.31536E-001	3.57870E+000	9	...........
	19	0.266667	6.19987E-001	-9.82539E-005	0.00000E+000	-6.09162E-005	-5.99601E-002	6.20257E-001	3.57870E+000	9	...........
	20	0.28	6.08654E-001	-9.85530E-005	0.00000E+000	-5.99846E-005	-5.99601E-002	6.08980E-001	3.57870E+000	9	...........
	21	0.293333	5.97442E-001	-9.84561E-005	0.00000E+000	-5.88218E-005	-5.99601E-002	5.97720E-001	3.57870E+000	9	...........
	22	0.306667	5.86222E-001	-9.83842E-005	0.00000E+000	-5.76750E-005	-5.99601E-002	5.86518E-001	3.57870E+000	9	...........
	23	0.32	5.75060E-001	-9.84467E-005	0.00000E+000	-5.66128E-005	-5.99601E-002	5.75306E-001	3.57870E+000	9	...........
	24	0.333333	5.63895E-001	-9.84686E-005	0.00000E+000	-5.55259E-005	-5.99601E-002	5.64140E-001	3.57870E+000	9	...........
	25	0.346667	5.52778E-001	-9.96876E-005	0.00000E+000	-5.51051E-005	-5.99601E-002	5.53012E-001	3.57870E+000	9	...........
	26	0.36	5.41705E-001	-9.83154E-005	0.00000E+000	-5.32580E-005	-5.99601E-002	5.41944E-001	3.57870E+000	9	...........
	27	0.373333	5.30684E-001	-9.93083E-005	0.00000E+000	-5.27013E-005	-5.99601E-002	5.30922E-001	3.57870E+000	9	...........
	28	0.386667	5.19730E-001	-9.92802E-005	0.00000E+000	-5.15989E-005	-5.99601E-002	5.19951E-001	3.57870E+000	9	...........
	29	0.4	5.08771E-001	-9.87030E-005	0.00000E+000	-5.02172E-005	-5.99601E-002	5.09014E-001	3.57870E+000	9	...........
	30	0.413333	4.97900E-001	-9.82946E-005	0.00000E+000	-4.89409E-005	-5.99601E-002	4.98159E-001	3.57870E+000	9	...........
	31	0.426667	4.87214E-001	-9.85248E-005	0.00000E+000	-4.80027E-005	-5.99601E-002	4.87388E-001	3.57867E+000	9	...........
	32	0.44	4.76738E-001	-9.86926E-005	0.00000E+000	-4.70505E-005	-5.99601E-002	4.76834E-001	3.57860E+000	9	...........
	33	0.453333	4.66060E-001	-9.95438E-005	0.00000E+000	-4.63934E-005	-5.99601E-002	4.66151E-001	3.57860E+000	9	...........
	34	0.466667	4.55444E-001	-9.95803E-005	0.00000E+000	-4.53532E-005	-5.99601E-002	4.55534E-001	3.57860E+000	9	...........
	35	0.48	4.44897E-001	-9.89103E-005	0.00000E+000	-4.40049E-005	-5.99601E-002	4.44985E-001	3.57860E+000	9	...........
	36	0.493333	4.34425E-001	-9.85842E-005	0.00000E+000	-4.28275E-005	-5.99601E-002	4.34514E-001	3.57860E+000	9	...........
	37	0.506667	4.24027E-001	-9.84477E-005	0.00000E+000	-4.17445E-005	-5.99601E-002	4.24109E-001	3.57860E+000	9	...........
	38	0.52	4.13690E-001	-9.88186E-005	0.00000E+000	-4.08802E-005	-5.99601E-002	4.13765E-001	3.57860E+000	9	...........
	39	0.533333	4.03425E-001	-9.90604E-005	0.00000E+000	-3.99635E-005	-5.99601E-002	4.03499E-001	3.57860E+000	9	...........
	40	0.546667	3.93226E-001	-9.93729E-005	0.00000E+000	-3.90760E-005	-5.99601E-002	3.93298E-001	3.57860E+000	9	...........
	41	0.56	3.83098E-001	-9.81498E-005	0.00000E+000	-3.76009E-005	-5.99601E-002	3.83165E-001	3.57860E+000	9	...........
	42	0.573333	3.73036E-001	-9.87613E-005	0.00000E+000	-3.68415E-005	-5.99601E-002	3.73103E-001	3.57860E+000	9	...........
	43	0.586667	3.63044E-001	-9.87593E-005	0.00000E+000	-3.58540E-005	-5.99601E-002	3.63111E-001	3.57860E+000	9	...........
	44	0.6	3.53119E-001	-9.93208E-005	0.00000E+000	-3.50721E-005	-5.99601E-002	3.53175E-001	3.57860E+000	9	...........
	45	0.613333	3.43251E-001	-9.88551E-005	0.00000E+000	-3.39321E-005	-5.99601E-002	3.43312E-001	3.57860E+000	9	...........
	46	0.626667	3.33443E-001	-9.85269E-005	0.00000E+000	-3.28531E-005	-5.99601E-002	3.33501E-001	3.57860E+000	9	...........
	47	0.64	3.23699E-001	-9.92583E-005	0.00000E+000	-3.21299E-005	-5.99601E-002	3.23759E-001	3.57860E+000	9	...........
	48	0.653333	3.14014E-001	-9.84290E-005	0.00000E+000	-3.09081E-005	-5.99601E-002	3.14075E-001	3.57860E+000	9	...........
	49	0.666667	3.04383E-001	-9.83540E-005	0.00000E+000	-2.99373E-005	-5.99601E-002	3.04445E-001	3.57860E+000	9	...........
	50	0.68	2.94814E-001	-9.89416E-005	0.00000E+000	-2.91693E-005	-5.99601E-002	2.94868E-001	3.57860E+000	9	...........
	51	0.693333	2.85296E-001	-9.86519E-005	0.00000E+000	-2.81450E-005	-5.99601E-002	2.85346E-001	3.57860E+000	9	...........
	52	0.706667	2.75827E-001	-9.87603E-005	0.00000E+000	-2.72408E-005	-5.99601E-002	2.75882E-001	3.57860E+000	9	...........
	53	0.72	2.66417E-001	-9.91781E-005	0.00000E+000	-2.64227E-005	-5.99601E-002	2.66461E-001	3.57860E+000	9	...........
	54	0.733333	2.57054E-001	-9.91531E-005	0.00000E+000	-2.54877E-005	-5.99601E-002	2.57102E-001	3.57860E+000	9	...........
	55	0.746667	2.47751E-001	-9.80320E-005	0.00000E+000	-2.42875E-005	-5.99601E-002	2.47791E-001	3.57860E+000	9	...........
	56	0.76	2.38489E-001	-9.83623E-005	0.00000E+000	-2.34583E-005	-5.99601E-002	2.38528E-001	3.57860E+000	9	...........
	57	0.773333	2.29289E-001	-9.92948E-005	0.00000E+000	-2.27672E-005	-5.99601E-002	2.29320E-001	3.57860E+000	9	...........
	58	0.786667	2.20133E-001	-9.93115E-005	0.00000E+000	-2.18617E-005	-5.99601E-002	2.20163E-001	3.57860E+000	9	...........
	59	0.8	2.11039E-001	-9.91322E-005	0.00000E+000	-2.09208E-005	-5.99601E-002	2.11064E-001	3.57860E+000	9	...........
	60	0.813333	2.01998E-001	-9.94886E-005	0.00000E+000	-2.00965E-005	-5.99601E-002	2.02030E-001	3.57860E+000	9	...........
	61	0.826667	1.93015E-001	-9.85780E-005	0.00000E+000	-1.90271E-005	-5.99601E-002	1.93047E-001	3.57860E+000	9	...........
	62	0.84	1.84097E-001	-9.89489E-005	0.00000E+000	-1.82162E-005	-5.99601E-002	1.84121E-001	3.57860E+000	9	...........
	63	0.853333	1.75236E-001	-9.88884E-005	0.00000E+000	-1.73288E-005	-5.99601E-002	1.75262E-001	3.57860E+000	9	...........
	64	0.866667	1.66449E-001	-9.82998E-005	0.00000E+000	-1.63619E-005	-5.99601E-002	1.66473E-001	3.57860E+000	9	...........
	65	0.88	1.57724E-001	-9.87759E-005	0.00000E+000	-1.55793E-005	-5.99601E-002	1.57747E-001	3.57860E+000	9	...........
	66	0.893333	1.49073E-001	-9.91854E-005	0.00000E+000	-1.47859E-005	-5.99601E-002	1.49095E-001	3.57860E+000	9	...........
	67	0.906667	1.40492E-001	-9.79862E-005	0.00000E+000	-1.37662E-005	-5.99601E-002	1.40512E-001	3.57860E+000	9	...........
	68	0.92	1.31986E-001	-9.92250E-005	0.00000E+000	-1.30963E-005	-5.99601E-002	1.31998E-001	3.57860E+000	9	...........
	69	0.933333	1.23548E-001	-9.82842E-005	0.00000E+000	-1.21428E-005	-5.99601E-002	1.23560E-001	3.57860E+000	9	...........
	70	0.946667	1.15189E-001	-9.92135E-005	0.00000E+000	-1.14283E-005	-5.99601E-002	1.15203E-001	3.57860E+000	9	...........
	71	0.96	1.06909E-001	-9.83165E-005	0.00000E+000	-1.05109E-005	-5.99601E-002	1.06918E-001	3.57860E+000	9	...........
	72	0.97333	9.86983E-002	-9.87572E-005	0.00000E+000	-9.74717E-006	-5.99601E-002	9.87099E-002	3.57860E+000	9	...........
	73	0.98667	9.05714E-002	-9.94386E-005	0.00000E+000	-9.00629E-006	-5.99601E-002	9.05793E-002	3.57860E+000	9	...........
	74	1	8.25198E-002	-9.86426E-005	0.00000E+000	-8.13997E-006	-5.99601E-002	8.25271E-002	3.57860E+000	9	...........
	75	1.01333	7.45456E-002	-9.84029E-005	0.00000E+000	-7.33550E-006	-5.99601E-002	7.45444E-002	3.57860E+000	9	...........
	76	1.02667	6.66364E-002	-9.97418E-005	0.00000E+000	-6.64643E-006	-5.99601E-002	6.66324E-002	3.57860E+000	9	...........
	77	1.04	5.87976E-002	-9.85300E-005	0.00000E+000	-5.79333E-006	-5.99601E-002	5.87936E-002	3.57860E+000	9	...........
	78	1.05333	5.10338E-002	-9.88520E-005	0.00000E+000	-5.04479E-006	-5.99601E-002	5.10271E-002	3.57860E+000	9	...........
	79	1.06667	4.33741E-002	-9.88291E-005	0.00000E+000	-4.28662E-006	-5.99601E-002	4.33679E-002	3.57860E+000	9	...........
	80	1.08	3.57495E-002	-9.84540E-005	0.00000E+000	-3.51968E-006	-5.99601E-002	3.57360E-002	3.57860E+000	9	...........
	81	1.09333	2.81947E-002	-9.84342E-005	0.00000E+000	-2.77532E-006	-5.99601E-002	2.81721E-002	3.57860E+000	9	...........
	82	1.10667	2.07006E-002	-9.93802E-005	0.00000E+000	-2.05723E-006	-5.99601E-002	2.06807E-002	3.57860E+000	9	...........
	83	1.12	1.32765E-002	-9.88978E-005	0.00000E+000	-1.31302E-006	-5.99601E-002	1.32531E-002	3.57860E+000	9	...........
	84	1.13333	5.91850E-003	-9.94156E-005	0.00000E+000	-5.88392E-007	-5.99601E-002	5.89345E-003	3.57860E+000	9	...........
	85	1.13833	9.00425E-004	-9.93549E-005	0.00000E+000	-8.94616E-008	-5.99601E-002	8.70193E-004	3.57860E+000	9	...........
STARTTIMEOFFSET	QUANT	2131.119	Start Time Offset (s)
