EXPLAIN
TAG	PWR800_DISCHARGE
TITLE	LABEL	PWR Cyclic Charge Discharge (Cell) - Discharge Step	Test &Identifier
DATE	LABEL	13-7-2017	Date
TIME	LABEL	15:10:41	Time
NOTES	NOTES	2	&Notes...
	supercap test cell
	6M KOH
PSTAT	PSTAT	IFC5000-01520	Potentiostat
CAPACITY	QUANT	1.00000E-003	Capacity (A-hr)
CELLTYPE	SELECTOR	1	&Cell Type
WORKINGCONNECTION	SELECTOR	0	&Working Lead
MAXDISCHARGETIME	VARIABLEANDUNITS	1.00000E+002	s	1.00000E+002	second(s)	Max &Discharge Time
DISCHARGEMODE	MULTIPARAM	0	1.00000E-004	&Discharge Mode	Constant Current	Amp(s)
SAMPLETIME	QUANT	1.00000E-002	Sa&mple Period (s)
DISCHARGESTOPAT1	MULTIPARAM	3	0.00000E+000	Discharge Stop At &1	Voltage < Limit	V
DISCHARGESTOPAT2	MULTIPARAM	0	0.00000E+000	Discharge Stop At &2	None	N/A
AESBHCSELECTOR	TOGGLE	F	Save Both Half Cells
IRCOMP	TOGGLE	F	IR &Measure
EOC	QUANT	0	Open Circuit (V)
SEQUENCER	TOGGLE	TRUE	Run as Sequence
PSTATMODEL	IQUANT	53	Pstat Model
PSTATSECTION	LABEL	IFC5000-01520	Pstat Section
PSTATSERIALNO	LABEL	01520	Pstat Serial Number
CTRLMODE	IQUANT	0	Control Mode
ELECTROMETER	IQUANT	1	RE=0 or CS=1
IESTAB	IQUANT	0	I/E Stability
CASPEED	IQUANT	4	Control Amp Speed
CONVENTION	IQUANT	1	Current Convention
ICHRANGE	IQUANT	2	Ich Range
ICHRANGEMODE	TOGGLE	T	Ich Auto Range
ICHOFFSETENABLE	TOGGLE	F	Ich Offset Enable
ICHOFFSET	QUANT	0	Ich Offset (V)
ICHFILTER	IQUANT	1	Ich Filter
VCHRANGE	IQUANT	2	Vch Range
VCHRANGEMODE	TOGGLE	T	Vch Auto Range
VCHOFFSETENABLE	TOGGLE	F	Vch Offset Enable
VCHOFFSET	QUANT	0	Vch Offset (V)
VCHFILTER	IQUANT	1	Vch Filter
IERANGELOWERLIMIT	IQUANT	9	I/E Range Lower Limit
IERANGEMODE	TOGGLE	F	I/E AutoRange
IERANGE	IQUANT	9	I/E Range
ACHSELECT	IQUANT	1	Ach Select
ACHRANGE	IQUANT	2	Ach Range
ACHOFFSETENABLE	TOGGLE	F	Ach Offset Enable
ACHOFFSET	QUANT	0	Ach Offset (V)
ACHFILTER	IQUANT	1	Ach Filter
CABLEID	IQUANT	14	Cable ID
DCCALDATE	LABEL	5-7-2017	DC Calibration Date
ACCALDATE	LABEL	12/3/2015	AC Calibration Date
FRAMEWORKVERSION	QUANT	7.01	Framework Version
INSTRUMENTVERSION	LABEL	4.00	Instrument Version
CURVE	TABLE	92
	Pt	T	Vf	Im	Vu	Pwr	Sig	Ach	Temp	IERange	Over
	#	s	V	A	V	W	V	V	deg C	#	bits
	0	0.013333	8.54212E-001	-9.81810E-005	0.00000E+000	-8.38674E-005	-5.99601E-002	8.54548E-001	3.57920E+000	9	...........
	1	0.026667	8.40982E-001	-9.86936E-005	0.00000E+000	-8.29996E-005	-5.99601E-002	8.41281E-001	3.57920E+000	9	...........
	2	0.04	8.28563E-001	-9.88739E-005	0.00000E+000	-8.19232E-005	-5.99601E-002	8.28836E-001	3.57920E+000	9	...........
	3	0.053333	8.16712E-001	-9.88843E-005	0.00000E+000	-8.07600E-005	-5.99601E-002	8.16996E-001	3.57920E+000	9	...........
	4	0.066667	8.05255E-001	-9.93469E-005	0.00000E+000	-7.99996E-005	-5.99601E-002	8.05517E-001	3.57920E+000	9	...........
	5	0.08	7.94106E-001	-9.85936E-005	0.00000E+000	-7.82938E-005	-5.99601E-002	7.94371E-001	3.57920E+000	9	...........
	6	0.093333	7.83161E-001	-9.87457E-005	0.00000E+000	-7.73338E-005	-5.99601E-002	7.83420E-001	3.57920E+000	9	...........
	7	0.106667	7.72383E-001	-9.83133E-005	0.00000E+000	-7.59356E-005	-5.99601E-002	7.72647E-001	3.57920E+000	9	...........
	8	0.12	7.61725E-001	-9.84363E-005	0.00000E+000	-7.49814E-005	-5.99601E-002	7.62009E-001	3.57920E+000	9	...........
	9	0.133333	7.51190E-001	-9.87676E-005	0.00000E+000	-7.41933E-005	-5.99601E-002	7.51464E-001	3.57920E+000	9	...........
	10	0.146667	7.40718E-001	-9.86280E-005	0.00000E+000	-7.30555E-005	-5.99601E-002	7.40986E-001	3.57920E+000	9	...........
	11	0.16	7.30313E-001	-9.91281E-005	0.00000E+000	-7.23945E-005	-5.99601E-002	7.30580E-001	3.57920E+000	9	...........
	12	0.173333	7.19956E-001	-9.88614E-005	0.00000E+000	-7.11759E-005	-5.99601E-002	7.20200E-001	3.57920E+000	9	...........
	13	0.186667	7.09596E-001	-9.90885E-005	0.00000E+000	-7.03128E-005	-5.99601E-002	7.09859E-001	3.57920E+000	9	...........
	14	0.2	6.99324E-001	-9.93823E-005	0.00000E+000	-6.95004E-005	-5.99601E-002	6.99579E-001	3.57920E+000	9	...........
	15	0.213333	6.89056E-001	-9.94042E-005	0.00000E+000	-6.84951E-005	-5.99601E-002	6.89322E-001	3.57920E+000	9	...........
	16	0.226667	6.78805E-001	-9.83425E-005	0.00000E+000	-6.67554E-005	-5.99601E-002	6.79072E-001	3.57920E+000	9	...........
	17	0.24	6.68561E-001	-9.89728E-005	0.00000E+000	-6.61694E-005	-5.99601E-002	6.68834E-001	3.57920E+000	9	...........
	18	0.253333	6.58322E-001	-9.86176E-005	0.00000E+000	-6.49221E-005	-5.99601E-002	6.58589E-001	3.57920E+000	9	...........
	19	0.266667	6.48080E-001	-9.86915E-005	0.00000E+000	-6.39600E-005	-5.99601E-002	6.48364E-001	3.57920E+000	9	...........
	20	0.28	6.37866E-001	-9.86030E-005	0.00000E+000	-6.28955E-005	-5.99601E-002	6.38152E-001	3.57920E+000	9	...........
	21	0.293333	6.27633E-001	-9.84415E-005	0.00000E+000	-6.17852E-005	-5.99601E-002	6.27923E-001	3.57920E+000	9	...........
	22	0.306667	6.17457E-001	-9.91395E-005	0.00000E+000	-6.12144E-005	-5.99601E-002	6.17733E-001	3.57920E+000	9	...........
	23	0.32	6.07187E-001	-9.91708E-005	0.00000E+000	-6.02152E-005	-5.99601E-002	6.07513E-001	3.57920E+000	9	...........
	24	0.333333	5.97036E-001	-9.90354E-005	0.00000E+000	-5.91277E-005	-5.99601E-002	5.97318E-001	3.57920E+000	9	...........
	25	0.346667	5.86842E-001	-9.93333E-005	0.00000E+000	-5.82930E-005	-5.99601E-002	5.87136E-001	3.57920E+000	9	...........
	26	0.36	5.76680E-001	-9.84654E-005	0.00000E+000	-5.67830E-005	-5.99601E-002	5.76952E-001	3.57920E+000	9	...........
	27	0.373333	5.66531E-001	-9.94136E-005	0.00000E+000	-5.63208E-005	-5.99601E-002	5.66800E-001	3.57920E+000	9	...........
	28	0.386667	5.56373E-001	-9.94125E-005	0.00000E+000	-5.53105E-005	-5.99601E-002	5.56627E-001	3.57920E+000	9	...........
	29	0.4	5.46250E-001	-9.92729E-005	0.00000E+000	-5.42278E-005	-5.99601E-002	5.46496E-001	3.57920E+000	9	...........
	30	0.413333	5.36146E-001	-9.84706E-005	0.00000E+000	-5.27946E-005	-5.99601E-002	5.36397E-001	3.57920E+000	9	...........
	31	0.426667	5.26066E-001	-9.95000E-005	0.00000E+000	-5.23436E-005	-5.99601E-002	5.26314E-001	3.57920E+000	9	...........
	32	0.44	5.16007E-001	-9.90593E-005	0.00000E+000	-5.11153E-005	-5.99601E-002	5.16254E-001	3.57920E+000	9	...........
	33	0.453333	5.05921E-001	-9.85905E-005	0.00000E+000	-4.98790E-005	-5.99601E-002	5.06219E-001	3.57920E+000	9	...........
	34	0.466667	4.95921E-001	-9.90510E-005	0.00000E+000	-4.91215E-005	-5.99601E-002	4.96213E-001	3.57920E+000	9	...........
	35	0.48	4.86101E-001	-9.93677E-005	0.00000E+000	-4.83027E-005	-5.99601E-002	4.86308E-001	3.57920E+000	9	...........
	36	0.493333	4.76407E-001	-9.97584E-005	0.00000E+000	-4.75256E-005	-5.99601E-002	4.76505E-001	3.57920E+000	9	...........
	37	0.506667	4.66504E-001	-9.85978E-005	0.00000E+000	-4.59963E-005	-5.99601E-002	4.66606E-001	3.57920E+000	9	...........
	38	0.52	4.56645E-001	-9.93135E-005	0.00000E+000	-4.53511E-005	-5.99601E-002	4.56741E-001	3.57920E+000	9	...........
	39	0.533333	4.46819E-001	-9.87697E-005	0.00000E+000	-4.41321E-005	-5.99601E-002	4.46918E-001	3.57920E+000	9	...........
	40	0.546667	4.37033E-001	-9.95427E-005	0.00000E+000	-4.35035E-005	-5.99601E-002	4.37132E-001	3.57920E+000	9	...........
	41	0.56	4.27305E-001	-9.83779E-005	0.00000E+000	-4.20374E-005	-5.99601E-002	4.27393E-001	3.57920E+000	9	...........
	42	0.573333	4.17608E-001	-9.84509E-005	0.00000E+000	-4.11138E-005	-5.99601E-002	4.17694E-001	3.57920E+000	9	...........
	43	0.586667	4.07960E-001	-9.85623E-005	0.00000E+000	-4.02095E-005	-5.99601E-002	4.08042E-001	3.57920E+000	9	...........
	44	0.6	3.98362E-001	-9.87832E-005	0.00000E+000	-3.93514E-005	-5.99601E-002	3.98442E-001	3.57920E+000	9	...........
	45	0.613333	3.88804E-001	-9.86238E-005	0.00000E+000	-3.83454E-005	-5.99601E-002	3.88877E-001	3.57920E+000	9	...........
	46	0.626667	3.79296E-001	-9.82539E-005	0.00000E+000	-3.72673E-005	-5.99601E-002	3.79367E-001	3.57943E+000	9	...........
	47	0.64	3.69826E-001	-9.86342E-005	0.00000E+000	-3.64775E-005	-5.99601E-002	3.69895E-001	3.57950E+000	9	...........
	48	0.653333	3.60403E-001	-9.90166E-005	0.00000E+000	-3.56859E-005	-5.99601E-002	3.60471E-001	3.57950E+000	9	...........
	49	0.666667	3.51019E-001	-9.83394E-005	0.00000E+000	-3.45189E-005	-5.99601E-002	3.51090E-001	3.57950E+000	9	...........
	50	0.68	3.41682E-001	-9.82644E-005	0.00000E+000	-3.35752E-005	-5.99601E-002	3.41751E-001	3.57950E+000	9	...........
	51	0.693333	3.32381E-001	-9.80789E-005	0.00000E+000	-3.25996E-005	-5.99601E-002	3.32448E-001	3.57950E+000	9	...........
	52	0.706667	3.23125E-001	-9.87655E-005	0.00000E+000	-3.19136E-005	-5.99601E-002	3.23191E-001	3.57950E+000	9	...........
	53	0.72	3.13912E-001	-9.81122E-005	0.00000E+000	-3.07986E-005	-5.99601E-002	3.13981E-001	3.57950E+000	9	...........
	54	0.733333	3.04741E-001	-9.78872E-005	0.00000E+000	-2.98303E-005	-5.99601E-002	3.04802E-001	3.57950E+000	9	...........
	55	0.746667	2.95605E-001	-9.88343E-005	0.00000E+000	-2.92159E-005	-5.99601E-002	2.95666E-001	3.57950E+000	9	...........
	56	0.76	2.86514E-001	-9.88051E-005	0.00000E+000	-2.83090E-005	-5.99601E-002	2.86569E-001	3.57950E+000	9	...........
	57	0.773333	2.77455E-001	-9.94104E-005	0.00000E+000	-2.75819E-005	-5.99601E-002	2.77505E-001	3.57950E+000	9	...........
	58	0.786667	2.68436E-001	-9.91635E-005	0.00000E+000	-2.66191E-005	-5.99601E-002	2.68483E-001	3.57950E+000	9	...........
	59	0.8	2.59446E-001	-9.81518E-005	0.00000E+000	-2.54651E-005	-5.99601E-002	2.59496E-001	3.57950E+000	9	...........
	60	0.813333	2.50502E-001	-9.96324E-005	0.00000E+000	-2.49581E-005	-5.99601E-002	2.50550E-001	3.57950E+000	9	...........
	61	0.826667	2.41597E-001	-9.89510E-005	0.00000E+000	-2.39063E-005	-5.99601E-002	2.41635E-001	3.57950E+000	9	...........
	62	0.84	2.32725E-001	-9.78674E-005	0.00000E+000	-2.27762E-005	-5.99601E-002	2.32766E-001	3.57950E+000	9	...........
	63	0.853333	2.23883E-001	-9.93052E-005	0.00000E+000	-2.22328E-005	-5.99601E-002	2.23924E-001	3.57950E+000	9	...........
	64	0.866667	2.15082E-001	-9.86926E-005	0.00000E+000	-2.12270E-005	-5.99601E-002	2.15120E-001	3.57950E+000	9	...........
	65	0.88	2.06324E-001	-9.86988E-005	0.00000E+000	-2.03639E-005	-5.99601E-002	2.06353E-001	3.57950E+000	9	...........
	66	0.893333	1.97595E-001	-9.87457E-005	0.00000E+000	-1.95116E-005	-5.99601E-002	1.97627E-001	3.57950E+000	9	...........
	67	0.906667	1.88917E-001	-9.81529E-005	0.00000E+000	-1.85428E-005	-5.99601E-002	1.88941E-001	3.57950E+000	9	...........
	68	0.92	1.80280E-001	-9.95688E-005	0.00000E+000	-1.79503E-005	-5.99601E-002	1.80302E-001	3.57950E+000	9	...........
	69	0.933333	1.71689E-001	-9.91593E-005	0.00000E+000	-1.70246E-005	-5.99601E-002	1.71712E-001	3.57950E+000	9	...........
	70	0.946667	1.63146E-001	-9.87124E-005	0.00000E+000	-1.61046E-005	-5.99601E-002	1.63168E-001	3.57950E+000	9	...........
	71	0.96	1.54652E-001	-9.83623E-005	0.00000E+000	-1.52119E-005	-5.99601E-002	1.54678E-001	3.57950E+000	9	...........
	72	0.97333	1.46210E-001	-9.84102E-005	0.00000E+000	-1.43885E-005	-5.99601E-002	1.46230E-001	3.57950E+000	9	...........
	73	0.98667	1.37823E-001	-9.80841E-005	0.00000E+000	-1.35183E-005	-5.99601E-002	1.37848E-001	3.57950E+000	9	...........
	74	1	1.29491E-001	-9.90291E-005	0.00000E+000	-1.28233E-005	-5.99601E-002	1.29509E-001	3.57950E+000	9	...........
	75	1.01333	1.21225E-001	-9.79560E-005	0.00000E+000	-1.18747E-005	-5.99601E-002	1.21238E-001	3.57950E+000	9	...........
	76	1.02667	1.13012E-001	-9.88291E-005	0.00000E+000	-1.11689E-005	-5.99601E-002	1.13026E-001	3.57950E+000	9	...........
	77	1.04	1.04862E-001	-9.81091E-005	0.00000E+000	-1.02879E-005	-5.99601E-002	1.04875E-001	3.57950E+000	9	...........
	78	1.05333	9.67834E-002	-9.82477E-005	0.00000E+000	-9.50875E-006	-5.99601E-002	9.67925E-002	3.57950E+000	9	...........
	79	1.06667	8.87578E-002	-9.96209E-005	0.00000E+000	-8.84213E-006	-5.99601E-002	8.87693E-002	3.57950E+000	9	...........
	80	1.08	8.08080E-002	-9.96001E-005	0.00000E+000	-8.04848E-006	-5.99601E-002	8.08150E-002	3.57950E+000	9	...........
	81	1.09333	7.29183E-002	-9.82331E-005	0.00000E+000	-7.16299E-006	-5.99601E-002	7.29203E-002	3.57950E+000	9	...........
	82	1.10667	6.50853E-002	-9.89499E-005	0.00000E+000	-6.44019E-006	-5.99601E-002	6.50842E-002	3.57950E+000	9	...........
	83	1.12	5.73188E-002	-9.89937E-005	0.00000E+000	-5.67420E-006	-5.99601E-002	5.73159E-002	3.57950E+000	9	...........
	84	1.13333	4.96309E-002	-9.89780E-005	0.00000E+000	-4.91237E-006	-5.99601E-002	4.96254E-002	3.57950E+000	9	...........
	85	1.14667	4.20230E-002	-9.90093E-005	0.00000E+000	-4.16067E-006	-5.99601E-002	4.20154E-002	3.57950E+000	9	...........
	86	1.16	3.44510E-002	-9.87697E-005	0.00000E+000	-3.40271E-006	-5.99601E-002	3.44371E-002	3.57950E+000	9	...........
	87	1.17333	2.69284E-002	-9.90604E-005	0.00000E+000	-2.66753E-006	-5.99601E-002	2.69130E-002	3.57950E+000	9	...........
	88	1.18667	1.94717E-002	-9.92635E-005	0.00000E+000	-1.93283E-006	-5.99601E-002	1.94461E-002	3.57950E+000	9	...........
	89	1.2	1.20736E-002	-9.97959E-005	0.00000E+000	-1.20490E-006	-5.99601E-002	1.20483E-002	3.57950E+000	9	...........
	90	1.21333	4.73164E-003	-9.83873E-005	0.00000E+000	-4.65534E-007	-5.99601E-002	4.69990E-003	3.57950E+000	9	...........
	91	1.21667	1.73206E-004	-1.01728E-004	0.00000E+000	-1.76199E-008	-5.99601E-002	1.32651E-004	3.57950E+000	9	...........
STARTTIMEOFFSET	QUANT	390.0599	Start Time Offset (s)
