EXPLAIN
TAG	PWR800_DISCHARGE
TITLE	LABEL	PWR Cyclic Charge Discharge (Cell) - Discharge Step	Test &Identifier
DATE	LABEL	13-7-2017	Date
TIME	LABEL	15:05:12	Time
NOTES	NOTES	2	&Notes...
	supercap test cell
	6M KOH
PSTAT	PSTAT	IFC5000-01520	Potentiostat
CAPACITY	QUANT	1.00000E-003	Capacity (A-hr)
CELLTYPE	SELECTOR	1	&Cell Type
WORKINGCONNECTION	SELECTOR	0	&Working Lead
MAXDISCHARGETIME	VARIABLEANDUNITS	1.00000E+002	s	1.00000E+002	second(s)	Max &Discharge Time
DISCHARGEMODE	MULTIPARAM	0	1.00000E-004	&Discharge Mode	Constant Current	Amp(s)
SAMPLETIME	QUANT	1.00000E-002	Sa&mple Period (s)
DISCHARGESTOPAT1	MULTIPARAM	3	0.00000E+000	Discharge Stop At &1	Voltage < Limit	V
DISCHARGESTOPAT2	MULTIPARAM	0	0.00000E+000	Discharge Stop At &2	None	N/A
AESBHCSELECTOR	TOGGLE	F	Save Both Half Cells
IRCOMP	TOGGLE	F	IR &Measure
EOC	QUANT	0	Open Circuit (V)
SEQUENCER	TOGGLE	TRUE	Run as Sequence
PSTATMODEL	IQUANT	53	Pstat Model
PSTATSECTION	LABEL	IFC5000-01520	Pstat Section
PSTATSERIALNO	LABEL	01520	Pstat Serial Number
CTRLMODE	IQUANT	0	Control Mode
ELECTROMETER	IQUANT	1	RE=0 or CS=1
IESTAB	IQUANT	0	I/E Stability
CASPEED	IQUANT	4	Control Amp Speed
CONVENTION	IQUANT	1	Current Convention
ICHRANGE	IQUANT	2	Ich Range
ICHRANGEMODE	TOGGLE	T	Ich Auto Range
ICHOFFSETENABLE	TOGGLE	F	Ich Offset Enable
ICHOFFSET	QUANT	0	Ich Offset (V)
ICHFILTER	IQUANT	1	Ich Filter
VCHRANGE	IQUANT	2	Vch Range
VCHRANGEMODE	TOGGLE	T	Vch Auto Range
VCHOFFSETENABLE	TOGGLE	F	Vch Offset Enable
VCHOFFSET	QUANT	0	Vch Offset (V)
VCHFILTER	IQUANT	1	Vch Filter
IERANGELOWERLIMIT	IQUANT	9	I/E Range Lower Limit
IERANGEMODE	TOGGLE	F	I/E AutoRange
IERANGE	IQUANT	9	I/E Range
ACHSELECT	IQUANT	1	Ach Select
ACHRANGE	IQUANT	2	Ach Range
ACHOFFSETENABLE	TOGGLE	F	Ach Offset Enable
ACHOFFSET	QUANT	0	Ach Offset (V)
ACHFILTER	IQUANT	1	Ach Filter
CABLEID	IQUANT	14	Cable ID
DCCALDATE	LABEL	5-7-2017	DC Calibration Date
ACCALDATE	LABEL	12/3/2015	AC Calibration Date
FRAMEWORKVERSION	QUANT	7.01	Framework Version
INSTRUMENTVERSION	LABEL	4.00	Instrument Version
CURVE	TABLE	94
	Pt	T	Vf	Im	Vu	Pwr	Sig	Ach	Temp	IERange	Over
	#	s	V	A	V	W	V	V	deg C	#	bits
	0	0.013333	8.56059E-001	-9.85873E-005	0.00000E+000	-8.43966E-005	-5.99601E-002	8.56388E-001	3.57920E+000	9	...........
	1	0.026667	8.43326E-001	-9.84769E-005	0.00000E+000	-8.30481E-005	-5.99601E-002	8.43678E-001	3.57920E+000	9	...........
	2	0.04	8.31390E-001	-9.78664E-005	0.00000E+000	-8.13651E-005	-5.99601E-002	8.31747E-001	3.57920E+000	9	...........
	3	0.053333	8.20001E-001	-9.88551E-005	0.00000E+000	-8.10613E-005	-5.99601E-002	8.20373E-001	3.57920E+000	9	...........
	4	0.066667	8.09035E-001	-9.84696E-005	0.00000E+000	-7.96654E-005	-5.99601E-002	8.09360E-001	3.57920E+000	9	...........
	5	0.08	7.98350E-001	-9.85436E-005	0.00000E+000	-7.86723E-005	-5.99601E-002	7.98663E-001	3.57920E+000	9	...........
	6	0.093333	7.87851E-001	-9.93490E-005	0.00000E+000	-7.82722E-005	-5.99601E-002	7.88159E-001	3.57920E+000	9	...........
	7	0.106667	7.77546E-001	-9.85592E-005	0.00000E+000	-7.66343E-005	-5.99601E-002	7.77860E-001	3.57920E+000	9	...........
	8	0.12	7.67370E-001	-9.84373E-005	0.00000E+000	-7.55378E-005	-5.99601E-002	7.67667E-001	3.57920E+000	9	...........
	9	0.133333	7.57296E-001	-9.93385E-005	0.00000E+000	-7.52287E-005	-5.99601E-002	7.57577E-001	3.57920E+000	9	...........
	10	0.146667	7.47303E-001	-9.83644E-005	0.00000E+000	-7.35080E-005	-5.99601E-002	7.47596E-001	3.57920E+000	9	...........
	11	0.16	7.37365E-001	-9.99762E-005	0.00000E+000	-7.37190E-005	-5.99601E-002	7.37634E-001	3.57920E+000	9	...........
	12	0.173333	7.27487E-001	-9.80945E-005	0.00000E+000	-7.13624E-005	-5.99601E-002	7.27769E-001	3.57920E+000	9	...........
	13	0.186667	7.17654E-001	-9.96365E-005	0.00000E+000	-7.15046E-005	-5.99601E-002	7.17934E-001	3.57920E+000	9	...........
	14	0.2	7.07836E-001	-9.89676E-005	0.00000E+000	-7.00528E-005	-5.99601E-002	7.08113E-001	3.57920E+000	9	...........
	15	0.213333	6.98062E-001	-1.00053E-004	0.00000E+000	-6.98434E-005	-5.99601E-002	6.98330E-001	3.57920E+000	9	...........
	16	0.226667	6.88268E-001	-9.87718E-005	0.00000E+000	-6.79815E-005	-5.99601E-002	6.88549E-001	3.57920E+000	9	...........
	17	0.24	6.78527E-001	-9.83956E-005	0.00000E+000	-6.67641E-005	-5.99601E-002	6.78794E-001	3.57920E+000	9	...........
	18	0.253333	6.68785E-001	-9.88655E-005	0.00000E+000	-6.61198E-005	-5.99601E-002	6.69038E-001	3.57920E+000	9	...........
	19	0.266667	6.59005E-001	-9.77872E-005	0.00000E+000	-6.44422E-005	-5.99601E-002	6.59275E-001	3.57920E+000	9	...........
	20	0.28	6.49271E-001	-9.91197E-005	0.00000E+000	-6.43556E-005	-5.99601E-002	6.49547E-001	3.57920E+000	9	...........
	21	0.293333	6.39527E-001	-9.92531E-005	0.00000E+000	-6.34750E-005	-5.99601E-002	6.39783E-001	3.57920E+000	9	...........
	22	0.306667	6.29799E-001	-9.86769E-005	0.00000E+000	-6.21467E-005	-5.99601E-002	6.30048E-001	3.57920E+000	9	...........
	23	0.32	6.20076E-001	-9.90343E-005	0.00000E+000	-6.14088E-005	-5.99601E-002	6.20312E-001	3.57920E+000	9	...........
	24	0.333333	6.10272E-001	-9.79612E-005	0.00000E+000	-5.97830E-005	-5.99601E-002	6.10567E-001	3.57920E+000	9	...........
	25	0.346667	6.00536E-001	-9.86832E-005	0.00000E+000	-5.92628E-005	-5.99601E-002	6.00842E-001	3.57927E+000	9	...........
	26	0.36	5.90821E-001	-9.88103E-005	0.00000E+000	-5.83792E-005	-5.99601E-002	5.91102E-001	3.57930E+000	9	...........
	27	0.373333	5.81074E-001	-9.90364E-005	0.00000E+000	-5.75474E-005	-5.99601E-002	5.81357E-001	3.57930E+000	9	...........
	28	0.386667	5.71371E-001	-9.92073E-005	0.00000E+000	-5.66842E-005	-5.99601E-002	5.71626E-001	3.57930E+000	9	...........
	29	0.4	5.61620E-001	-9.82383E-005	0.00000E+000	-5.51726E-005	-5.99601E-002	5.61905E-001	3.57930E+000	9	...........
	30	0.413333	5.51890E-001	-9.91718E-005	0.00000E+000	-5.47320E-005	-5.99601E-002	5.52170E-001	3.57930E+000	9	...........
	31	0.426667	5.42183E-001	-9.90906E-005	0.00000E+000	-5.37252E-005	-5.99601E-002	5.42474E-001	3.57930E+000	9	...........
	32	0.44	5.32486E-001	-9.83248E-005	0.00000E+000	-5.23565E-005	-5.99601E-002	5.32727E-001	3.57930E+000	9	...........
	33	0.453333	5.22795E-001	-9.91354E-005	0.00000E+000	-5.18274E-005	-5.99601E-002	5.23044E-001	3.57930E+000	9	...........
	34	0.466667	5.13117E-001	-9.92187E-005	0.00000E+000	-5.09108E-005	-5.99601E-002	5.13348E-001	3.57930E+000	9	...........
	35	0.48	5.03414E-001	-9.80581E-005	0.00000E+000	-4.93638E-005	-5.99601E-002	5.03695E-001	3.57930E+000	9	...........
	36	0.493333	4.93796E-001	-9.86530E-005	0.00000E+000	-4.87145E-005	-5.99601E-002	4.94053E-001	3.57930E+000	9	...........
	37	0.506667	4.84357E-001	-9.89603E-005	0.00000E+000	-4.79322E-005	-5.99601E-002	4.84546E-001	3.57930E+000	9	...........
	38	0.52	4.74942E-001	-9.90812E-005	0.00000E+000	-4.70578E-005	-5.99601E-002	4.75040E-001	3.57930E+000	9	...........
	39	0.533333	4.65354E-001	-9.83185E-005	0.00000E+000	-4.57530E-005	-5.99601E-002	4.65456E-001	3.57930E+000	9	...........
	40	0.546667	4.55791E-001	-9.90874E-005	0.00000E+000	-4.51632E-005	-5.99601E-002	4.55885E-001	3.57930E+000	9	...........
	41	0.56	4.46253E-001	-9.97740E-005	0.00000E+000	-4.45245E-005	-5.99601E-002	4.46347E-001	3.57930E+000	9	...........
	42	0.573333	4.36738E-001	-9.96376E-005	0.00000E+000	-4.35155E-005	-5.99601E-002	4.36829E-001	3.57930E+000	9	...........
	43	0.586667	4.27252E-001	-9.91708E-005	0.00000E+000	-4.23709E-005	-5.99601E-002	4.27343E-001	3.57930E+000	9	...........
	44	0.6	4.17794E-001	-9.90156E-005	0.00000E+000	-4.13681E-005	-5.99601E-002	4.17880E-001	3.57930E+000	9	...........
	45	0.613333	4.08366E-001	-9.92406E-005	0.00000E+000	-4.05265E-005	-5.99601E-002	4.08454E-001	3.57930E+000	9	...........
	46	0.626667	3.98971E-001	-9.92802E-005	0.00000E+000	-3.96099E-005	-5.99601E-002	3.99048E-001	3.57930E+000	9	...........
	47	0.64	3.89601E-001	-9.90666E-005	0.00000E+000	-3.85965E-005	-5.99601E-002	3.89679E-001	3.57930E+000	9	...........
	48	0.653333	3.80267E-001	-9.81060E-005	0.00000E+000	-3.73065E-005	-5.99601E-002	3.80340E-001	3.57930E+000	9	...........
	49	0.666667	3.70956E-001	-9.94500E-005	0.00000E+000	-3.68915E-005	-5.99601E-002	3.71035E-001	3.57930E+000	9	...........
	50	0.68	3.61678E-001	-9.87124E-005	0.00000E+000	-3.57021E-005	-5.99601E-002	3.61752E-001	3.57930E+000	9	...........
	51	0.693333	3.52433E-001	-9.84154E-005	0.00000E+000	-3.46848E-005	-5.99601E-002	3.52500E-001	3.57930E+000	9	...........
	52	0.706667	3.43208E-001	-9.97261E-005	0.00000E+000	-3.42268E-005	-5.99601E-002	3.43279E-001	3.57930E+000	9	...........
	53	0.72	3.34018E-001	-9.94125E-005	0.00000E+000	-3.32056E-005	-5.99601E-002	3.34086E-001	3.57930E+000	9	...........
	54	0.733333	3.24859E-001	-9.89583E-005	0.00000E+000	-3.21475E-005	-5.99601E-002	3.24920E-001	3.57930E+000	9	...........
	55	0.746667	3.15726E-001	-9.82352E-005	0.00000E+000	-3.10154E-005	-5.99601E-002	3.15786E-001	3.57930E+000	9	...........
	56	0.76	3.06617E-001	-9.82769E-005	0.00000E+000	-3.01334E-005	-5.99601E-002	3.06677E-001	3.57930E+000	9	...........
	57	0.773333	2.97537E-001	-1.00018E-004	0.00000E+000	-2.97590E-005	-5.99601E-002	2.97596E-001	3.57930E+000	9	...........
	58	0.786667	2.88489E-001	-9.81748E-005	0.00000E+000	-2.83223E-005	-5.99601E-002	2.88550E-001	3.57930E+000	9	...........
	59	0.8	2.79471E-001	-9.87947E-005	0.00000E+000	-2.76103E-005	-5.99601E-002	2.79528E-001	3.57930E+000	9	...........
	60	0.813333	2.70474E-001	-1.00130E-004	0.00000E+000	-2.70827E-005	-5.99601E-002	2.70522E-001	3.57930E+000	9	...........
	61	0.826667	2.61505E-001	-9.90927E-005	0.00000E+000	-2.59132E-005	-5.99601E-002	2.61553E-001	3.57930E+000	9	...........
	62	0.84	2.52568E-001	-9.93917E-005	0.00000E+000	-2.51031E-005	-5.99601E-002	2.52619E-001	3.57930E+000	9	...........
	63	0.853333	2.43658E-001	-9.96782E-005	0.00000E+000	-2.42874E-005	-5.99601E-002	2.43703E-001	3.57930E+000	9	...........
	64	0.866667	2.34773E-001	-9.86061E-005	0.00000E+000	-2.31501E-005	-5.99601E-002	2.34817E-001	3.57930E+000	9	...........
	65	0.88	2.25916E-001	-9.86790E-005	0.00000E+000	-2.22931E-005	-5.99601E-002	2.25956E-001	3.57930E+000	9	...........
	66	0.893333	2.17090E-001	-9.88166E-005	0.00000E+000	-2.14521E-005	-5.99601E-002	2.17130E-001	3.57930E+000	9	...........
	67	0.906667	2.08293E-001	-9.91218E-005	0.00000E+000	-2.06464E-005	-5.99601E-002	2.08330E-001	3.57930E+000	9	...........
	68	0.92	1.99525E-001	-9.89374E-005	0.00000E+000	-1.97405E-005	-5.99601E-002	1.99563E-001	3.57930E+000	9	...........
	69	0.933333	1.90790E-001	-9.93886E-005	0.00000E+000	-1.89623E-005	-5.99601E-002	1.90827E-001	3.57930E+000	9	...........
	70	0.946667	1.82092E-001	-9.77872E-005	0.00000E+000	-1.78063E-005	-5.99601E-002	1.82126E-001	3.57930E+000	9	...........
	71	0.96	1.73426E-001	-9.87082E-005	0.00000E+000	-1.71186E-005	-5.99601E-002	1.73454E-001	3.57930E+000	9	...........
	72	0.97333	1.64801E-001	-9.85769E-005	0.00000E+000	-1.62456E-005	-5.99601E-002	1.64825E-001	3.57930E+000	9	...........
	73	0.98667	1.56209E-001	-9.84873E-005	0.00000E+000	-1.53846E-005	-5.99601E-002	1.56237E-001	3.57930E+000	9	...........
	74	1	1.47667E-001	-9.85728E-005	0.00000E+000	-1.45560E-005	-5.99601E-002	1.47686E-001	3.57930E+000	9	...........
	75	1.01333	1.39165E-001	-9.96615E-005	0.00000E+000	-1.38694E-005	-5.99601E-002	1.39187E-001	3.57930E+000	9	...........
	76	1.02667	1.30707E-001	-9.92677E-005	0.00000E+000	-1.29750E-005	-5.99601E-002	1.30725E-001	3.57930E+000	9	...........
	77	1.04	1.22303E-001	-9.88749E-005	0.00000E+000	-1.20927E-005	-5.99601E-002	1.22321E-001	3.57930E+000	9	...........
	78	1.05333	1.13953E-001	-9.89645E-005	0.00000E+000	-1.12773E-005	-5.99601E-002	1.13970E-001	3.57930E+000	9	...........
	79	1.06667	1.05654E-001	-9.81268E-005	0.00000E+000	-1.03675E-005	-5.99601E-002	1.05666E-001	3.57930E+000	9	...........
	80	1.08	9.74184E-002	-9.86551E-005	0.00000E+000	-9.61081E-006	-5.99601E-002	9.74306E-002	3.57930E+000	9	...........
	81	1.09333	8.92470E-002	-9.82727E-005	0.00000E+000	-8.77054E-006	-5.99601E-002	8.92508E-002	3.57930E+000	9	...........
	82	1.10667	8.11305E-002	-9.85894E-005	0.00000E+000	-7.99861E-006	-5.99601E-002	8.11352E-002	3.57930E+000	9	...........
	83	1.12	7.30764E-002	-9.77497E-005	0.00000E+000	-7.14320E-006	-5.99601E-002	7.30800E-002	3.57930E+000	9	...........
	84	1.13333	6.50883E-002	-9.82102E-005	0.00000E+000	-6.39233E-006	-5.99601E-002	6.50871E-002	3.57930E+000	9	...........
	85	1.14667	5.71595E-002	-9.86051E-005	0.00000E+000	-5.63621E-006	-5.99601E-002	5.71599E-002	3.57930E+000	9	...........
	86	1.16	4.93094E-002	-9.81820E-005	0.00000E+000	-4.84130E-006	-5.99601E-002	4.92995E-002	3.57930E+000	9	...........
	87	1.17333	4.15334E-002	-9.86103E-005	0.00000E+000	-4.09562E-006	-5.99601E-002	4.15234E-002	3.57930E+000	9	...........
	88	1.18667	3.37906E-002	-9.89749E-005	0.00000E+000	-3.34443E-006	-5.99601E-002	3.37763E-002	3.57930E+000	9	...........
	89	1.2	2.61090E-002	-9.90031E-005	0.00000E+000	-2.58487E-006	-5.99601E-002	2.60884E-002	3.57930E+000	9	...........
	90	1.21333	1.84840E-002	-9.84988E-005	0.00000E+000	-1.82065E-006	-5.99601E-002	1.84638E-002	3.57930E+000	9	...........
	91	1.22667	1.09213E-002	-9.88322E-005	0.00000E+000	-1.07937E-006	-5.99601E-002	1.08941E-002	3.57930E+000	9	...........
	92	1.24	3.41427E-003	-9.84259E-005	0.00000E+000	-3.36052E-007	-5.99601E-002	3.38196E-003	3.57930E+000	9	...........
	93	1.24167	-7.90205E-004	-9.88603E-005	0.00000E+000	7.81199E-008	-5.99601E-002	-8.16890E-004	3.57930E+000	9	...........
STARTTIMEOFFSET	QUANT	138.4266	Start Time Offset (s)
