EXPLAIN
TAG	PWR800_DISCHARGE
TITLE	LABEL	PWR Cyclic Charge Discharge (Cell) - Discharge Step	Test &Identifier
DATE	LABEL	13-7-2017	Date
TIME	LABEL	15:27:09	Time
NOTES	NOTES	2	&Notes...
	supercap test cell
	6M KOH
PSTAT	PSTAT	IFC5000-01520	Potentiostat
CAPACITY	QUANT	1.00000E-003	Capacity (A-hr)
CELLTYPE	SELECTOR	1	&Cell Type
WORKINGCONNECTION	SELECTOR	0	&Working Lead
MAXDISCHARGETIME	VARIABLEANDUNITS	1.00000E+002	s	1.00000E+002	second(s)	Max &Discharge Time
DISCHARGEMODE	MULTIPARAM	0	1.00000E-004	&Discharge Mode	Constant Current	Amp(s)
SAMPLETIME	QUANT	1.00000E-002	Sa&mple Period (s)
DISCHARGESTOPAT1	MULTIPARAM	3	0.00000E+000	Discharge Stop At &1	Voltage < Limit	V
DISCHARGESTOPAT2	MULTIPARAM	0	0.00000E+000	Discharge Stop At &2	None	N/A
AESBHCSELECTOR	TOGGLE	F	Save Both Half Cells
IRCOMP	TOGGLE	F	IR &Measure
EOC	QUANT	0	Open Circuit (V)
SEQUENCER	TOGGLE	TRUE	Run as Sequence
PSTATMODEL	IQUANT	53	Pstat Model
PSTATSECTION	LABEL	IFC5000-01520	Pstat Section
PSTATSERIALNO	LABEL	01520	Pstat Serial Number
CTRLMODE	IQUANT	0	Control Mode
ELECTROMETER	IQUANT	1	RE=0 or CS=1
IESTAB	IQUANT	0	I/E Stability
CASPEED	IQUANT	4	Control Amp Speed
CONVENTION	IQUANT	1	Current Convention
ICHRANGE	IQUANT	2	Ich Range
ICHRANGEMODE	TOGGLE	T	Ich Auto Range
ICHOFFSETENABLE	TOGGLE	F	Ich Offset Enable
ICHOFFSET	QUANT	0	Ich Offset (V)
ICHFILTER	IQUANT	1	Ich Filter
VCHRANGE	IQUANT	2	Vch Range
VCHRANGEMODE	TOGGLE	T	Vch Auto Range
VCHOFFSETENABLE	TOGGLE	F	Vch Offset Enable
VCHOFFSET	QUANT	0	Vch Offset (V)
VCHFILTER	IQUANT	1	Vch Filter
IERANGELOWERLIMIT	IQUANT	9	I/E Range Lower Limit
IERANGEMODE	TOGGLE	F	I/E AutoRange
IERANGE	IQUANT	9	I/E Range
ACHSELECT	IQUANT	1	Ach Select
ACHRANGE	IQUANT	2	Ach Range
ACHOFFSETENABLE	TOGGLE	F	Ach Offset Enable
ACHOFFSET	QUANT	0	Ach Offset (V)
ACHFILTER	IQUANT	1	Ach Filter
CABLEID	IQUANT	14	Cable ID
DCCALDATE	LABEL	5-7-2017	DC Calibration Date
ACCALDATE	LABEL	12/3/2015	AC Calibration Date
FRAMEWORKVERSION	QUANT	7.01	Framework Version
INSTRUMENTVERSION	LABEL	4.00	Instrument Version
CURVE	TABLE	88
	Pt	T	Vf	Im	Vu	Pwr	Sig	Ach	Temp	IERange	Over
	#	s	V	A	V	W	V	V	deg C	#	bits
	0	0.013333	8.48851E-001	-9.91291E-005	0.00000E+000	-8.41459E-005	-5.99601E-002	8.49211E-001	3.57990E+000	9	...........
	1	0.026667	8.34983E-001	-9.88489E-005	0.00000E+000	-8.25371E-005	-5.99601E-002	8.35298E-001	3.57990E+000	9	...........
	2	0.04	8.21931E-001	-9.86259E-005	0.00000E+000	-8.10637E-005	-5.99601E-002	8.22273E-001	3.57990E+000	9	...........
	3	0.053333	8.09442E-001	-1.00371E-004	0.00000E+000	-8.12445E-005	-5.99601E-002	8.09777E-001	3.57990E+000	9	...........
	4	0.066667	7.97375E-001	-9.85978E-005	0.00000E+000	-7.86194E-005	-5.99601E-002	7.97700E-001	3.57990E+000	9	...........
	5	0.08	7.85568E-001	-9.88113E-005	0.00000E+000	-7.76230E-005	-5.99601E-002	7.85879E-001	3.57990E+000	9	...........
	6	0.093333	7.73981E-001	-9.94011E-005	0.00000E+000	-7.69345E-005	-5.99601E-002	7.74304E-001	3.57990E+000	9	...........
	7	0.106667	7.62556E-001	-9.92385E-005	0.00000E+000	-7.56749E-005	-5.99601E-002	7.62870E-001	3.57990E+000	9	...........
	8	0.12	7.51278E-001	-9.89583E-005	0.00000E+000	-7.43451E-005	-5.99601E-002	7.51589E-001	3.57990E+000	9	...........
	9	0.133333	7.40074E-001	-9.90854E-005	0.00000E+000	-7.33305E-005	-5.99601E-002	7.40381E-001	3.57990E+000	9	...........
	10	0.146667	7.28971E-001	-9.88447E-005	0.00000E+000	-7.20549E-005	-5.99601E-002	7.29264E-001	3.57990E+000	9	...........
	11	0.16	7.17903E-001	-9.87499E-005	0.00000E+000	-7.08928E-005	-5.99601E-002	7.18206E-001	3.57990E+000	9	...........
	12	0.173333	7.06865E-001	-9.88436E-005	0.00000E+000	-6.98691E-005	-5.99601E-002	7.07165E-001	3.57990E+000	9	...........
	13	0.186667	6.95887E-001	-9.92510E-005	0.00000E+000	-6.90675E-005	-5.99601E-002	6.96188E-001	3.57973E+000	9	...........
	14	0.2	6.84960E-001	-9.92312E-005	0.00000E+000	-6.79694E-005	-5.99601E-002	6.85225E-001	3.57850E+000	9	...........
	15	0.213333	6.74047E-001	-9.92958E-005	0.00000E+000	-6.69300E-005	-5.99601E-002	6.74308E-001	3.57850E+000	9	...........
	16	0.226667	6.63100E-001	-9.92791E-005	0.00000E+000	-6.58320E-005	-5.99601E-002	6.63405E-001	3.57850E+000	9	...........
	17	0.24	6.52216E-001	-9.94896E-005	0.00000E+000	-6.48887E-005	-5.99601E-002	6.52508E-001	3.57850E+000	9	...........
	18	0.253333	6.41353E-001	-9.83988E-005	0.00000E+000	-6.31084E-005	-5.99601E-002	6.41611E-001	3.57850E+000	9	...........
	19	0.266667	6.30473E-001	-9.92218E-005	0.00000E+000	-6.25567E-005	-5.99601E-002	6.30774E-001	3.57850E+000	9	...........
	20	0.28	6.19669E-001	-9.82883E-005	0.00000E+000	-6.09062E-005	-5.99601E-002	6.19924E-001	3.57850E+000	9	...........
	21	0.293333	6.08795E-001	-9.87363E-005	0.00000E+000	-6.01102E-005	-5.99601E-002	6.09117E-001	3.57850E+000	9	...........
	22	0.306667	5.98021E-001	-9.95177E-005	0.00000E+000	-5.95137E-005	-5.99601E-002	5.98290E-001	3.57850E+000	9	...........
	23	0.32	5.87251E-001	-9.97126E-005	0.00000E+000	-5.85563E-005	-5.99601E-002	5.87508E-001	3.57850E+000	9	...........
	24	0.333333	5.76479E-001	-1.00101E-004	0.00000E+000	-5.77063E-005	-5.99601E-002	5.76736E-001	3.57850E+000	9	...........
	25	0.346667	5.65762E-001	-9.92854E-005	0.00000E+000	-5.61719E-005	-5.99601E-002	5.66030E-001	3.57850E+000	9	...........
	26	0.36	5.55047E-001	-9.94552E-005	0.00000E+000	-5.52023E-005	-5.99601E-002	5.55305E-001	3.57850E+000	9	...........
	27	0.373333	5.44369E-001	-9.86988E-005	0.00000E+000	-5.37286E-005	-5.99601E-002	5.44632E-001	3.57850E+000	9	...........
	28	0.386667	5.33712E-001	-9.92469E-005	0.00000E+000	-5.29693E-005	-5.99601E-002	5.33959E-001	3.57850E+000	9	...........
	29	0.4	5.23100E-001	-9.84988E-005	0.00000E+000	-5.15247E-005	-5.99601E-002	5.23350E-001	3.57850E+000	9	...........
	30	0.413333	5.12547E-001	-9.95782E-005	0.00000E+000	-5.10385E-005	-5.99601E-002	5.12776E-001	3.57850E+000	9	...........
	31	0.426667	5.01982E-001	-9.95261E-005	0.00000E+000	-4.99603E-005	-5.99601E-002	5.02248E-001	3.57850E+000	9	...........
	32	0.44	4.91536E-001	-9.89135E-005	0.00000E+000	-4.86195E-005	-5.99601E-002	4.91774E-001	3.57850E+000	9	...........
	33	0.453333	4.81384E-001	-9.82758E-005	0.00000E+000	-4.73084E-005	-5.99601E-002	4.81528E-001	3.57850E+000	9	...........
	34	0.466667	4.71111E-001	-9.97782E-005	0.00000E+000	-4.70066E-005	-5.99601E-002	4.71206E-001	3.57850E+000	9	...........
	35	0.48	4.60791E-001	-9.81748E-005	0.00000E+000	-4.52380E-005	-5.99601E-002	4.60886E-001	3.57850E+000	9	...........
	36	0.493333	4.50522E-001	-9.97282E-005	0.00000E+000	-4.49297E-005	-5.99601E-002	4.50617E-001	3.57850E+000	9	...........
	37	0.506667	4.40314E-001	-9.95438E-005	0.00000E+000	-4.38305E-005	-5.99601E-002	4.40403E-001	3.57850E+000	9	...........
	38	0.52	4.30166E-001	-9.91760E-005	0.00000E+000	-4.26621E-005	-5.99601E-002	4.30255E-001	3.57850E+000	9	...........
	39	0.533333	4.20076E-001	-9.82498E-005	0.00000E+000	-4.12723E-005	-5.99601E-002	4.20164E-001	3.57850E+000	9	...........
	40	0.546667	4.10048E-001	-9.85926E-005	0.00000E+000	-4.04277E-005	-5.99601E-002	4.10130E-001	3.57850E+000	9	...........
	41	0.56	4.00080E-001	-9.79247E-005	0.00000E+000	-3.91778E-005	-5.99601E-002	4.00163E-001	3.57850E+000	9	...........
	42	0.573333	3.90170E-001	-9.84446E-005	0.00000E+000	-3.84101E-005	-5.99601E-002	3.90245E-001	3.57850E+000	9	...........
	43	0.586667	3.80313E-001	-9.83633E-005	0.00000E+000	-3.74089E-005	-5.99601E-002	3.80387E-001	3.57850E+000	9	...........
	44	0.6	3.70515E-001	-9.85394E-005	0.00000E+000	-3.65103E-005	-5.99601E-002	3.70588E-001	3.57850E+000	9	...........
	45	0.613333	3.60774E-001	-9.87790E-005	0.00000E+000	-3.56369E-005	-5.99601E-002	3.60844E-001	3.57850E+000	9	...........
	46	0.626667	3.51089E-001	-9.83873E-005	0.00000E+000	-3.45427E-005	-5.99601E-002	3.51160E-001	3.57850E+000	9	...........
	47	0.64	3.41462E-001	-9.89666E-005	0.00000E+000	-3.37933E-005	-5.99601E-002	3.41532E-001	3.57850E+000	9	...........
	48	0.653333	3.31889E-001	-9.93896E-005	0.00000E+000	-3.29863E-005	-5.99601E-002	3.31951E-001	3.57850E+000	9	...........
	49	0.666667	3.22373E-001	-9.86853E-005	0.00000E+000	-3.18134E-005	-5.99601E-002	3.22432E-001	3.57850E+000	9	...........
	50	0.68	3.12898E-001	-9.89645E-005	0.00000E+000	-3.09658E-005	-5.99601E-002	3.12956E-001	3.57850E+000	9	...........
	51	0.693333	3.03472E-001	-9.89760E-005	0.00000E+000	-3.00365E-005	-5.99601E-002	3.03529E-001	3.57850E+000	9	...........
	52	0.706667	2.94094E-001	-9.91843E-005	0.00000E+000	-2.91695E-005	-5.99601E-002	2.94150E-001	3.57850E+000	9	...........
	53	0.72	2.84772E-001	-9.85217E-005	0.00000E+000	-2.80562E-005	-5.99601E-002	2.84821E-001	3.57850E+000	9	...........
	54	0.733333	2.75487E-001	-9.85217E-005	0.00000E+000	-2.71415E-005	-5.99601E-002	2.75539E-001	3.57850E+000	9	...........
	55	0.746667	2.66253E-001	-9.82185E-005	0.00000E+000	-2.61509E-005	-5.99601E-002	2.66300E-001	3.57850E+000	9	...........
	56	0.76	2.57067E-001	-9.83227E-005	0.00000E+000	-2.52755E-005	-5.99601E-002	2.57109E-001	3.57850E+000	9	...........
	57	0.773333	2.47921E-001	-9.92229E-005	0.00000E+000	-2.45995E-005	-5.99601E-002	2.47959E-001	3.57850E+000	9	...........
	58	0.786667	2.38814E-001	-9.84144E-005	0.00000E+000	-2.35028E-005	-5.99601E-002	2.38847E-001	3.57850E+000	9	...........
	59	0.8	2.29767E-001	-9.91729E-005	0.00000E+000	-2.27867E-005	-5.99601E-002	2.29800E-001	3.57850E+000	9	...........
	60	0.813333	2.20756E-001	-9.92323E-005	0.00000E+000	-2.19061E-005	-5.99601E-002	2.20788E-001	3.57850E+000	9	...........
	61	0.826667	2.11783E-001	-9.87499E-005	0.00000E+000	-2.09135E-005	-5.99601E-002	2.11820E-001	3.57850E+000	9	...........
	62	0.84	2.02869E-001	-9.88666E-005	0.00000E+000	-2.00570E-005	-5.99601E-002	2.02906E-001	3.57850E+000	9	...........
	63	0.853333	1.94006E-001	-9.91677E-005	0.00000E+000	-1.92391E-005	-5.99601E-002	1.94032E-001	3.57850E+000	9	...........
	64	0.866667	1.85188E-001	-9.81550E-005	0.00000E+000	-1.81771E-005	-5.99601E-002	1.85217E-001	3.57850E+000	9	...........
	65	0.88	1.76426E-001	-9.88238E-005	0.00000E+000	-1.74351E-005	-5.99601E-002	1.76457E-001	3.57850E+000	9	...........
	66	0.893333	1.67725E-001	-9.91864E-005	0.00000E+000	-1.66361E-005	-5.99601E-002	1.67751E-001	3.57850E+000	9	...........
	67	0.906667	1.59081E-001	-9.90145E-005	0.00000E+000	-1.57514E-005	-5.99601E-002	1.59105E-001	3.57850E+000	9	...........
	68	0.92	1.50503E-001	-9.88197E-005	0.00000E+000	-1.48727E-005	-5.99601E-002	1.50525E-001	3.57850E+000	9	...........
	69	0.933333	1.41983E-001	-9.90395E-005	0.00000E+000	-1.40620E-005	-5.99601E-002	1.42003E-001	3.57850E+000	9	...........
	70	0.946667	1.33530E-001	-9.94542E-005	0.00000E+000	-1.32801E-005	-5.99601E-002	1.33549E-001	3.57850E+000	9	...........
	71	0.96	1.25150E-001	-9.95511E-005	0.00000E+000	-1.24588E-005	-5.99601E-002	1.25168E-001	3.57850E+000	9	...........
	72	0.97333	1.16837E-001	-9.88238E-005	0.00000E+000	-1.15463E-005	-5.99601E-002	1.16854E-001	3.57850E+000	9	...........
	73	0.98667	1.08594E-001	-9.96459E-005	0.00000E+000	-1.08209E-005	-5.99601E-002	1.08610E-001	3.57850E+000	9	...........
	74	1	1.00425E-001	-9.91635E-005	0.00000E+000	-9.95847E-006	-5.99601E-002	1.00436E-001	3.57850E+000	9	...........
	75	1.01333	9.23308E-002	-9.90020E-005	0.00000E+000	-9.14093E-006	-5.99601E-002	9.23422E-002	3.57850E+000	9	...........
	76	1.02667	8.43039E-002	-9.91395E-005	0.00000E+000	-8.35785E-006	-5.99601E-002	8.43131E-002	3.57850E+000	9	...........
	77	1.04	7.63529E-002	-9.95323E-005	0.00000E+000	-7.59958E-006	-5.99601E-002	7.63549E-002	3.57850E+000	9	...........
	78	1.05333	6.84727E-002	-9.84842E-005	0.00000E+000	-6.74348E-006	-5.99601E-002	6.84666E-002	3.57850E+000	9	...........
	79	1.06667	6.06502E-002	-9.84925E-005	0.00000E+000	-5.97359E-006	-5.99601E-002	6.06495E-002	3.57850E+000	9	...........
	80	1.08	5.29017E-002	-9.92406E-005	0.00000E+000	-5.25000E-006	-5.99601E-002	5.29011E-002	3.57850E+000	9	...........
	81	1.09333	4.52591E-002	-9.83508E-005	0.00000E+000	-4.45127E-006	-5.99601E-002	4.52479E-002	3.57850E+000	9	...........
	82	1.10667	3.76487E-002	-9.97324E-005	0.00000E+000	-3.75479E-006	-5.99601E-002	3.76412E-002	3.57850E+000	9	...........
	83	1.12	3.01063E-002	-9.86728E-005	0.00000E+000	-2.97067E-006	-5.99601E-002	3.00879E-002	3.57850E+000	9	...........
	84	1.13333	2.26231E-002	-9.88978E-005	0.00000E+000	-2.23738E-006	-5.99601E-002	2.25986E-002	3.57850E+000	9	...........
	85	1.14667	1.52045E-002	-9.86728E-005	0.00000E+000	-1.50027E-006	-5.99601E-002	1.51793E-002	3.57850E+000	9	...........
	86	1.16	7.84948E-003	-9.91010E-005	0.00000E+000	-7.77891E-007	-5.99601E-002	7.82550E-003	3.57850E+000	9	...........
	87	1.17	1.46727E-003	-9.94202E-005	0.00000E+000	-1.45876E-007	-5.99601E-002	1.43156E-003	3.57850E+000	9	...........
STARTTIMEOFFSET	QUANT	1138.138	Start Time Offset (s)
