EXPLAIN
TAG	PWR800_DISCHARGE
TITLE	LABEL	PWR Cyclic Charge Discharge (Cell) - Discharge Step	Test &Identifier
DATE	LABEL	13-7-2017	Date
TIME	LABEL	15:24:08	Time
NOTES	NOTES	2	&Notes...
	supercap test cell
	6M KOH
PSTAT	PSTAT	IFC5000-01520	Potentiostat
CAPACITY	QUANT	1.00000E-003	Capacity (A-hr)
CELLTYPE	SELECTOR	1	&Cell Type
WORKINGCONNECTION	SELECTOR	0	&Working Lead
MAXDISCHARGETIME	VARIABLEANDUNITS	1.00000E+002	s	1.00000E+002	second(s)	Max &Discharge Time
DISCHARGEMODE	MULTIPARAM	0	1.00000E-004	&Discharge Mode	Constant Current	Amp(s)
SAMPLETIME	QUANT	1.00000E-002	Sa&mple Period (s)
DISCHARGESTOPAT1	MULTIPARAM	3	0.00000E+000	Discharge Stop At &1	Voltage < Limit	V
DISCHARGESTOPAT2	MULTIPARAM	0	0.00000E+000	Discharge Stop At &2	None	N/A
AESBHCSELECTOR	TOGGLE	F	Save Both Half Cells
IRCOMP	TOGGLE	F	IR &Measure
EOC	QUANT	0	Open Circuit (V)
SEQUENCER	TOGGLE	TRUE	Run as Sequence
PSTATMODEL	IQUANT	53	Pstat Model
PSTATSECTION	LABEL	IFC5000-01520	Pstat Section
PSTATSERIALNO	LABEL	01520	Pstat Serial Number
CTRLMODE	IQUANT	0	Control Mode
ELECTROMETER	IQUANT	1	RE=0 or CS=1
IESTAB	IQUANT	0	I/E Stability
CASPEED	IQUANT	4	Control Amp Speed
CONVENTION	IQUANT	1	Current Convention
ICHRANGE	IQUANT	2	Ich Range
ICHRANGEMODE	TOGGLE	T	Ich Auto Range
ICHOFFSETENABLE	TOGGLE	F	Ich Offset Enable
ICHOFFSET	QUANT	0	Ich Offset (V)
ICHFILTER	IQUANT	1	Ich Filter
VCHRANGE	IQUANT	2	Vch Range
VCHRANGEMODE	TOGGLE	T	Vch Auto Range
VCHOFFSETENABLE	TOGGLE	F	Vch Offset Enable
VCHOFFSET	QUANT	0	Vch Offset (V)
VCHFILTER	IQUANT	1	Vch Filter
IERANGELOWERLIMIT	IQUANT	9	I/E Range Lower Limit
IERANGEMODE	TOGGLE	F	I/E AutoRange
IERANGE	IQUANT	9	I/E Range
ACHSELECT	IQUANT	1	Ach Select
ACHRANGE	IQUANT	2	Ach Range
ACHOFFSETENABLE	TOGGLE	F	Ach Offset Enable
ACHOFFSET	QUANT	0	Ach Offset (V)
ACHFILTER	IQUANT	1	Ach Filter
CABLEID	IQUANT	14	Cable ID
DCCALDATE	LABEL	5-7-2017	DC Calibration Date
ACCALDATE	LABEL	12/3/2015	AC Calibration Date
FRAMEWORKVERSION	QUANT	7.01	Framework Version
INSTRUMENTVERSION	LABEL	4.00	Instrument Version
CURVE	TABLE	89
	Pt	T	Vf	Im	Vu	Pwr	Sig	Ach	Temp	IERange	Over
	#	s	V	A	V	W	V	V	deg C	#	bits
	0	0.013333	8.50034E-001	-9.86207E-005	0.00000E+000	-8.38310E-005	-5.99601E-002	8.50389E-001	3.57990E+000	9	...........
	1	0.026667	8.36219E-001	-9.84863E-005	0.00000E+000	-8.23561E-005	-5.99601E-002	8.36571E-001	3.57990E+000	9	...........
	2	0.04	8.23276E-001	-9.89082E-005	0.00000E+000	-8.14287E-005	-5.99601E-002	8.23587E-001	3.57990E+000	9	...........
	3	0.053333	8.10862E-001	-9.84686E-005	0.00000E+000	-7.98445E-005	-5.99601E-002	8.11160E-001	3.57990E+000	9	...........
	4	0.066667	7.98883E-001	-9.96021E-005	0.00000E+000	-7.95705E-005	-5.99601E-002	7.99157E-001	3.57990E+000	9	...........
	5	0.08	7.87167E-001	-9.89780E-005	0.00000E+000	-7.79123E-005	-5.99601E-002	7.87451E-001	3.57868E+000	9	...........
	6	0.093333	7.75693E-001	-9.91500E-005	0.00000E+000	-7.69099E-005	-5.99601E-002	7.75960E-001	3.57850E+000	9	...........
	7	0.106667	7.64358E-001	-9.90760E-005	0.00000E+000	-7.57295E-005	-5.99601E-002	7.64642E-001	3.57850E+000	9	...........
	8	0.12	7.53167E-001	-9.85342E-005	0.00000E+000	-7.42127E-005	-5.99601E-002	7.53436E-001	3.57850E+000	9	...........
	9	0.133333	7.42049E-001	-9.86738E-005	0.00000E+000	-7.32209E-005	-5.99601E-002	7.42344E-001	3.57850E+000	9	...........
	10	0.146667	7.31010E-001	-9.89155E-005	0.00000E+000	-7.23083E-005	-5.99601E-002	7.31321E-001	3.57850E+000	9	...........
	11	0.16	7.20076E-001	-9.84738E-005	0.00000E+000	-7.09086E-005	-5.99601E-002	7.20351E-001	3.57850E+000	9	...........
	12	0.173333	7.09126E-001	-9.83706E-005	0.00000E+000	-6.97572E-005	-5.99601E-002	7.09411E-001	3.57850E+000	9	...........
	13	0.186667	6.98242E-001	-9.85957E-005	0.00000E+000	-6.88436E-005	-5.99601E-002	6.98521E-001	3.57850E+000	9	...........
	14	0.2	6.87392E-001	-9.84654E-005	0.00000E+000	-6.76843E-005	-5.99601E-002	6.87659E-001	3.57850E+000	9	...........
	15	0.213333	6.76558E-001	-9.86603E-005	0.00000E+000	-6.67494E-005	-5.99601E-002	6.76812E-001	3.57850E+000	9	...........
	16	0.226667	6.65735E-001	-9.89655E-005	0.00000E+000	-6.58848E-005	-5.99601E-002	6.65989E-001	3.57850E+000	9	...........
	17	0.24	6.54943E-001	-9.84571E-005	0.00000E+000	-6.44838E-005	-5.99601E-002	6.55179E-001	3.57850E+000	9	...........
	18	0.253333	6.44166E-001	-9.90322E-005	0.00000E+000	-6.37932E-005	-5.99601E-002	6.44404E-001	3.57850E+000	9	...........
	19	0.266667	6.33342E-001	-9.89353E-005	0.00000E+000	-6.26599E-005	-5.99601E-002	6.33596E-001	3.57850E+000	9	...........
	20	0.28	6.22618E-001	-9.84873E-005	0.00000E+000	-6.13200E-005	-5.99601E-002	6.22869E-001	3.57850E+000	9	...........
	21	0.293333	6.11843E-001	-9.93167E-005	0.00000E+000	-6.07662E-005	-5.99601E-002	6.12126E-001	3.57850E+000	9	...........
	22	0.306667	6.01130E-001	-9.95855E-005	0.00000E+000	-5.98638E-005	-5.99601E-002	6.01407E-001	3.57850E+000	9	...........
	23	0.32	5.90428E-001	-9.93562E-005	0.00000E+000	-5.86627E-005	-5.99601E-002	5.90701E-001	3.57850E+000	9	...........
	24	0.333333	5.79724E-001	-9.87343E-005	0.00000E+000	-5.72387E-005	-5.99601E-002	5.80012E-001	3.57850E+000	9	...........
	25	0.346667	5.69095E-001	-9.89447E-005	0.00000E+000	-5.63090E-005	-5.99601E-002	5.69363E-001	3.57850E+000	9	...........
	26	0.36	5.58425E-001	-9.89791E-005	0.00000E+000	-5.52724E-005	-5.99601E-002	5.58692E-001	3.57850E+000	9	...........
	27	0.373333	5.47813E-001	-9.87603E-005	0.00000E+000	-5.41021E-005	-5.99601E-002	5.48092E-001	3.57850E+000	9	...........
	28	0.386667	5.37219E-001	-9.85207E-005	0.00000E+000	-5.29271E-005	-5.99601E-002	5.37492E-001	3.57850E+000	9	...........
	29	0.4	5.26685E-001	-9.88134E-005	0.00000E+000	-5.20435E-005	-5.99601E-002	5.26924E-001	3.57850E+000	9	...........
	30	0.413333	5.16177E-001	-9.93948E-005	0.00000E+000	-5.13053E-005	-5.99601E-002	5.16418E-001	3.57850E+000	9	...........
	31	0.426667	5.05652E-001	-9.94531E-005	0.00000E+000	-5.02887E-005	-5.99601E-002	5.05926E-001	3.57850E+000	9	...........
	32	0.44	4.95254E-001	-9.97136E-005	0.00000E+000	-4.93836E-005	-5.99601E-002	4.95498E-001	3.57850E+000	9	...........
	33	0.453333	4.85065E-001	-9.91354E-005	0.00000E+000	-4.80871E-005	-5.99601E-002	4.85202E-001	3.57850E+000	9	...........
	34	0.466667	4.74911E-001	-9.88405E-005	0.00000E+000	-4.69404E-005	-5.99601E-002	4.75008E-001	3.57850E+000	9	...........
	35	0.48	4.64629E-001	-9.97772E-005	0.00000E+000	-4.63594E-005	-5.99601E-002	4.64724E-001	3.57850E+000	9	...........
	36	0.493333	4.54394E-001	-9.95948E-005	0.00000E+000	-4.52553E-005	-5.99601E-002	4.54489E-001	3.57850E+000	9	...........
	37	0.506667	4.44223E-001	-9.84373E-005	0.00000E+000	-4.37281E-005	-5.99601E-002	4.44315E-001	3.57850E+000	9	...........
	38	0.52	4.34104E-001	-9.89051E-005	0.00000E+000	-4.29351E-005	-5.99601E-002	4.34196E-001	3.57850E+000	9	...........
	39	0.533333	4.24048E-001	-9.83206E-005	0.00000E+000	-4.16927E-005	-5.99601E-002	4.24133E-001	3.57850E+000	9	...........
	40	0.546667	4.14043E-001	-9.86874E-005	0.00000E+000	-4.08608E-005	-5.99601E-002	4.14129E-001	3.57850E+000	9	...........
	41	0.56	4.04095E-001	-9.88343E-005	0.00000E+000	-3.99384E-005	-5.99601E-002	4.04175E-001	3.57850E+000	9	...........
	42	0.573333	3.94208E-001	-9.84561E-005	0.00000E+000	-3.88121E-005	-5.99601E-002	3.94281E-001	3.57850E+000	9	...........
	43	0.586667	3.84372E-001	-9.90697E-005	0.00000E+000	-3.80796E-005	-5.99601E-002	3.84442E-001	3.57850E+000	9	...........
	44	0.6	3.74596E-001	-9.92218E-005	0.00000E+000	-3.71681E-005	-5.99601E-002	3.74665E-001	3.57850E+000	9	...........
	45	0.613333	3.64880E-001	-9.87384E-005	0.00000E+000	-3.60276E-005	-5.99601E-002	3.64948E-001	3.57850E+000	9	...........
	46	0.626667	3.55214E-001	-9.91135E-005	0.00000E+000	-3.52065E-005	-5.99601E-002	3.55281E-001	3.57850E+000	9	...........
	47	0.64	3.45600E-001	-9.95240E-005	0.00000E+000	-3.43955E-005	-5.99601E-002	3.45665E-001	3.57850E+000	9	...........
	48	0.653333	3.36045E-001	-9.82852E-005	0.00000E+000	-3.30282E-005	-5.99601E-002	3.36107E-001	3.57850E+000	9	...........
	49	0.666667	3.26536E-001	-9.93354E-005	0.00000E+000	-3.24366E-005	-5.99601E-002	3.26596E-001	3.57850E+000	9	...........
	50	0.68	3.17076E-001	-9.89447E-005	0.00000E+000	-3.13730E-005	-5.99601E-002	3.17137E-001	3.57850E+000	9	...........
	51	0.693333	3.07662E-001	-9.89739E-005	0.00000E+000	-3.04505E-005	-5.99601E-002	3.07722E-001	3.57850E+000	9	...........
	52	0.706667	2.98297E-001	-9.90426E-005	0.00000E+000	-2.95441E-005	-5.99601E-002	2.98353E-001	3.57850E+000	9	...........
	53	0.72	2.88977E-001	-9.85092E-005	0.00000E+000	-2.84669E-005	-5.99601E-002	2.89036E-001	3.57850E+000	9	...........
	54	0.733333	2.79705E-001	-9.96626E-005	0.00000E+000	-2.78761E-005	-5.99601E-002	2.79763E-001	3.57850E+000	9	...........
	55	0.746667	2.70478E-001	-9.88416E-005	0.00000E+000	-2.67345E-005	-5.99601E-002	2.70532E-001	3.57850E+000	9	...........
	56	0.76	2.61294E-001	-9.89801E-005	0.00000E+000	-2.58629E-005	-5.99601E-002	2.61340E-001	3.57850E+000	9	...........
	57	0.773333	2.52154E-001	-9.89718E-005	0.00000E+000	-2.49561E-005	-5.99601E-002	2.52198E-001	3.57850E+000	9	...........
	58	0.786667	2.43060E-001	-9.95438E-005	0.00000E+000	-2.41951E-005	-5.99601E-002	2.43097E-001	3.57850E+000	9	...........
	59	0.8	2.34005E-001	-9.87217E-005	0.00000E+000	-2.31014E-005	-5.99601E-002	2.34044E-001	3.57850E+000	9	...........
	60	0.813333	2.24994E-001	-9.90041E-005	0.00000E+000	-2.22753E-005	-5.99601E-002	2.25031E-001	3.57850E+000	9	...........
	61	0.826667	2.16021E-001	-9.94959E-005	0.00000E+000	-2.14932E-005	-5.99601E-002	2.16057E-001	3.57850E+000	9	...........
	62	0.84	2.07107E-001	-9.86634E-005	0.00000E+000	-2.04339E-005	-5.99601E-002	2.07139E-001	3.57850E+000	9	...........
	63	0.853333	1.98231E-001	-9.93969E-005	0.00000E+000	-1.97036E-005	-5.99601E-002	1.98263E-001	3.57850E+000	9	...........
	64	0.866667	1.89411E-001	-9.99960E-005	0.00000E+000	-1.89403E-005	-5.99601E-002	1.89437E-001	3.57850E+000	9	...........
	65	0.88	1.80640E-001	-9.87072E-005	0.00000E+000	-1.78305E-005	-5.99601E-002	1.80670E-001	3.57850E+000	9	...........
	66	0.893333	1.71922E-001	-9.88332E-005	0.00000E+000	-1.69916E-005	-5.99601E-002	1.71952E-001	3.57850E+000	9	...........
	67	0.906667	1.63263E-001	-9.93781E-005	0.00000E+000	-1.62248E-005	-5.99601E-002	1.63288E-001	3.57850E+000	9	...........
	68	0.92	1.54662E-001	-9.89780E-005	0.00000E+000	-1.53082E-005	-5.99601E-002	1.54684E-001	3.57850E+000	9	...........
	69	0.933333	1.46127E-001	-9.97084E-005	0.00000E+000	-1.45701E-005	-5.99601E-002	1.46144E-001	3.57850E+000	9	...........
	70	0.946667	1.37652E-001	-9.83706E-005	0.00000E+000	-1.35409E-005	-5.99601E-002	1.37670E-001	3.57850E+000	9	...........
	71	0.96	1.29244E-001	-9.81362E-005	0.00000E+000	-1.26835E-005	-5.99601E-002	1.29259E-001	3.57850E+000	9	...........
	72	0.97333	1.20899E-001	-9.96699E-005	0.00000E+000	-1.20500E-005	-5.99601E-002	1.20914E-001	3.57850E+000	9	...........
	73	0.98667	1.12628E-001	-9.89166E-005	0.00000E+000	-1.11408E-005	-5.99601E-002	1.12639E-001	3.57850E+000	9	...........
	74	1	1.04426E-001	-9.93240E-005	0.00000E+000	-1.03720E-005	-5.99601E-002	1.04432E-001	3.57850E+000	9	...........
	75	1.01333	9.62918E-002	-9.91656E-005	0.00000E+000	-9.54884E-006	-5.99601E-002	9.62930E-002	3.57850E+000	9	...........
	76	1.02667	8.82274E-002	-9.88489E-005	0.00000E+000	-8.72118E-006	-5.99601E-002	8.82365E-002	3.57850E+000	9	...........
	77	1.04	8.02490E-002	-9.85134E-005	0.00000E+000	-7.90560E-006	-5.99601E-002	8.02463E-002	3.57850E+000	9	...........
	78	1.05333	7.23306E-002	-9.87249E-005	0.00000E+000	-7.14083E-006	-5.99601E-002	7.23240E-002	3.57850E+000	9	...........
	79	1.06667	6.44783E-002	-9.93500E-005	0.00000E+000	-6.40592E-006	-5.99601E-002	6.44775E-002	3.57850E+000	9	...........
	80	1.08	5.66984E-002	-9.89332E-005	0.00000E+000	-5.60936E-006	-5.99601E-002	5.66980E-002	3.57850E+000	9	...........
	81	1.09333	4.90043E-002	-9.90343E-005	0.00000E+000	-4.85311E-006	-5.99601E-002	4.89982E-002	3.57850E+000	9	...........
	82	1.10667	4.13800E-002	-9.87061E-005	0.00000E+000	-4.08446E-006	-5.99601E-002	4.13736E-002	3.57850E+000	9	...........
	83	1.12	3.38022E-002	-9.81758E-005	0.00000E+000	-3.31855E-006	-5.99601E-002	3.37917E-002	3.57850E+000	9	...........
	84	1.13333	2.62884E-002	-9.90281E-005	0.00000E+000	-2.60329E-006	-5.99601E-002	2.62719E-002	3.57850E+000	9	...........
	85	1.14667	1.88403E-002	-9.89218E-005	0.00000E+000	-1.86372E-006	-5.99601E-002	1.88218E-002	3.57850E+000	9	...........
	86	1.16	1.14528E-002	-9.90843E-005	0.00000E+000	-1.13480E-006	-5.99601E-002	1.14257E-002	3.57850E+000	9	...........
	87	1.17333	4.13244E-003	-9.84623E-005	0.00000E+000	-4.06890E-007	-5.99601E-002	4.09795E-003	3.57850E+000	9	...........
	88	1.17667	-4.16093E-004	-9.95021E-005	0.00000E+000	4.14021E-008	-5.99601E-002	-4.54092E-004	3.57850E+000	9	...........
STARTTIMEOFFSET	QUANT	1001.087	Start Time Offset (s)
