EXPLAIN
TAG	PWR800_DISCHARGE
TITLE	LABEL	PWR Cyclic Charge Discharge (Cell) - Discharge Step	Test &Identifier
DATE	LABEL	13-7-2017	Date
TIME	LABEL	15:34:39	Time
NOTES	NOTES	2	&Notes...
	supercap test cell
	6M KOH
PSTAT	PSTAT	IFC5000-01520	Potentiostat
CAPACITY	QUANT	1.00000E-003	Capacity (A-hr)
CELLTYPE	SELECTOR	1	&Cell Type
WORKINGCONNECTION	SELECTOR	0	&Working Lead
MAXDISCHARGETIME	VARIABLEANDUNITS	1.00000E+002	s	1.00000E+002	second(s)	Max &Discharge Time
DISCHARGEMODE	MULTIPARAM	0	1.00000E-004	&Discharge Mode	Constant Current	Amp(s)
SAMPLETIME	QUANT	1.00000E-002	Sa&mple Period (s)
DISCHARGESTOPAT1	MULTIPARAM	3	0.00000E+000	Discharge Stop At &1	Voltage < Limit	V
DISCHARGESTOPAT2	MULTIPARAM	0	0.00000E+000	Discharge Stop At &2	None	N/A
AESBHCSELECTOR	TOGGLE	F	Save Both Half Cells
IRCOMP	TOGGLE	F	IR &Measure
EOC	QUANT	0	Open Circuit (V)
SEQUENCER	TOGGLE	TRUE	Run as Sequence
PSTATMODEL	IQUANT	53	Pstat Model
PSTATSECTION	LABEL	IFC5000-01520	Pstat Section
PSTATSERIALNO	LABEL	01520	Pstat Serial Number
CTRLMODE	IQUANT	0	Control Mode
ELECTROMETER	IQUANT	1	RE=0 or CS=1
IESTAB	IQUANT	0	I/E Stability
CASPEED	IQUANT	4	Control Amp Speed
CONVENTION	IQUANT	1	Current Convention
ICHRANGE	IQUANT	2	Ich Range
ICHRANGEMODE	TOGGLE	T	Ich Auto Range
ICHOFFSETENABLE	TOGGLE	F	Ich Offset Enable
ICHOFFSET	QUANT	0	Ich Offset (V)
ICHFILTER	IQUANT	1	Ich Filter
VCHRANGE	IQUANT	2	Vch Range
VCHRANGEMODE	TOGGLE	T	Vch Auto Range
VCHOFFSETENABLE	TOGGLE	F	Vch Offset Enable
VCHOFFSET	QUANT	0	Vch Offset (V)
VCHFILTER	IQUANT	1	Vch Filter
IERANGELOWERLIMIT	IQUANT	9	I/E Range Lower Limit
IERANGEMODE	TOGGLE	F	I/E AutoRange
IERANGE	IQUANT	9	I/E Range
ACHSELECT	IQUANT	1	Ach Select
ACHRANGE	IQUANT	2	Ach Range
ACHOFFSETENABLE	TOGGLE	F	Ach Offset Enable
ACHOFFSET	QUANT	0	Ach Offset (V)
ACHFILTER	IQUANT	1	Ach Filter
CABLEID	IQUANT	14	Cable ID
DCCALDATE	LABEL	5-7-2017	DC Calibration Date
ACCALDATE	LABEL	12/3/2015	AC Calibration Date
FRAMEWORKVERSION	QUANT	7.01	Framework Version
INSTRUMENTVERSION	LABEL	4.00	Instrument Version
CURVE	TABLE	87
	Pt	T	Vf	Im	Vu	Pwr	Sig	Ach	Temp	IERange	Over
	#	s	V	A	V	W	V	V	deg C	#	bits
	0	0.013333	8.49018E-001	-9.87051E-005	0.00000E+000	-8.38024E-005	-5.99601E-002	8.49363E-001	3.57860E+000	9	...........
	1	0.026667	8.34898E-001	-9.88176E-005	0.00000E+000	-8.25026E-005	-5.99601E-002	8.35216E-001	3.57860E+000	9	...........
	2	0.04	8.21649E-001	-9.94750E-005	0.00000E+000	-8.17335E-005	-5.99601E-002	8.21981E-001	3.57860E+000	9	...........
	3	0.053333	8.08960E-001	-9.82331E-005	0.00000E+000	-7.94667E-005	-5.99601E-002	8.09267E-001	3.57860E+000	9	...........
	4	0.066667	7.96657E-001	-9.91739E-005	0.00000E+000	-7.90076E-005	-5.99601E-002	7.96991E-001	3.57860E+000	9	...........
	5	0.08	7.84680E-001	-9.86009E-005	0.00000E+000	-7.73702E-005	-5.99601E-002	7.84971E-001	3.57860E+000	9	...........
	6	0.093333	7.72886E-001	-9.95219E-005	0.00000E+000	-7.69191E-005	-5.99601E-002	7.73189E-001	3.57860E+000	9	...........
	7	0.106667	7.61268E-001	-9.91885E-005	0.00000E+000	-7.55090E-005	-5.99601E-002	7.61577E-001	3.57860E+000	9	...........
	8	0.12	7.49813E-001	-9.87197E-005	0.00000E+000	-7.40213E-005	-5.99601E-002	7.50095E-001	3.57860E+000	9	...........
	9	0.133333	7.38386E-001	-9.88791E-005	0.00000E+000	-7.30109E-005	-5.99601E-002	7.38705E-001	3.57860E+000	9	...........
	10	0.146667	7.27108E-001	-9.87343E-005	0.00000E+000	-7.17904E-005	-5.99601E-002	7.27376E-001	3.57860E+000	9	...........
	11	0.16	7.15815E-001	-9.92771E-005	0.00000E+000	-7.10640E-005	-5.99601E-002	7.16114E-001	3.57860E+000	9	...........
	12	0.173333	7.04596E-001	-9.89478E-005	0.00000E+000	-6.97182E-005	-5.99601E-002	7.04888E-001	3.57860E+000	9	...........
	13	0.186667	6.93433E-001	-9.91302E-005	0.00000E+000	-6.87401E-005	-5.99601E-002	6.93727E-001	3.57860E+000	9	...........
	14	0.2	6.82270E-001	-9.87832E-005	0.00000E+000	-6.73968E-005	-5.99601E-002	6.82589E-001	3.57860E+000	9	...........
	15	0.213333	6.71182E-001	-9.74079E-005	0.00000E+000	-6.53784E-005	-5.99601E-002	6.71458E-001	3.57860E+000	9	...........
	16	0.226667	6.60040E-001	-9.97220E-005	0.00000E+000	-6.58205E-005	-5.99601E-002	6.60319E-001	3.57860E+000	9	...........
	17	0.24	6.48978E-001	-9.88676E-005	0.00000E+000	-6.41629E-005	-5.99601E-002	6.49227E-001	3.57860E+000	9	...........
	18	0.253333	6.37911E-001	-9.88353E-005	0.00000E+000	-6.30481E-005	-5.99601E-002	6.38187E-001	3.57860E+000	9	...........
	19	0.266667	6.26882E-001	-9.88259E-005	0.00000E+000	-6.19522E-005	-5.99601E-002	6.27146E-001	3.57860E+000	9	...........
	20	0.28	6.15863E-001	-9.91562E-005	0.00000E+000	-6.10666E-005	-5.99601E-002	6.16129E-001	3.57860E+000	9	...........
	21	0.293333	6.04836E-001	-9.87228E-005	0.00000E+000	-5.97111E-005	-5.99601E-002	6.05133E-001	3.57860E+000	9	...........
	22	0.306667	5.93890E-001	-9.88072E-005	0.00000E+000	-5.86806E-005	-5.99601E-002	5.94163E-001	3.57860E+000	9	...........
	23	0.32	5.82917E-001	-9.91020E-005	0.00000E+000	-5.77682E-005	-5.99601E-002	5.83203E-001	3.57860E+000	9	...........
	24	0.333333	5.72029E-001	-9.84904E-005	0.00000E+000	-5.63394E-005	-5.99601E-002	5.72273E-001	3.57860E+000	9	...........
	25	0.346667	5.61120E-001	-9.94250E-005	0.00000E+000	-5.57894E-005	-5.99601E-002	5.61379E-001	3.57860E+000	9	...........
	26	0.36	5.50262E-001	-9.87790E-005	0.00000E+000	-5.43544E-005	-5.99601E-002	5.50501E-001	3.57860E+000	9	...........
	27	0.373333	5.39422E-001	-9.93802E-005	0.00000E+000	-5.36079E-005	-5.99601E-002	5.39677E-001	3.57860E+000	9	...........
	28	0.386667	5.28653E-001	-9.88759E-005	0.00000E+000	-5.22711E-005	-5.99601E-002	5.28889E-001	3.57860E+000	9	...........
	29	0.4	5.17908E-001	-9.95063E-005	0.00000E+000	-5.15351E-005	-5.99601E-002	5.18144E-001	3.57860E+000	9	...........
	30	0.413333	5.07176E-001	-9.85853E-005	0.00000E+000	-5.00001E-005	-5.99601E-002	5.07425E-001	3.57860E+000	9	...........
	31	0.426667	4.96565E-001	-9.96969E-005	0.00000E+000	-4.95060E-005	-5.99601E-002	4.96794E-001	3.57860E+000	9	...........
	32	0.44	4.86112E-001	-9.86582E-005	0.00000E+000	-4.79590E-005	-5.99601E-002	4.86279E-001	3.57860E+000	9	...........
	33	0.453333	4.75812E-001	-9.94406E-005	0.00000E+000	-4.73151E-005	-5.99601E-002	4.75912E-001	3.57860E+000	9	...........
	34	0.466667	4.65340E-001	-9.87145E-005	0.00000E+000	-4.59358E-005	-5.99601E-002	4.65438E-001	3.57860E+000	9	...........
	35	0.48	4.54929E-001	-9.85165E-005	0.00000E+000	-4.48180E-005	-5.99601E-002	4.55020E-001	3.57860E+000	9	...........
	36	0.493333	4.44574E-001	-9.84863E-005	0.00000E+000	-4.37844E-005	-5.99601E-002	4.44662E-001	3.57860E+000	9	...........
	37	0.506667	4.34287E-001	-9.86457E-005	0.00000E+000	-4.28405E-005	-5.99601E-002	4.34364E-001	3.57860E+000	9	...........
	38	0.52	4.24055E-001	-9.92844E-005	0.00000E+000	-4.21021E-005	-5.99601E-002	4.24135E-001	3.57860E+000	9	...........
	39	0.533333	4.13887E-001	-9.90874E-005	0.00000E+000	-4.10110E-005	-5.99601E-002	4.13970E-001	3.57860E+000	9	...........
	40	0.546667	4.03793E-001	-9.91229E-005	0.00000E+000	-4.00251E-005	-5.99601E-002	4.03863E-001	3.57860E+000	9	...........
	41	0.56	3.93754E-001	-9.94156E-005	0.00000E+000	-3.91453E-005	-5.99601E-002	3.93827E-001	3.57860E+000	9	...........
	42	0.573333	3.83781E-001	-9.83852E-005	0.00000E+000	-3.77584E-005	-5.99601E-002	3.83850E-001	3.57860E+000	9	...........
	43	0.586667	3.73867E-001	-9.87405E-005	0.00000E+000	-3.69158E-005	-5.99601E-002	3.73935E-001	3.57860E+000	9	...........
	44	0.6	3.64011E-001	-9.96386E-005	0.00000E+000	-3.62696E-005	-5.99601E-002	3.64081E-001	3.57860E+000	9	...........
	45	0.613333	3.54221E-001	-9.79705E-005	0.00000E+000	-3.47033E-005	-5.99601E-002	3.54287E-001	3.57860E+000	9	...........
	46	0.626667	3.44487E-001	-9.94479E-005	0.00000E+000	-3.42585E-005	-5.99601E-002	3.44547E-001	3.57860E+000	9	...........
	47	0.64	3.34813E-001	-9.83831E-005	0.00000E+000	-3.29400E-005	-5.99601E-002	3.34879E-001	3.57860E+000	9	...........
	48	0.653333	3.25201E-001	-9.83654E-005	0.00000E+000	-3.19886E-005	-5.99601E-002	3.25261E-001	3.57860E+000	9	...........
	49	0.666667	3.15633E-001	-9.97865E-005	0.00000E+000	-3.14959E-005	-5.99601E-002	3.15694E-001	3.57860E+000	9	...........
	50	0.68	3.06121E-001	-9.86947E-005	0.00000E+000	-3.02125E-005	-5.99601E-002	3.06176E-001	3.57860E+000	9	...........
	51	0.693333	2.96659E-001	-9.86384E-005	0.00000E+000	-2.92620E-005	-5.99601E-002	2.96710E-001	3.57860E+000	9	...........
	52	0.706667	2.87243E-001	-9.93062E-005	0.00000E+000	-2.85250E-005	-5.99601E-002	2.87294E-001	3.57860E+000	9	...........
	53	0.72	2.77878E-001	-9.93344E-005	0.00000E+000	-2.76028E-005	-5.99601E-002	2.77931E-001	3.57860E+000	9	...........
	54	0.733333	2.68562E-001	-9.77330E-005	0.00000E+000	-2.62474E-005	-5.99601E-002	2.68616E-001	3.57860E+000	9	...........
	55	0.746667	2.59296E-001	-9.86040E-005	0.00000E+000	-2.55677E-005	-5.99601E-002	2.59348E-001	3.57860E+000	9	...........
	56	0.76	2.50084E-001	-9.90729E-005	0.00000E+000	-2.47766E-005	-5.99601E-002	2.50124E-001	3.57860E+000	9	...........
	57	0.773333	2.40913E-001	-9.81529E-005	0.00000E+000	-2.36463E-005	-5.99601E-002	2.40953E-001	3.57860E+000	9	...........
	58	0.786667	2.31790E-001	-9.90874E-005	0.00000E+000	-2.29674E-005	-5.99601E-002	2.31829E-001	3.57860E+000	9	...........
	59	0.8	2.22716E-001	-9.80654E-005	0.00000E+000	-2.18407E-005	-5.99601E-002	2.22749E-001	3.57860E+000	9	...........
	60	0.813333	2.13688E-001	-9.82112E-005	0.00000E+000	-2.09865E-005	-5.99601E-002	2.13727E-001	3.57860E+000	9	...........
	61	0.826667	2.04720E-001	-9.89905E-005	0.00000E+000	-2.02654E-005	-5.99601E-002	2.04750E-001	3.57860E+000	9	...........
	62	0.84	1.95796E-001	-9.79435E-005	0.00000E+000	-1.91770E-005	-5.99601E-002	1.95826E-001	3.57860E+000	9	...........
	63	0.853333	1.86932E-001	-9.85946E-005	0.00000E+000	-1.84305E-005	-5.99601E-002	1.86961E-001	3.57860E+000	9	...........
	64	0.866667	1.78119E-001	-9.94979E-005	0.00000E+000	-1.77225E-005	-5.99601E-002	1.78149E-001	3.57860E+000	9	...........
	65	0.88	1.69373E-001	-9.86186E-005	0.00000E+000	-1.67033E-005	-5.99601E-002	1.69398E-001	3.57860E+000	9	...........
	66	0.893333	1.60694E-001	-9.86186E-005	0.00000E+000	-1.58474E-005	-5.99601E-002	1.60715E-001	3.57860E+000	9	...........
	67	0.906667	1.52071E-001	-9.89207E-005	0.00000E+000	-1.50430E-005	-5.99601E-002	1.52090E-001	3.57860E+000	9	...........
	68	0.92	1.43522E-001	-9.80112E-005	0.00000E+000	-1.40668E-005	-5.99601E-002	1.43535E-001	3.57965E+000	9	...........
	69	0.933333	1.35039E-001	-9.83383E-005	0.00000E+000	-1.32795E-005	-5.99601E-002	1.35049E-001	3.58000E+000	9	...........
	70	0.946667	1.26619E-001	-9.91260E-005	0.00000E+000	-1.25512E-005	-5.99601E-002	1.26630E-001	3.58000E+000	9	...........
	71	0.96	1.18280E-001	-9.92021E-005	0.00000E+000	-1.17336E-005	-5.99601E-002	1.18292E-001	3.58000E+000	9	...........
	72	0.97333	1.10015E-001	-9.79362E-005	0.00000E+000	-1.07744E-005	-5.99601E-002	1.10022E-001	3.58000E+000	9	...........
	73	0.98667	1.01813E-001	-9.81966E-005	0.00000E+000	-9.99774E-006	-5.99601E-002	1.01825E-001	3.58000E+000	9	...........
	74	1	9.36953E-002	-9.96844E-005	0.00000E+000	-9.33997E-006	-5.99601E-002	9.37038E-002	3.58000E+000	9	...........
	75	1.01333	8.56525E-002	-9.84727E-005	0.00000E+000	-8.43444E-006	-5.99601E-002	8.56532E-002	3.58000E+000	9	...........
	76	1.02667	7.76828E-002	-9.84581E-005	0.00000E+000	-7.64850E-006	-5.99601E-002	7.76804E-002	3.58000E+000	9	...........
	77	1.04	6.97727E-002	-9.92281E-005	0.00000E+000	-6.92341E-006	-5.99601E-002	6.97747E-002	3.58000E+000	9	...........
	78	1.05333	6.19459E-002	-9.93260E-005	0.00000E+000	-6.15284E-006	-5.99601E-002	6.19421E-002	3.58000E+000	9	...........
	79	1.06667	5.41811E-002	-9.91072E-005	0.00000E+000	-5.36974E-006	-5.99601E-002	5.41785E-002	3.58000E+000	9	...........
	80	1.08	4.65100E-002	-9.94584E-005	0.00000E+000	-4.62581E-006	-5.99601E-002	4.65026E-002	3.58000E+000	9	...........
	81	1.09333	3.89010E-002	-9.92844E-005	0.00000E+000	-3.86227E-006	-5.99601E-002	3.88853E-002	3.58000E+000	9	...........
	82	1.10667	3.13374E-002	-9.82623E-005	0.00000E+000	-3.07928E-006	-5.99601E-002	3.13242E-002	3.58000E+000	9	...........
	83	1.12	2.38448E-002	-9.83467E-005	0.00000E+000	-2.34506E-006	-5.99601E-002	2.38244E-002	3.58000E+000	9	...........
	84	1.13333	1.64185E-002	-9.84988E-005	0.00000E+000	-1.61720E-006	-5.99601E-002	1.63976E-002	3.58000E+000	9	...........
	85	1.14667	9.05872E-003	-9.90666E-005	0.00000E+000	-8.97417E-007	-5.99601E-002	9.02960E-003	3.58000E+000	9	...........
	86	1.15833	2.21278E-003	-9.93461E-005	0.00000E+000	-2.19831E-007	-5.99601E-002	2.17961E-003	3.58000E+000	9	...........
STARTTIMEOFFSET	QUANT	1476.482	Start Time Offset (s)
