EXPLAIN
TAG	PWR800_DISCHARGE
TITLE	LABEL	PWR Cyclic Charge Discharge (Cell) - Discharge Step	Test &Identifier
DATE	LABEL	13-7-2017	Date
TIME	LABEL	15:53:42	Time
NOTES	NOTES	2	&Notes...
	supercap test cell
	6M KOH
PSTAT	PSTAT	IFC5000-01520	Potentiostat
CAPACITY	QUANT	1.00000E-003	Capacity (A-hr)
CELLTYPE	SELECTOR	1	&Cell Type
WORKINGCONNECTION	SELECTOR	0	&Working Lead
MAXDISCHARGETIME	VARIABLEANDUNITS	1.00000E+002	s	1.00000E+002	second(s)	Max &Discharge Time
DISCHARGEMODE	MULTIPARAM	0	1.00000E-004	&Discharge Mode	Constant Current	Amp(s)
SAMPLETIME	QUANT	1.00000E-002	Sa&mple Period (s)
DISCHARGESTOPAT1	MULTIPARAM	3	0.00000E+000	Discharge Stop At &1	Voltage < Limit	V
DISCHARGESTOPAT2	MULTIPARAM	0	0.00000E+000	Discharge Stop At &2	None	N/A
AESBHCSELECTOR	TOGGLE	F	Save Both Half Cells
IRCOMP	TOGGLE	F	IR &Measure
EOC	QUANT	0	Open Circuit (V)
SEQUENCER	TOGGLE	TRUE	Run as Sequence
PSTATMODEL	IQUANT	53	Pstat Model
PSTATSECTION	LABEL	IFC5000-01520	Pstat Section
PSTATSERIALNO	LABEL	01520	Pstat Serial Number
CTRLMODE	IQUANT	0	Control Mode
ELECTROMETER	IQUANT	1	RE=0 or CS=1
IESTAB	IQUANT	0	I/E Stability
CASPEED	IQUANT	4	Control Amp Speed
CONVENTION	IQUANT	1	Current Convention
ICHRANGE	IQUANT	2	Ich Range
ICHRANGEMODE	TOGGLE	T	Ich Auto Range
ICHOFFSETENABLE	TOGGLE	F	Ich Offset Enable
ICHOFFSET	QUANT	0	Ich Offset (V)
ICHFILTER	IQUANT	1	Ich Filter
VCHRANGE	IQUANT	2	Vch Range
VCHRANGEMODE	TOGGLE	T	Vch Auto Range
VCHOFFSETENABLE	TOGGLE	F	Vch Offset Enable
VCHOFFSET	QUANT	0	Vch Offset (V)
VCHFILTER	IQUANT	1	Vch Filter
IERANGELOWERLIMIT	IQUANT	9	I/E Range Lower Limit
IERANGEMODE	TOGGLE	F	I/E AutoRange
IERANGE	IQUANT	9	I/E Range
ACHSELECT	IQUANT	1	Ach Select
ACHRANGE	IQUANT	2	Ach Range
ACHOFFSETENABLE	TOGGLE	F	Ach Offset Enable
ACHOFFSET	QUANT	0	Ach Offset (V)
ACHFILTER	IQUANT	1	Ach Filter
CABLEID	IQUANT	14	Cable ID
DCCALDATE	LABEL	5-7-2017	DC Calibration Date
ACCALDATE	LABEL	12/3/2015	AC Calibration Date
FRAMEWORKVERSION	QUANT	7.01	Framework Version
INSTRUMENTVERSION	LABEL	4.00	Instrument Version
CURVE	TABLE	85
	Pt	T	Vf	Im	Vu	Pwr	Sig	Ach	Temp	IERange	Over
	#	s	V	A	V	W	V	V	deg C	#	bits
	0	0.013333	8.46367E-001	-9.83123E-005	0.00000E+000	-8.32083E-005	-5.99601E-002	8.46694E-001	3.57900E+000	9	...........
	1	0.026667	8.32070E-001	-9.87197E-005	0.00000E+000	-8.21417E-005	-5.99601E-002	8.32367E-001	3.57900E+000	9	...........
	2	0.04	8.18578E-001	-9.84394E-005	0.00000E+000	-8.05803E-005	-5.99601E-002	8.18881E-001	3.57900E+000	9	...........
	3	0.053333	8.05649E-001	-9.85863E-005	0.00000E+000	-7.94260E-005	-5.99601E-002	8.05915E-001	3.57900E+000	9	...........
	4	0.066667	7.93100E-001	-9.83196E-005	0.00000E+000	-7.79772E-005	-5.99601E-002	7.93352E-001	3.57900E+000	9	...........
	5	0.08	7.80825E-001	-9.87884E-005	0.00000E+000	-7.71365E-005	-5.99601E-002	7.81070E-001	3.57900E+000	9	...........
	6	0.093333	7.68759E-001	-9.83321E-005	0.00000E+000	-7.55937E-005	-5.99601E-002	7.69004E-001	3.57900E+000	9	...........
	7	0.106667	7.56845E-001	-9.89895E-005	0.00000E+000	-7.49197E-005	-5.99601E-002	7.57070E-001	3.57900E+000	9	...........
	8	0.12	7.45027E-001	-9.87197E-005	0.00000E+000	-7.35488E-005	-5.99601E-002	7.45279E-001	3.57900E+000	9	...........
	9	0.133333	7.33302E-001	-9.86728E-005	0.00000E+000	-7.23570E-005	-5.99601E-002	7.33541E-001	3.57900E+000	9	...........
	10	0.146667	7.21674E-001	-9.85353E-005	0.00000E+000	-7.11104E-005	-5.99601E-002	7.21889E-001	3.57900E+000	9	...........
	11	0.16	7.10044E-001	-9.93312E-005	0.00000E+000	-7.05295E-005	-5.99601E-002	7.10291E-001	3.57900E+000	9	...........
	12	0.173333	6.98511E-001	-9.89864E-005	0.00000E+000	-6.91431E-005	-5.99601E-002	6.98749E-001	3.57900E+000	9	...........
	13	0.186667	6.86982E-001	-9.87415E-005	0.00000E+000	-6.78336E-005	-5.99601E-002	6.87235E-001	3.57900E+000	9	...........
	14	0.2	6.75517E-001	-9.82539E-005	0.00000E+000	-6.63722E-005	-5.99601E-002	6.75735E-001	3.57900E+000	9	...........
	15	0.213333	6.64032E-001	-9.82539E-005	0.00000E+000	-6.52437E-005	-5.99601E-002	6.64284E-001	3.57900E+000	9	...........
	16	0.226667	6.52603E-001	-9.91562E-005	0.00000E+000	-6.47096E-005	-5.99601E-002	6.52827E-001	3.57900E+000	9	...........
	17	0.24	6.41180E-001	-9.95230E-005	0.00000E+000	-6.38121E-005	-5.99601E-002	6.41413E-001	3.57900E+000	9	...........
	18	0.253333	6.29770E-001	-9.92323E-005	0.00000E+000	-6.24935E-005	-5.99601E-002	6.30028E-001	3.57900E+000	9	...........
	19	0.266667	6.18426E-001	-9.84394E-005	0.00000E+000	-6.08775E-005	-5.99601E-002	6.18673E-001	3.57900E+000	9	...........
	20	0.28	6.07045E-001	-9.93292E-005	0.00000E+000	-6.02972E-005	-5.99601E-002	6.07327E-001	3.57900E+000	9	...........
	21	0.293333	5.95753E-001	-9.94969E-005	0.00000E+000	-5.92756E-005	-5.99601E-002	5.96020E-001	3.57900E+000	9	...........
	22	0.306667	5.84445E-001	-9.85946E-005	0.00000E+000	-5.76231E-005	-5.99601E-002	5.84718E-001	3.57900E+000	9	...........
	23	0.32	5.73217E-001	-9.83123E-005	0.00000E+000	-5.63543E-005	-5.99601E-002	5.73485E-001	3.57900E+000	9	...........
	24	0.333333	5.61977E-001	-9.90166E-005	0.00000E+000	-5.56450E-005	-5.99601E-002	5.62253E-001	3.57900E+000	9	...........
	25	0.346667	5.50810E-001	-9.87655E-005	0.00000E+000	-5.44010E-005	-5.99601E-002	5.51069E-001	3.57900E+000	9	...........
	26	0.36	5.39665E-001	-9.84769E-005	0.00000E+000	-5.31445E-005	-5.99601E-002	5.39939E-001	3.57900E+000	9	...........
	27	0.373333	5.28569E-001	-9.90281E-005	0.00000E+000	-5.23432E-005	-5.99601E-002	5.28827E-001	3.57900E+000	9	...........
	28	0.386667	5.17560E-001	-9.89072E-005	0.00000E+000	-5.11904E-005	-5.99601E-002	5.17789E-001	3.57900E+000	9	...........
	29	0.4	5.06527E-001	-9.83050E-005	0.00000E+000	-4.97942E-005	-5.99601E-002	5.06801E-001	3.57900E+000	9	...........
	30	0.413333	4.95627E-001	-9.89624E-005	0.00000E+000	-4.90485E-005	-5.99601E-002	4.95899E-001	3.57900E+000	9	...........
	31	0.426667	4.84958E-001	-9.82862E-005	0.00000E+000	-4.76647E-005	-5.99601E-002	4.85124E-001	3.57900E+000	9	...........
	32	0.44	4.74349E-001	-9.89791E-005	0.00000E+000	-4.69506E-005	-5.99601E-002	4.74446E-001	3.57900E+000	9	...........
	33	0.453333	4.63615E-001	-9.96469E-005	0.00000E+000	-4.61978E-005	-5.99601E-002	4.63706E-001	3.57900E+000	9	...........
	34	0.466667	4.52955E-001	-9.91166E-005	0.00000E+000	-4.48953E-005	-5.99601E-002	4.53046E-001	3.57900E+000	9	...........
	35	0.48	4.42364E-001	-9.86811E-005	0.00000E+000	-4.36529E-005	-5.99601E-002	4.42455E-001	3.57900E+000	9	...........
	36	0.493333	4.31849E-001	-9.85603E-005	0.00000E+000	-4.25631E-005	-5.99601E-002	4.31935E-001	3.57900E+000	9	...........
	37	0.506667	4.21398E-001	-9.88343E-005	0.00000E+000	-4.16486E-005	-5.99601E-002	4.21483E-001	3.57900E+000	9	...........
	38	0.52	4.11027E-001	-9.85373E-005	0.00000E+000	-4.05015E-005	-5.99601E-002	4.11107E-001	3.57900E+000	9	...........
	39	0.533333	4.00733E-001	-9.92302E-005	0.00000E+000	-3.97648E-005	-5.99601E-002	4.00810E-001	3.57900E+000	9	...........
	40	0.546667	3.90502E-001	-9.92937E-005	0.00000E+000	-3.87744E-005	-5.99601E-002	3.90576E-001	3.57900E+000	9	...........
	41	0.56	3.80339E-001	-9.89645E-005	0.00000E+000	-3.76400E-005	-5.99601E-002	3.80413E-001	3.57900E+000	9	...........
	42	0.573333	3.70247E-001	-9.86582E-005	0.00000E+000	-3.65279E-005	-5.99601E-002	3.70312E-001	3.57900E+000	9	...........
	43	0.586667	3.60221E-001	-9.90989E-005	0.00000E+000	-3.56976E-005	-5.99601E-002	3.60287E-001	3.57900E+000	9	...........
	44	0.6	3.50266E-001	-9.82862E-005	0.00000E+000	-3.44264E-005	-5.99601E-002	3.50333E-001	3.57900E+000	9	...........
	45	0.613333	3.40377E-001	-9.82154E-005	0.00000E+000	-3.34302E-005	-5.99601E-002	3.40438E-001	3.57900E+000	9	...........
	46	0.626667	3.30543E-001	-9.80654E-005	0.00000E+000	-3.24148E-005	-5.99601E-002	3.30610E-001	3.57900E+000	9	...........
	47	0.64	3.20776E-001	-9.90760E-005	0.00000E+000	-3.17812E-005	-5.99601E-002	3.20835E-001	3.57900E+000	9	...........
	48	0.653333	3.11061E-001	-9.92677E-005	0.00000E+000	-3.08784E-005	-5.99601E-002	3.11120E-001	3.57900E+000	9	...........
	49	0.666667	3.01408E-001	-9.86655E-005	0.00000E+000	-2.97386E-005	-5.99601E-002	3.01472E-001	3.57900E+000	9	...........
	50	0.68	2.91817E-001	-9.92844E-005	0.00000E+000	-2.89729E-005	-5.99601E-002	2.91870E-001	3.57975E+000	9	...........
	51	0.693333	2.82272E-001	-9.90312E-005	0.00000E+000	-2.79537E-005	-5.99601E-002	2.82332E-001	3.58000E+000	9	...........
	52	0.706667	2.72786E-001	-9.88447E-005	0.00000E+000	-2.69634E-005	-5.99601E-002	2.72838E-001	3.58000E+000	9	...........
	53	0.72	2.63352E-001	-9.89926E-005	0.00000E+000	-2.60700E-005	-5.99601E-002	2.63403E-001	3.58000E+000	9	...........
	54	0.733333	2.53963E-001	-9.99147E-005	0.00000E+000	-2.53747E-005	-5.99601E-002	2.54016E-001	3.58000E+000	9	...........
	55	0.746667	2.44640E-001	-9.99147E-005	0.00000E+000	-2.44432E-005	-5.99601E-002	2.44686E-001	3.58000E+000	9	...........
	56	0.76	2.35369E-001	-9.79737E-005	0.00000E+000	-2.30599E-005	-5.99601E-002	2.35413E-001	3.58000E+000	9	...........
	57	0.773333	2.26146E-001	-9.88186E-005	0.00000E+000	-2.23474E-005	-5.99601E-002	2.26185E-001	3.58000E+000	9	...........
	58	0.786667	2.16978E-001	-9.85405E-005	0.00000E+000	-2.13811E-005	-5.99601E-002	2.17015E-001	3.58000E+000	9	...........
	59	0.8	2.07866E-001	-9.91072E-005	0.00000E+000	-2.06011E-005	-5.99601E-002	2.07901E-001	3.58000E+000	9	...........
	60	0.813333	1.98816E-001	-9.87343E-005	0.00000E+000	-1.96299E-005	-5.99601E-002	1.98846E-001	3.58000E+000	9	...........
	61	0.826667	1.89821E-001	-9.86155E-005	0.00000E+000	-1.87193E-005	-5.99601E-002	1.89849E-001	3.58000E+000	9	...........
	62	0.84	1.80886E-001	-9.91291E-005	0.00000E+000	-1.79311E-005	-5.99601E-002	1.80915E-001	3.58000E+000	9	...........
	63	0.853333	1.72023E-001	-9.90666E-005	0.00000E+000	-1.70417E-005	-5.99601E-002	1.72045E-001	3.58000E+000	9	...........
	64	0.866667	1.63230E-001	-9.95875E-005	0.00000E+000	-1.62557E-005	-5.99601E-002	1.63247E-001	3.58000E+000	9	...........
	65	0.88	1.54503E-001	-9.90124E-005	0.00000E+000	-1.52978E-005	-5.99601E-002	1.54519E-001	3.58000E+000	9	...........
	66	0.893333	1.45855E-001	-9.93052E-005	0.00000E+000	-1.44841E-005	-5.99601E-002	1.45862E-001	3.58000E+000	9	...........
	67	0.906667	1.37272E-001	-9.87322E-005	0.00000E+000	-1.35532E-005	-5.99601E-002	1.37280E-001	3.58000E+000	9	...........
	68	0.92	1.28766E-001	-9.92375E-005	0.00000E+000	-1.27784E-005	-5.99601E-002	1.28772E-001	3.58000E+000	9	...........
	69	0.933333	1.20330E-001	-9.84331E-005	0.00000E+000	-1.18444E-005	-5.99601E-002	1.20338E-001	3.58000E+000	9	...........
	70	0.946667	1.11982E-001	-9.93083E-005	0.00000E+000	-1.11207E-005	-5.99601E-002	1.11983E-001	3.58000E+000	9	...........
	71	0.96	1.03700E-001	-9.91020E-005	0.00000E+000	-1.02769E-005	-5.99601E-002	1.03707E-001	3.58000E+000	9	...........
	72	0.97333	9.54973E-002	-9.89259E-005	0.00000E+000	-9.44716E-006	-5.99601E-002	9.55001E-002	3.58000E+000	9	...........
	73	0.98667	8.73706E-002	-9.89218E-005	0.00000E+000	-8.64285E-006	-5.99601E-002	8.73752E-002	3.58000E+000	9	...........
	74	1	7.93273E-002	-9.89999E-005	0.00000E+000	-7.85339E-006	-5.99601E-002	7.93218E-002	3.58000E+000	9	...........
	75	1.01333	7.13480E-002	-9.89885E-005	0.00000E+000	-7.06263E-006	-5.99601E-002	7.13444E-002	3.58000E+000	9	...........
	76	1.02667	6.34428E-002	-9.89739E-005	0.00000E+000	-6.27918E-006	-5.99601E-002	6.34389E-002	3.58000E+000	9	...........
	77	1.04	5.56136E-002	-9.86082E-005	0.00000E+000	-5.48395E-006	-5.99601E-002	5.56083E-002	3.58000E+000	9	...........
	78	1.05333	4.78793E-002	-9.82248E-005	0.00000E+000	-4.70293E-006	-5.99601E-002	4.78672E-002	3.58000E+000	9	...........
	79	1.06667	4.02088E-002	-9.83758E-005	0.00000E+000	-3.95558E-006	-5.99601E-002	4.01933E-002	3.58000E+000	9	...........
	80	1.08	3.25858E-002	-9.82446E-005	0.00000E+000	-3.20137E-006	-5.99601E-002	3.25719E-002	3.58000E+000	9	...........
	81	1.09333	2.50388E-002	-9.80622E-005	0.00000E+000	-2.45536E-006	-5.99601E-002	2.50185E-002	3.58000E+000	9	...........
	82	1.10667	1.75560E-002	-9.87301E-005	0.00000E+000	-1.73330E-006	-5.99601E-002	1.75335E-002	3.58000E+000	9	...........
	83	1.12	1.01453E-002	-9.92166E-005	0.00000E+000	-1.00658E-006	-5.99601E-002	1.01152E-002	3.58000E+000	9	...........
	84	1.13333	2.79811E-003	-9.87874E-005	0.00000E+000	-2.76418E-007	-5.99601E-002	2.76519E-003	3.58000E+000	9	...........
STARTTIMEOFFSET	QUANT	2333.283	Start Time Offset (s)
