EXPLAIN
TAG	PWR800_DISCHARGE
TITLE	LABEL	PWR Cyclic Charge Discharge (Cell) - Discharge Step	Test &Identifier
DATE	LABEL	13-7-2017	Date
TIME	LABEL	15:53:57	Time
NOTES	NOTES	2	&Notes...
	supercap test cell
	6M KOH
PSTAT	PSTAT	IFC5000-01520	Potentiostat
CAPACITY	QUANT	1.00000E-003	Capacity (A-hr)
CELLTYPE	SELECTOR	1	&Cell Type
WORKINGCONNECTION	SELECTOR	0	&Working Lead
MAXDISCHARGETIME	VARIABLEANDUNITS	1.00000E+002	s	1.00000E+002	second(s)	Max &Discharge Time
DISCHARGEMODE	MULTIPARAM	0	1.00000E-004	&Discharge Mode	Constant Current	Amp(s)
SAMPLETIME	QUANT	1.00000E-002	Sa&mple Period (s)
DISCHARGESTOPAT1	MULTIPARAM	3	0.00000E+000	Discharge Stop At &1	Voltage < Limit	V
DISCHARGESTOPAT2	MULTIPARAM	0	0.00000E+000	Discharge Stop At &2	None	N/A
AESBHCSELECTOR	TOGGLE	F	Save Both Half Cells
IRCOMP	TOGGLE	F	IR &Measure
EOC	QUANT	0	Open Circuit (V)
SEQUENCER	TOGGLE	TRUE	Run as Sequence
PSTATMODEL	IQUANT	53	Pstat Model
PSTATSECTION	LABEL	IFC5000-01520	Pstat Section
PSTATSERIALNO	LABEL	01520	Pstat Serial Number
CTRLMODE	IQUANT	0	Control Mode
ELECTROMETER	IQUANT	1	RE=0 or CS=1
IESTAB	IQUANT	0	I/E Stability
CASPEED	IQUANT	4	Control Amp Speed
CONVENTION	IQUANT	1	Current Convention
ICHRANGE	IQUANT	2	Ich Range
ICHRANGEMODE	TOGGLE	T	Ich Auto Range
ICHOFFSETENABLE	TOGGLE	F	Ich Offset Enable
ICHOFFSET	QUANT	0	Ich Offset (V)
ICHFILTER	IQUANT	1	Ich Filter
VCHRANGE	IQUANT	2	Vch Range
VCHRANGEMODE	TOGGLE	T	Vch Auto Range
VCHOFFSETENABLE	TOGGLE	F	Vch Offset Enable
VCHOFFSET	QUANT	0	Vch Offset (V)
VCHFILTER	IQUANT	1	Vch Filter
IERANGELOWERLIMIT	IQUANT	9	I/E Range Lower Limit
IERANGEMODE	TOGGLE	F	I/E AutoRange
IERANGE	IQUANT	9	I/E Range
ACHSELECT	IQUANT	1	Ach Select
ACHRANGE	IQUANT	2	Ach Range
ACHOFFSETENABLE	TOGGLE	F	Ach Offset Enable
ACHOFFSET	QUANT	0	Ach Offset (V)
ACHFILTER	IQUANT	1	Ach Filter
CABLEID	IQUANT	14	Cable ID
DCCALDATE	LABEL	5-7-2017	DC Calibration Date
ACCALDATE	LABEL	12/3/2015	AC Calibration Date
FRAMEWORKVERSION	QUANT	7.01	Framework Version
INSTRUMENTVERSION	LABEL	4.00	Instrument Version
CURVE	TABLE	85
	Pt	T	Vf	Im	Vu	Pwr	Sig	Ach	Temp	IERange	Over
	#	s	V	A	V	W	V	V	deg C	#	bits
	0	0.013333	8.45359E-001	-9.88874E-005	0.00000E+000	-8.35953E-005	-5.99601E-002	8.45674E-001	3.58000E+000	9	...........
	1	0.026667	8.31044E-001	-9.94229E-005	0.00000E+000	-8.26248E-005	-5.99601E-002	8.31362E-001	3.58000E+000	9	...........
	2	0.04	8.17570E-001	-9.84509E-005	0.00000E+000	-8.04904E-005	-5.99601E-002	8.17901E-001	3.58000E+000	9	...........
	3	0.053333	8.04648E-001	-9.88676E-005	0.00000E+000	-7.95536E-005	-5.99601E-002	8.04960E-001	3.58000E+000	9	...........
	4	0.066667	7.92097E-001	-9.83675E-005	0.00000E+000	-7.79166E-005	-5.99601E-002	7.92404E-001	3.58000E+000	9	...........
	5	0.08	7.79830E-001	-9.77465E-005	0.00000E+000	-7.62256E-005	-5.99601E-002	7.80131E-001	3.58000E+000	9	...........
	6	0.093333	7.67753E-001	-9.84936E-005	0.00000E+000	-7.56187E-005	-5.99601E-002	7.68065E-001	3.58000E+000	9	...........
	7	0.106667	7.55850E-001	-9.97334E-005	0.00000E+000	-7.53835E-005	-5.99601E-002	7.56142E-001	3.58000E+000	9	...........
	8	0.12	7.44058E-001	-9.95469E-005	0.00000E+000	-7.40686E-005	-5.99601E-002	7.44349E-001	3.58000E+000	9	...........
	9	0.133333	7.32326E-001	-9.94083E-005	0.00000E+000	-7.27993E-005	-5.99601E-002	7.32635E-001	3.58000E+000	9	...........
	10	0.146667	7.20693E-001	-9.91458E-005	0.00000E+000	-7.14537E-005	-5.99601E-002	7.20976E-001	3.58000E+000	9	...........
	11	0.16	7.09076E-001	-9.86519E-005	0.00000E+000	-6.99517E-005	-5.99601E-002	7.09348E-001	3.58000E+000	9	...........
	12	0.173333	6.97534E-001	-9.84227E-005	0.00000E+000	-6.86532E-005	-5.99601E-002	6.97805E-001	3.58000E+000	9	...........
	13	0.186667	6.86014E-001	-9.82717E-005	0.00000E+000	-6.74157E-005	-5.99601E-002	6.86317E-001	3.58000E+000	9	...........
	14	0.2	6.74537E-001	-9.90479E-005	0.00000E+000	-6.68114E-005	-5.99601E-002	6.74823E-001	3.58000E+000	9	...........
	15	0.213333	6.63070E-001	-9.84988E-005	0.00000E+000	-6.53116E-005	-5.99601E-002	6.63370E-001	3.58000E+000	9	...........
	16	0.226667	6.51627E-001	-9.88041E-005	0.00000E+000	-6.43834E-005	-5.99601E-002	6.51929E-001	3.58000E+000	9	...........
	17	0.24	6.40236E-001	-9.85780E-005	0.00000E+000	-6.31131E-005	-5.99601E-002	6.40502E-001	3.58000E+000	9	...........
	18	0.253333	6.28854E-001	-9.96480E-005	0.00000E+000	-6.26640E-005	-5.99601E-002	6.29122E-001	3.57860E+000	9	...........
	19	0.266667	6.17498E-001	-9.86144E-005	0.00000E+000	-6.08943E-005	-5.99601E-002	6.17734E-001	3.57860E+000	9	...........
	20	0.28	6.06120E-001	-9.87801E-005	0.00000E+000	-5.98726E-005	-5.99601E-002	6.06390E-001	3.57860E+000	9	...........
	21	0.293333	5.94818E-001	-9.87436E-005	0.00000E+000	-5.87344E-005	-5.99601E-002	5.95085E-001	3.57860E+000	9	...........
	22	0.306667	5.83532E-001	-9.90103E-005	0.00000E+000	-5.77757E-005	-5.99601E-002	5.83813E-001	3.57860E+000	9	...........
	23	0.32	5.72317E-001	-9.89978E-005	0.00000E+000	-5.66581E-005	-5.99601E-002	5.72563E-001	3.57860E+000	9	...........
	24	0.333333	5.61101E-001	-9.91447E-005	0.00000E+000	-5.56302E-005	-5.99601E-002	5.61344E-001	3.57860E+000	9	...........
	25	0.346667	5.49922E-001	-9.93260E-005	0.00000E+000	-5.46216E-005	-5.99601E-002	5.50170E-001	3.57860E+000	9	...........
	26	0.36	5.38791E-001	-9.83644E-005	0.00000E+000	-5.29978E-005	-5.99601E-002	5.39062E-001	3.57860E+000	9	...........
	27	0.373333	5.27710E-001	-9.85425E-005	0.00000E+000	-5.20019E-005	-5.99601E-002	5.27976E-001	3.57860E+000	9	...........
	28	0.386667	5.16691E-001	-9.88322E-005	0.00000E+000	-5.10657E-005	-5.99601E-002	5.16930E-001	3.57860E+000	9	...........
	29	0.4	5.05681E-001	-9.85675E-005	0.00000E+000	-4.98437E-005	-5.99601E-002	5.05968E-001	3.57860E+000	9	...........
	30	0.413333	4.94806E-001	-9.84154E-005	0.00000E+000	-4.86965E-005	-5.99601E-002	4.95040E-001	3.57860E+000	9	...........
	31	0.426667	4.84136E-001	-9.96605E-005	0.00000E+000	-4.82492E-005	-5.99601E-002	4.84316E-001	3.57860E+000	9	...........
	32	0.44	4.73528E-001	-9.85634E-005	0.00000E+000	-4.66725E-005	-5.99601E-002	4.73629E-001	3.57860E+000	9	...........
	33	0.453333	4.62812E-001	-9.93927E-005	0.00000E+000	-4.60001E-005	-5.99601E-002	4.62904E-001	3.57860E+000	9	...........
	34	0.466667	4.52164E-001	-9.89937E-005	0.00000E+000	-4.47614E-005	-5.99601E-002	4.52254E-001	3.57860E+000	9	...........
	35	0.48	4.41591E-001	-9.81862E-005	0.00000E+000	-4.33581E-005	-5.99601E-002	4.41680E-001	3.57860E+000	9	...........
	36	0.493333	4.31081E-001	-9.91562E-005	0.00000E+000	-4.27443E-005	-5.99601E-002	4.31169E-001	3.57860E+000	9	...........
	37	0.506667	4.20648E-001	-9.88416E-005	0.00000E+000	-4.15775E-005	-5.99601E-002	4.20733E-001	3.57860E+000	9	...........
	38	0.52	4.10288E-001	-9.91343E-005	0.00000E+000	-4.06736E-005	-5.99601E-002	4.10373E-001	3.57860E+000	9	...........
	39	0.533333	3.99996E-001	-9.90958E-005	0.00000E+000	-3.96379E-005	-5.99601E-002	4.00078E-001	3.57860E+000	9	...........
	40	0.546667	3.89771E-001	-9.86457E-005	0.00000E+000	-3.84492E-005	-5.99601E-002	3.89849E-001	3.57860E+000	9	...........
	41	0.56	3.79627E-001	-9.90885E-005	0.00000E+000	-3.76167E-005	-5.99601E-002	3.79699E-001	3.57860E+000	9	...........
	42	0.573333	3.69541E-001	-9.90322E-005	0.00000E+000	-3.65965E-005	-5.99601E-002	3.69617E-001	3.57860E+000	9	...........
	43	0.586667	3.59526E-001	-9.85530E-005	0.00000E+000	-3.54324E-005	-5.99601E-002	3.59599E-001	3.57860E+000	9	...........
	44	0.6	3.49582E-001	-9.87780E-005	0.00000E+000	-3.45310E-005	-5.99601E-002	3.49648E-001	3.57860E+000	9	...........
	45	0.613333	3.39699E-001	-9.85238E-005	0.00000E+000	-3.34684E-005	-5.99601E-002	3.39763E-001	3.57860E+000	9	...........
	46	0.626667	3.29873E-001	-9.92312E-005	0.00000E+000	-3.27337E-005	-5.99601E-002	3.29934E-001	3.57860E+000	9	...........
	47	0.64	3.20113E-001	-9.88436E-005	0.00000E+000	-3.16411E-005	-5.99601E-002	3.20168E-001	3.57860E+000	9	...........
	48	0.653333	3.10403E-001	-9.96417E-005	0.00000E+000	-3.09291E-005	-5.99601E-002	3.10459E-001	3.57860E+000	9	...........
	49	0.666667	3.00755E-001	-9.92698E-005	0.00000E+000	-2.98559E-005	-5.99601E-002	3.00813E-001	3.57860E+000	9	...........
	50	0.68	2.91166E-001	-9.89708E-005	0.00000E+000	-2.88169E-005	-5.99601E-002	2.91220E-001	3.57860E+000	9	...........
	51	0.693333	2.81633E-001	-9.80237E-005	0.00000E+000	-2.76067E-005	-5.99601E-002	2.81685E-001	3.57860E+000	9	...........
	52	0.706667	2.72147E-001	-9.81539E-005	0.00000E+000	-2.67123E-005	-5.99601E-002	2.72196E-001	3.57860E+000	9	...........
	53	0.72	2.62718E-001	-9.86936E-005	0.00000E+000	-2.59286E-005	-5.99601E-002	2.62767E-001	3.57860E+000	9	...........
	54	0.733333	2.53342E-001	-9.93698E-005	0.00000E+000	-2.51745E-005	-5.99601E-002	2.53388E-001	3.57860E+000	9	...........
	55	0.746667	2.44017E-001	-9.95594E-005	0.00000E+000	-2.42942E-005	-5.99601E-002	2.44061E-001	3.57860E+000	9	...........
	56	0.76	2.34754E-001	-9.84029E-005	0.00000E+000	-2.31005E-005	-5.99601E-002	2.34787E-001	3.57860E+000	9	...........
	57	0.773333	2.25537E-001	-9.90624E-005	0.00000E+000	-2.23423E-005	-5.99601E-002	2.25576E-001	3.57860E+000	9	...........
	58	0.786667	2.16381E-001	-9.86967E-005	0.00000E+000	-2.13561E-005	-5.99601E-002	2.16410E-001	3.57860E+000	9	...........
	59	0.8	2.07278E-001	-9.83196E-005	0.00000E+000	-2.03795E-005	-5.99601E-002	2.07307E-001	3.57860E+000	9	...........
	60	0.813333	1.98228E-001	-9.90281E-005	0.00000E+000	-1.96301E-005	-5.99601E-002	1.98259E-001	3.57860E+000	9	...........
	61	0.826667	1.89244E-001	-9.93635E-005	0.00000E+000	-1.88040E-005	-5.99601E-002	1.89267E-001	3.57860E+000	9	...........
	62	0.84	1.80317E-001	-9.87947E-005	0.00000E+000	-1.78144E-005	-5.99601E-002	1.80345E-001	3.57860E+000	9	...........
	63	0.853333	1.71463E-001	-9.79580E-005	0.00000E+000	-1.67962E-005	-5.99601E-002	1.71487E-001	3.57860E+000	9	...........
	64	0.866667	1.62670E-001	-9.90062E-005	0.00000E+000	-1.61053E-005	-5.99601E-002	1.62695E-001	3.57860E+000	9	...........
	65	0.88	1.53957E-001	-9.87634E-005	0.00000E+000	-1.52053E-005	-5.99601E-002	1.53972E-001	3.57860E+000	9	...........
	66	0.893333	1.45309E-001	-9.91093E-005	0.00000E+000	-1.44014E-005	-5.99601E-002	1.45325E-001	3.57860E+000	9	...........
	67	0.906667	1.36735E-001	-9.94490E-005	0.00000E+000	-1.35981E-005	-5.99601E-002	1.36747E-001	3.57860E+000	9	...........
	68	0.92	1.28233E-001	-9.86071E-005	0.00000E+000	-1.26447E-005	-5.99601E-002	1.28245E-001	3.57860E+000	9	...........
	69	0.933333	1.19808E-001	-9.89343E-005	0.00000E+000	-1.18531E-005	-5.99601E-002	1.19822E-001	3.57860E+000	9	...........
	70	0.946667	1.11457E-001	-9.87603E-005	0.00000E+000	-1.10075E-005	-5.99601E-002	1.11468E-001	3.57860E+000	9	...........
	71	0.96	1.03194E-001	-9.87759E-005	0.00000E+000	-1.01931E-005	-5.99601E-002	1.03200E-001	3.57860E+000	9	...........
	72	0.97333	9.50003E-002	-9.91291E-005	0.00000E+000	-9.41730E-006	-5.99601E-002	9.50091E-002	3.57860E+000	9	...........
	73	0.98667	8.68860E-002	-9.85821E-005	0.00000E+000	-8.56541E-006	-5.99601E-002	8.68916E-002	3.57860E+000	9	...........
	74	1	7.88478E-002	-9.85259E-005	0.00000E+000	-7.76855E-006	-5.99601E-002	7.88505E-002	3.57860E+000	9	...........
	75	1.01333	7.08740E-002	-9.93229E-005	0.00000E+000	-7.03941E-006	-5.99601E-002	7.08730E-002	3.57860E+000	9	...........
	76	1.02667	6.29788E-002	-9.86353E-005	0.00000E+000	-6.21193E-006	-5.99601E-002	6.29778E-002	3.57860E+000	9	...........
	77	1.04	5.51576E-002	-9.83769E-005	0.00000E+000	-5.42624E-006	-5.99601E-002	5.51517E-002	3.57860E+000	9	...........
	78	1.05333	4.74300E-002	-9.84727E-005	0.00000E+000	-4.67056E-006	-5.99601E-002	4.74144E-002	3.57860E+000	9	...........
	79	1.06667	3.97605E-002	-9.88291E-005	0.00000E+000	-3.92949E-006	-5.99601E-002	3.97492E-002	3.57860E+000	9	...........
	80	1.08	3.21455E-002	-9.90322E-005	0.00000E+000	-3.18344E-006	-5.99601E-002	3.21313E-002	3.57860E+000	9	...........
	81	1.09333	2.46003E-002	-9.87113E-005	0.00000E+000	-2.42833E-006	-5.99601E-002	2.45799E-002	3.57860E+000	9	...........
	82	1.10667	1.71249E-002	-9.93187E-005	0.00000E+000	-1.70082E-006	-5.99601E-002	1.71026E-002	3.57860E+000	9	...........
	83	1.12	9.71733E-003	-9.91885E-005	0.00000E+000	-9.63847E-007	-5.99601E-002	9.68875E-003	3.57860E+000	9	...........
	84	1.13333	2.37704E-003	-9.94834E-005	0.00000E+000	-2.36475E-007	-5.99601E-002	2.34399E-003	3.57860E+000	9	...........
STARTTIMEOFFSET	QUANT	2344.871	Start Time Offset (s)
