EXPLAIN
TAG	PWR800_DISCHARGE
TITLE	LABEL	PWR Cyclic Charge Discharge (Cell) - Discharge Step	Test &Identifier
DATE	LABEL	13-7-2017	Date
TIME	LABEL	15:15:59	Time
NOTES	NOTES	2	&Notes...
	supercap test cell
	6M KOH
PSTAT	PSTAT	IFC5000-01520	Potentiostat
CAPACITY	QUANT	1.00000E-003	Capacity (A-hr)
CELLTYPE	SELECTOR	1	&Cell Type
WORKINGCONNECTION	SELECTOR	0	&Working Lead
MAXDISCHARGETIME	VARIABLEANDUNITS	1.00000E+002	s	1.00000E+002	second(s)	Max &Discharge Time
DISCHARGEMODE	MULTIPARAM	0	1.00000E-004	&Discharge Mode	Constant Current	Amp(s)
SAMPLETIME	QUANT	1.00000E-002	Sa&mple Period (s)
DISCHARGESTOPAT1	MULTIPARAM	3	0.00000E+000	Discharge Stop At &1	Voltage < Limit	V
DISCHARGESTOPAT2	MULTIPARAM	0	0.00000E+000	Discharge Stop At &2	None	N/A
AESBHCSELECTOR	TOGGLE	F	Save Both Half Cells
IRCOMP	TOGGLE	F	IR &Measure
EOC	QUANT	0	Open Circuit (V)
SEQUENCER	TOGGLE	TRUE	Run as Sequence
PSTATMODEL	IQUANT	53	Pstat Model
PSTATSECTION	LABEL	IFC5000-01520	Pstat Section
PSTATSERIALNO	LABEL	01520	Pstat Serial Number
CTRLMODE	IQUANT	0	Control Mode
ELECTROMETER	IQUANT	1	RE=0 or CS=1
IESTAB	IQUANT	0	I/E Stability
CASPEED	IQUANT	4	Control Amp Speed
CONVENTION	IQUANT	1	Current Convention
ICHRANGE	IQUANT	2	Ich Range
ICHRANGEMODE	TOGGLE	T	Ich Auto Range
ICHOFFSETENABLE	TOGGLE	F	Ich Offset Enable
ICHOFFSET	QUANT	0	Ich Offset (V)
ICHFILTER	IQUANT	1	Ich Filter
VCHRANGE	IQUANT	2	Vch Range
VCHRANGEMODE	TOGGLE	T	Vch Auto Range
VCHOFFSETENABLE	TOGGLE	F	Vch Offset Enable
VCHOFFSET	QUANT	0	Vch Offset (V)
VCHFILTER	IQUANT	1	Vch Filter
IERANGELOWERLIMIT	IQUANT	9	I/E Range Lower Limit
IERANGEMODE	TOGGLE	F	I/E AutoRange
IERANGE	IQUANT	9	I/E Range
ACHSELECT	IQUANT	1	Ach Select
ACHRANGE	IQUANT	2	Ach Range
ACHOFFSETENABLE	TOGGLE	F	Ach Offset Enable
ACHOFFSET	QUANT	0	Ach Offset (V)
ACHFILTER	IQUANT	1	Ach Filter
CABLEID	IQUANT	14	Cable ID
DCCALDATE	LABEL	5-7-2017	DC Calibration Date
ACCALDATE	LABEL	12/3/2015	AC Calibration Date
FRAMEWORKVERSION	QUANT	7.01	Framework Version
INSTRUMENTVERSION	LABEL	4.00	Instrument Version
CURVE	TABLE	90
	Pt	T	Vf	Im	Vu	Pwr	Sig	Ach	Temp	IERange	Over
	#	s	V	A	V	W	V	V	deg C	#	bits
	0	0.013333	8.52058E-001	-9.88374E-005	0.00000E+000	-8.42151E-005	-5.99601E-002	8.52398E-001	3.58010E+000	9	...........
	1	0.026667	8.38556E-001	-9.84102E-005	0.00000E+000	-8.25225E-005	-5.99601E-002	8.38882E-001	3.58010E+000	9	...........
	2	0.04	8.25877E-001	-9.93177E-005	0.00000E+000	-8.20242E-005	-5.99601E-002	8.26182E-001	3.58010E+000	9	...........
	3	0.053333	8.13763E-001	-9.86509E-005	0.00000E+000	-8.02785E-005	-5.99601E-002	8.14065E-001	3.58010E+000	9	...........
	4	0.066667	8.02064E-001	-9.81685E-005	0.00000E+000	-7.87374E-005	-5.99601E-002	8.02373E-001	3.58010E+000	9	...........
	5	0.08	7.90662E-001	-9.80445E-005	0.00000E+000	-7.75201E-005	-5.99601E-002	7.90939E-001	3.58010E+000	9	...........
	6	0.093333	7.79446E-001	-9.86894E-005	0.00000E+000	-7.69231E-005	-5.99601E-002	7.79736E-001	3.58010E+000	9	...........
	7	0.106667	7.68405E-001	-9.93865E-005	0.00000E+000	-7.63691E-005	-5.99601E-002	7.68701E-001	3.57870E+000	9	...........
	8	0.12	7.57510E-001	-9.90281E-005	0.00000E+000	-7.50148E-005	-5.99601E-002	7.57787E-001	3.57870E+000	9	...........
	9	0.133333	7.46709E-001	-9.93865E-005	0.00000E+000	-7.42127E-005	-5.99601E-002	7.46984E-001	3.57870E+000	9	...........
	10	0.146667	7.35951E-001	-9.84175E-005	0.00000E+000	-7.24305E-005	-5.99601E-002	7.36245E-001	3.57870E+000	9	...........
	11	0.16	7.25296E-001	-9.95323E-005	0.00000E+000	-7.21904E-005	-5.99601E-002	7.25578E-001	3.57870E+000	9	...........
	12	0.173333	7.14667E-001	-9.85425E-005	0.00000E+000	-7.04251E-005	-5.99601E-002	7.14943E-001	3.57870E+000	9	...........
	13	0.186667	7.04080E-001	-9.87676E-005	0.00000E+000	-6.95403E-005	-5.99601E-002	7.04379E-001	3.57870E+000	9	...........
	14	0.2	6.93519E-001	-9.74142E-005	0.00000E+000	-6.75586E-005	-5.99601E-002	6.93808E-001	3.57870E+000	9	...........
	15	0.213333	6.82994E-001	-9.98647E-005	0.00000E+000	-6.82070E-005	-5.99601E-002	6.83267E-001	3.57870E+000	9	...........
	16	0.226667	6.72481E-001	-9.94615E-005	0.00000E+000	-6.68860E-005	-5.99601E-002	6.72759E-001	3.57870E+000	9	...........
	17	0.24	6.61950E-001	-9.89134E-005	0.00000E+000	-6.54757E-005	-5.99601E-002	6.62239E-001	3.57870E+000	9	...........
	18	0.253333	6.51462E-001	-9.91520E-005	0.00000E+000	-6.45938E-005	-5.99601E-002	6.51723E-001	3.57870E+000	9	...........
	19	0.266667	6.40948E-001	-9.92489E-005	0.00000E+000	-6.36134E-005	-5.99601E-002	6.41234E-001	3.57870E+000	9	...........
	20	0.28	6.30472E-001	-9.86988E-005	0.00000E+000	-6.22268E-005	-5.99601E-002	6.30742E-001	3.57870E+000	9	...........
	21	0.293333	6.20046E-001	-9.85800E-005	0.00000E+000	-6.11241E-005	-5.99601E-002	6.20258E-001	3.57870E+000	9	...........
	22	0.306667	6.09519E-001	-9.87009E-005	0.00000E+000	-6.01601E-005	-5.99601E-002	6.09791E-001	3.57870E+000	9	...........
	23	0.32	5.99093E-001	-9.84081E-005	0.00000E+000	-5.89556E-005	-5.99601E-002	5.99328E-001	3.57870E+000	9	...........
	24	0.333333	5.88664E-001	-9.95959E-005	0.00000E+000	-5.86285E-005	-5.99601E-002	5.88913E-001	3.57870E+000	9	...........
	25	0.346667	5.78240E-001	-9.98168E-005	0.00000E+000	-5.77181E-005	-5.99601E-002	5.78497E-001	3.57870E+000	9	...........
	26	0.36	5.67859E-001	-9.89583E-005	0.00000E+000	-5.61943E-005	-5.99601E-002	5.68106E-001	3.57870E+000	9	...........
	27	0.373333	5.57454E-001	-9.90635E-005	0.00000E+000	-5.52233E-005	-5.99601E-002	5.57697E-001	3.57870E+000	9	...........
	28	0.386667	5.47100E-001	-9.93667E-005	0.00000E+000	-5.43635E-005	-5.99601E-002	5.47355E-001	3.57870E+000	9	...........
	29	0.4	5.36761E-001	-9.87728E-005	0.00000E+000	-5.30174E-005	-5.99601E-002	5.37047E-001	3.57870E+000	9	...........
	30	0.413333	5.26465E-001	-9.89530E-005	0.00000E+000	-5.20953E-005	-5.99601E-002	5.26734E-001	3.57870E+000	9	...........
	31	0.426667	5.16211E-001	-9.87593E-005	0.00000E+000	-5.09806E-005	-5.99601E-002	5.16455E-001	3.57870E+000	9	...........
	32	0.44	5.05916E-001	-9.91500E-005	0.00000E+000	-5.01615E-005	-5.99601E-002	5.06196E-001	3.57870E+000	9	...........
	33	0.453333	4.95742E-001	-9.85238E-005	0.00000E+000	-4.88424E-005	-5.99601E-002	4.96009E-001	3.57870E+000	9	...........
	34	0.466667	4.85718E-001	-9.94000E-005	0.00000E+000	-4.82804E-005	-5.99601E-002	4.85913E-001	3.57870E+000	9	...........
	35	0.48	4.75832E-001	-9.89249E-005	0.00000E+000	-4.70716E-005	-5.99601E-002	4.75939E-001	3.57870E+000	9	...........
	36	0.493333	4.65752E-001	-9.90947E-005	0.00000E+000	-4.61535E-005	-5.99601E-002	4.65856E-001	3.57870E+000	9	...........
	37	0.506667	4.55722E-001	-9.85415E-005	0.00000E+000	-4.49075E-005	-5.99601E-002	4.55821E-001	3.57870E+000	9	...........
	38	0.52	4.45740E-001	-9.92739E-005	0.00000E+000	-4.42504E-005	-5.99601E-002	4.45837E-001	3.57870E+000	9	...........
	39	0.533333	4.35805E-001	-9.88843E-005	0.00000E+000	-4.30942E-005	-5.99601E-002	4.35899E-001	3.57870E+000	9	...........
	40	0.546667	4.25913E-001	-9.95188E-005	0.00000E+000	-4.23864E-005	-5.99601E-002	4.26009E-001	3.57870E+000	9	...........
	41	0.56	4.16085E-001	-9.85873E-005	0.00000E+000	-4.10207E-005	-5.99601E-002	4.16179E-001	3.57870E+000	9	...........
	42	0.573333	4.06306E-001	-9.85519E-005	0.00000E+000	-4.00422E-005	-5.99601E-002	4.06386E-001	3.57870E+000	9	...........
	43	0.586667	3.96566E-001	-9.98334E-005	0.00000E+000	-3.95906E-005	-5.99601E-002	3.96647E-001	3.57870E+000	9	...........
	44	0.6	3.86882E-001	-9.96219E-005	0.00000E+000	-3.85420E-005	-5.99601E-002	3.86963E-001	3.57870E+000	9	...........
	45	0.613333	3.77249E-001	-9.94406E-005	0.00000E+000	-3.75139E-005	-5.99601E-002	3.77324E-001	3.57870E+000	9	...........
	46	0.626667	3.67669E-001	-9.85384E-005	0.00000E+000	-3.62295E-005	-5.99601E-002	3.67736E-001	3.57870E+000	9	...........
	47	0.64	3.58130E-001	-9.85394E-005	0.00000E+000	-3.52899E-005	-5.99601E-002	3.58202E-001	3.57870E+000	9	...........
	48	0.653333	3.48649E-001	-9.85009E-005	0.00000E+000	-3.43422E-005	-5.99601E-002	3.48717E-001	3.57870E+000	9	...........
	49	0.666667	3.39211E-001	-9.93917E-005	0.00000E+000	-3.37147E-005	-5.99601E-002	3.39273E-001	3.57870E+000	9	...........
	50	0.68	3.29818E-001	-9.86342E-005	0.00000E+000	-3.25314E-005	-5.99601E-002	3.29885E-001	3.57870E+000	9	...........
	51	0.693333	3.20482E-001	-9.86686E-005	0.00000E+000	-3.16215E-005	-5.99601E-002	3.20545E-001	3.57870E+000	9	...........
	52	0.706667	3.11182E-001	-9.90593E-005	0.00000E+000	-3.08255E-005	-5.99601E-002	3.11243E-001	3.57870E+000	9	...........
	53	0.72	3.01933E-001	-9.90999E-005	0.00000E+000	-2.99215E-005	-5.99601E-002	3.01992E-001	3.57870E+000	9	...........
	54	0.733333	2.92723E-001	-9.84925E-005	0.00000E+000	-2.88310E-005	-5.99601E-002	2.92783E-001	3.57870E+000	9	...........
	55	0.746667	2.83558E-001	-9.87634E-005	0.00000E+000	-2.80052E-005	-5.99601E-002	2.83614E-001	3.57870E+000	9	...........
	56	0.76	2.74433E-001	-9.97584E-005	0.00000E+000	-2.73770E-005	-5.99601E-002	2.74488E-001	3.57870E+000	9	...........
	57	0.773333	2.65347E-001	-9.87832E-005	0.00000E+000	-2.62118E-005	-5.99601E-002	2.65397E-001	3.57870E+000	9	...........
	58	0.786667	2.56300E-001	-9.87624E-005	0.00000E+000	-2.53128E-005	-5.99601E-002	2.56350E-001	3.57870E+000	9	...........
	59	0.8	2.47303E-001	-9.89520E-005	0.00000E+000	-2.44711E-005	-5.99601E-002	2.47344E-001	3.57870E+000	9	...........
	60	0.813333	2.38329E-001	-9.94334E-005	0.00000E+000	-2.36979E-005	-5.99601E-002	2.38369E-001	3.57870E+000	9	...........
	61	0.826667	2.29403E-001	-1.00192E-004	0.00000E+000	-2.29843E-005	-5.99601E-002	2.29444E-001	3.57870E+000	9	...........
	62	0.84	2.20516E-001	-9.89635E-005	0.00000E+000	-2.18231E-005	-5.99601E-002	2.20557E-001	3.57870E+000	9	...........
	63	0.853333	2.11674E-001	-9.86905E-005	0.00000E+000	-2.08902E-005	-5.99601E-002	2.11705E-001	3.57870E+000	9	...........
	64	0.866667	2.02871E-001	-9.86176E-005	0.00000E+000	-2.00066E-005	-5.99601E-002	2.02908E-001	3.57870E+000	9	...........
	65	0.88	1.94115E-001	-9.90343E-005	0.00000E+000	-1.92241E-005	-5.99601E-002	1.94146E-001	3.57870E+000	9	...........
	66	0.893333	1.85402E-001	-9.86019E-005	0.00000E+000	-1.82810E-005	-5.99601E-002	1.85436E-001	3.57870E+000	9	...........
	67	0.906667	1.76734E-001	-9.83717E-005	0.00000E+000	-1.73856E-005	-5.99601E-002	1.76766E-001	3.57870E+000	9	...........
	68	0.92	1.68122E-001	-9.93469E-005	0.00000E+000	-1.67024E-005	-5.99601E-002	1.68149E-001	3.57870E+000	9	...........
	69	0.933333	1.59559E-001	-9.85915E-005	0.00000E+000	-1.57311E-005	-5.99601E-002	1.59589E-001	3.57870E+000	9	...........
	70	0.946667	1.51054E-001	-9.93708E-005	0.00000E+000	-1.50104E-005	-5.99601E-002	1.51076E-001	3.57870E+000	9	...........
	71	0.96	1.42605E-001	-9.96480E-005	0.00000E+000	-1.42103E-005	-5.99601E-002	1.42627E-001	3.57870E+000	9	...........
	72	0.97333	1.34218E-001	-9.89259E-005	0.00000E+000	-1.32777E-005	-5.99601E-002	1.34238E-001	3.57870E+000	9	...........
	73	0.98667	1.25890E-001	-9.88905E-005	0.00000E+000	-1.24493E-005	-5.99601E-002	1.25907E-001	3.57870E+000	9	...........
	74	1	1.17625E-001	-9.88801E-005	0.00000E+000	-1.16307E-005	-5.99601E-002	1.17643E-001	3.57870E+000	9	...........
	75	1.01333	1.09428E-001	-9.83540E-005	0.00000E+000	-1.07627E-005	-5.99601E-002	1.09441E-001	3.57870E+000	9	...........
	76	1.02667	1.01298E-001	-9.99314E-005	0.00000E+000	-1.01229E-005	-5.99601E-002	1.01311E-001	3.57870E+000	9	...........
	77	1.04	9.32425E-002	-9.77788E-005	0.00000E+000	-9.11715E-006	-5.99601E-002	9.32463E-002	3.57870E+000	9	...........
	78	1.05333	8.52419E-002	-9.95813E-005	0.00000E+000	-8.48850E-006	-5.99601E-002	8.52434E-002	3.57870E+000	9	...........
	79	1.06667	7.73224E-002	-9.86238E-005	0.00000E+000	-7.62583E-006	-5.99601E-002	7.73218E-002	3.57870E+000	9	...........
	80	1.08	6.94599E-002	-9.87530E-005	0.00000E+000	-6.85937E-006	-5.99601E-002	6.94576E-002	3.57870E+000	9	...........
	81	1.09333	6.16658E-002	-9.85696E-005	0.00000E+000	-6.07837E-006	-5.99601E-002	6.16613E-002	3.57870E+000	9	...........
	82	1.10667	5.39419E-002	-9.90604E-005	0.00000E+000	-5.34351E-006	-5.99601E-002	5.39338E-002	3.57860E+000	9	...........
	83	1.12	4.63022E-002	-9.91156E-005	0.00000E+000	-4.58927E-006	-5.99601E-002	4.62986E-002	3.57860E+000	9	...........
	84	1.13333	3.87165E-002	-9.90135E-005	0.00000E+000	-3.83346E-006	-5.99601E-002	3.87058E-002	3.57860E+000	9	...........
	85	1.14667	3.11788E-002	-9.92885E-005	0.00000E+000	-3.09570E-006	-5.99601E-002	3.11651E-002	3.57860E+000	9	...........
	86	1.16	2.37028E-002	-9.94636E-005	0.00000E+000	-2.35756E-006	-5.99601E-002	2.36836E-002	3.57860E+000	9	...........
	87	1.17333	1.62861E-002	-9.89947E-005	0.00000E+000	-1.61223E-006	-5.99601E-002	1.62613E-002	3.57860E+000	9	...........
	88	1.18667	8.93464E-003	-9.90426E-005	0.00000E+000	-8.84910E-007	-5.99601E-002	8.90513E-003	3.57860E+000	9	...........
	89	1.19833	2.09356E-003	-9.93426E-005	0.00000E+000	-2.07979E-007	-5.99601E-002	2.06127E-003	3.57860E+000	9	...........
STARTTIMEOFFSET	QUANT	630.9028	Start Time Offset (s)
