EXPLAIN
TAG	PWR800_DISCHARGE
TITLE	LABEL	PWR Cyclic Charge Discharge (Cell) - Discharge Step	Test &Identifier
DATE	LABEL	13-7-2017	Date
TIME	LABEL	15:27:19	Time
NOTES	NOTES	2	&Notes...
	supercap test cell
	6M KOH
PSTAT	PSTAT	IFC5000-01520	Potentiostat
CAPACITY	QUANT	1.00000E-003	Capacity (A-hr)
CELLTYPE	SELECTOR	1	&Cell Type
WORKINGCONNECTION	SELECTOR	0	&Working Lead
MAXDISCHARGETIME	VARIABLEANDUNITS	1.00000E+002	s	1.00000E+002	second(s)	Max &Discharge Time
DISCHARGEMODE	MULTIPARAM	0	1.00000E-004	&Discharge Mode	Constant Current	Amp(s)
SAMPLETIME	QUANT	1.00000E-002	Sa&mple Period (s)
DISCHARGESTOPAT1	MULTIPARAM	3	0.00000E+000	Discharge Stop At &1	Voltage < Limit	V
DISCHARGESTOPAT2	MULTIPARAM	0	0.00000E+000	Discharge Stop At &2	None	N/A
AESBHCSELECTOR	TOGGLE	F	Save Both Half Cells
IRCOMP	TOGGLE	F	IR &Measure
EOC	QUANT	0	Open Circuit (V)
SEQUENCER	TOGGLE	TRUE	Run as Sequence
PSTATMODEL	IQUANT	53	Pstat Model
PSTATSECTION	LABEL	IFC5000-01520	Pstat Section
PSTATSERIALNO	LABEL	01520	Pstat Serial Number
CTRLMODE	IQUANT	0	Control Mode
ELECTROMETER	IQUANT	1	RE=0 or CS=1
IESTAB	IQUANT	0	I/E Stability
CASPEED	IQUANT	4	Control Amp Speed
CONVENTION	IQUANT	1	Current Convention
ICHRANGE	IQUANT	2	Ich Range
ICHRANGEMODE	TOGGLE	T	Ich Auto Range
ICHOFFSETENABLE	TOGGLE	F	Ich Offset Enable
ICHOFFSET	QUANT	0	Ich Offset (V)
ICHFILTER	IQUANT	1	Ich Filter
VCHRANGE	IQUANT	2	Vch Range
VCHRANGEMODE	TOGGLE	T	Vch Auto Range
VCHOFFSETENABLE	TOGGLE	F	Vch Offset Enable
VCHOFFSET	QUANT	0	Vch Offset (V)
VCHFILTER	IQUANT	1	Vch Filter
IERANGELOWERLIMIT	IQUANT	9	I/E Range Lower Limit
IERANGEMODE	TOGGLE	F	I/E AutoRange
IERANGE	IQUANT	9	I/E Range
ACHSELECT	IQUANT	1	Ach Select
ACHRANGE	IQUANT	2	Ach Range
ACHOFFSETENABLE	TOGGLE	F	Ach Offset Enable
ACHOFFSET	QUANT	0	Ach Offset (V)
ACHFILTER	IQUANT	1	Ach Filter
CABLEID	IQUANT	14	Cable ID
DCCALDATE	LABEL	5-7-2017	DC Calibration Date
ACCALDATE	LABEL	12/3/2015	AC Calibration Date
FRAMEWORKVERSION	QUANT	7.01	Framework Version
INSTRUMENTVERSION	LABEL	4.00	Instrument Version
CURVE	TABLE	88
	Pt	T	Vf	Im	Vu	Pwr	Sig	Ach	Temp	IERange	Over
	#	s	V	A	V	W	V	V	deg C	#	bits
	0	0.013333	8.48953E-001	-9.90770E-005	0.00000E+000	-8.41117E-005	-5.99601E-002	8.49229E-001	3.57920E+000	9	...........
	1	0.026667	8.35023E-001	-9.84884E-005	0.00000E+000	-8.22400E-005	-5.99601E-002	8.35327E-001	3.57920E+000	9	...........
	2	0.04	8.21986E-001	-9.83415E-005	0.00000E+000	-8.08354E-005	-5.99601E-002	8.22281E-001	3.57920E+000	9	...........
	3	0.053333	8.09481E-001	-9.85342E-005	0.00000E+000	-7.97615E-005	-5.99601E-002	8.09776E-001	3.57920E+000	9	...........
	4	0.066667	7.97406E-001	-9.95761E-005	0.00000E+000	-7.94026E-005	-5.99601E-002	7.97696E-001	3.57920E+000	9	...........
	5	0.08	7.85581E-001	-9.85488E-005	0.00000E+000	-7.74180E-005	-5.99601E-002	7.85897E-001	3.57920E+000	9	...........
	6	0.093333	7.74009E-001	-9.92406E-005	0.00000E+000	-7.68131E-005	-5.99601E-002	7.74286E-001	3.57920E+000	9	...........
	7	0.106667	7.62572E-001	-9.86228E-005	0.00000E+000	-7.52070E-005	-5.99601E-002	7.62857E-001	3.57920E+000	9	...........
	8	0.12	7.51277E-001	-9.91124E-005	0.00000E+000	-7.44609E-005	-5.99601E-002	7.51559E-001	3.57920E+000	9	...........
	9	0.133333	7.40089E-001	-9.99012E-005	0.00000E+000	-7.39357E-005	-5.99601E-002	7.40366E-001	3.57920E+000	9	...........
	10	0.146667	7.28971E-001	-9.92187E-005	0.00000E+000	-7.23276E-005	-5.99601E-002	7.29266E-001	3.57920E+000	9	...........
	11	0.16	7.17898E-001	-9.84311E-005	0.00000E+000	-7.06635E-005	-5.99601E-002	7.18201E-001	3.57920E+000	9	...........
	12	0.173333	7.06873E-001	-9.98939E-005	0.00000E+000	-7.06122E-005	-5.99601E-002	7.07186E-001	3.57920E+000	9	...........
	13	0.186667	6.95927E-001	-9.87874E-005	0.00000E+000	-6.87489E-005	-5.99601E-002	6.96217E-001	3.57920E+000	9	...........
	14	0.2	6.84946E-001	-9.87593E-005	0.00000E+000	-6.76447E-005	-5.99601E-002	6.85265E-001	3.57920E+000	9	...........
	15	0.213333	6.74031E-001	-9.90916E-005	0.00000E+000	-6.67908E-005	-5.99601E-002	6.74332E-001	3.57920E+000	9	...........
	16	0.226667	6.63104E-001	-9.83321E-005	0.00000E+000	-6.52044E-005	-5.99601E-002	6.63425E-001	3.57920E+000	9	...........
	17	0.24	6.52197E-001	-9.85238E-005	0.00000E+000	-6.42570E-005	-5.99601E-002	6.52519E-001	3.57920E+000	9	...........
	18	0.253333	6.41347E-001	-9.89707E-005	0.00000E+000	-6.34746E-005	-5.99601E-002	6.41618E-001	3.57920E+000	9	...........
	19	0.266667	6.30494E-001	-9.93302E-005	0.00000E+000	-6.26271E-005	-5.99601E-002	6.30732E-001	3.57920E+000	9	...........
	20	0.28	6.19658E-001	-9.93333E-005	0.00000E+000	-6.15527E-005	-5.99601E-002	6.19909E-001	3.57920E+000	9	...........
	21	0.293333	6.08780E-001	-9.94073E-005	0.00000E+000	-6.05172E-005	-5.99601E-002	6.09061E-001	3.57920E+000	9	...........
	22	0.306667	5.97996E-001	-9.86655E-005	0.00000E+000	-5.90016E-005	-5.99601E-002	5.98257E-001	3.57920E+000	9	...........
	23	0.32	5.87215E-001	-9.86551E-005	0.00000E+000	-5.79317E-005	-5.99601E-002	5.87476E-001	3.57920E+000	9	...........
	24	0.333333	5.76441E-001	-9.88311E-005	0.00000E+000	-5.69703E-005	-5.99601E-002	5.76705E-001	3.57920E+000	9	...........
	25	0.346667	5.65712E-001	-9.88801E-005	0.00000E+000	-5.59376E-005	-5.99601E-002	5.65982E-001	3.57920E+000	9	...........
	26	0.36	5.54997E-001	-9.97782E-005	0.00000E+000	-5.53766E-005	-5.99601E-002	5.55252E-001	3.57920E+000	9	...........
	27	0.373333	5.44320E-001	-9.93271E-005	0.00000E+000	-5.40657E-005	-5.99601E-002	5.44585E-001	3.57920E+000	9	...........
	28	0.386667	5.33669E-001	-9.81977E-005	0.00000E+000	-5.24050E-005	-5.99601E-002	5.33902E-001	3.57920E+000	9	...........
	29	0.4	5.23065E-001	-9.88343E-005	0.00000E+000	-5.16967E-005	-5.99601E-002	5.23277E-001	3.57920E+000	9	...........
	30	0.413333	5.12492E-001	-9.77184E-005	0.00000E+000	-5.00799E-005	-5.99601E-002	5.12718E-001	3.57920E+000	9	...........
	31	0.426667	5.01946E-001	-9.90989E-005	0.00000E+000	-4.97423E-005	-5.99601E-002	5.02179E-001	3.57920E+000	9	...........
	32	0.44	4.91484E-001	-9.91833E-005	0.00000E+000	-4.87470E-005	-5.99601E-002	4.91708E-001	3.57920E+000	9	...........
	33	0.453333	4.81332E-001	-9.86061E-005	0.00000E+000	-4.74622E-005	-5.99601E-002	4.81451E-001	3.57920E+000	9	...........
	34	0.466667	4.71042E-001	-9.86780E-005	0.00000E+000	-4.64815E-005	-5.99601E-002	4.71138E-001	3.57920E+000	9	...........
	35	0.48	4.60718E-001	-9.91708E-005	0.00000E+000	-4.56898E-005	-5.99601E-002	4.60808E-001	3.57920E+000	9	...........
	36	0.493333	4.50452E-001	-9.83352E-005	0.00000E+000	-4.42953E-005	-5.99601E-002	4.50542E-001	3.57920E+000	9	...........
	37	0.506667	4.40239E-001	-9.89499E-005	0.00000E+000	-4.35616E-005	-5.99601E-002	4.40332E-001	3.57920E+000	9	...........
	38	0.52	4.30090E-001	-9.90666E-005	0.00000E+000	-4.26075E-005	-5.99601E-002	4.30183E-001	3.57920E+000	9	...........
	39	0.533333	4.19997E-001	-9.96032E-005	0.00000E+000	-4.18330E-005	-5.99601E-002	4.20077E-001	3.57920E+000	9	...........
	40	0.546667	4.09963E-001	-9.93198E-005	0.00000E+000	-4.07174E-005	-5.99601E-002	4.10048E-001	3.57920E+000	9	...........
	41	0.56	3.99992E-001	-9.91802E-005	0.00000E+000	-3.96713E-005	-5.99601E-002	4.00066E-001	3.57920E+000	9	...........
	42	0.573333	3.90080E-001	-9.85134E-005	0.00000E+000	-3.84281E-005	-5.99601E-002	3.90154E-001	3.57920E+000	9	...........
	43	0.586667	3.80222E-001	-9.87728E-005	0.00000E+000	-3.75556E-005	-5.99601E-002	3.80301E-001	3.57920E+000	9	...........
	44	0.6	3.70428E-001	-9.88978E-005	0.00000E+000	-3.66345E-005	-5.99601E-002	3.70493E-001	3.57920E+000	9	...........
	45	0.613333	3.60689E-001	-9.93354E-005	0.00000E+000	-3.58292E-005	-5.99601E-002	3.60763E-001	3.57920E+000	9	...........
	46	0.626667	3.51012E-001	-9.88759E-005	0.00000E+000	-3.47067E-005	-5.99601E-002	3.51077E-001	3.57920E+000	9	...........
	47	0.64	3.41373E-001	-9.92052E-005	0.00000E+000	-3.38660E-005	-5.99601E-002	3.41443E-001	3.57920E+000	9	...........
	48	0.653333	3.31802E-001	-9.97636E-005	0.00000E+000	-3.31017E-005	-5.99601E-002	3.31861E-001	3.57920E+000	9	...........
	49	0.666667	3.22278E-001	-9.83581E-005	0.00000E+000	-3.16987E-005	-5.99601E-002	3.22343E-001	3.57938E+000	9	...........
	50	0.68	3.12809E-001	-9.89791E-005	0.00000E+000	-3.09615E-005	-5.99601E-002	3.12865E-001	3.57990E+000	9	...........
	51	0.693333	3.03381E-001	-9.87978E-005	0.00000E+000	-2.99734E-005	-5.99601E-002	3.03437E-001	3.57990E+000	9	...........
	52	0.706667	2.94002E-001	-9.91896E-005	0.00000E+000	-2.91619E-005	-5.99601E-002	2.94061E-001	3.57990E+000	9	...........
	53	0.72	2.84677E-001	-9.88801E-005	0.00000E+000	-2.81489E-005	-5.99601E-002	2.84738E-001	3.57990E+000	9	...........
	54	0.733333	2.75397E-001	-9.81060E-005	0.00000E+000	-2.70181E-005	-5.99601E-002	2.75448E-001	3.57990E+000	9	...........
	55	0.746667	2.66158E-001	-9.92969E-005	0.00000E+000	-2.64287E-005	-5.99601E-002	2.66215E-001	3.57990E+000	9	...........
	56	0.76	2.56970E-001	-9.85988E-005	0.00000E+000	-2.53369E-005	-5.99601E-002	2.57018E-001	3.57990E+000	9	...........
	57	0.773333	2.47822E-001	-9.82842E-005	0.00000E+000	-2.43570E-005	-5.99601E-002	2.47864E-001	3.57990E+000	9	...........
	58	0.786667	2.38721E-001	-9.87770E-005	0.00000E+000	-2.35801E-005	-5.99601E-002	2.38759E-001	3.57990E+000	9	...........
	59	0.8	2.29668E-001	-9.70537E-005	0.00000E+000	-2.22902E-005	-5.99601E-002	2.29703E-001	3.57990E+000	9	...........
	60	0.813333	2.20658E-001	-9.86248E-005	0.00000E+000	-2.17624E-005	-5.99601E-002	2.20694E-001	3.57990E+000	9	...........
	61	0.826667	2.11696E-001	-9.94031E-005	0.00000E+000	-2.10432E-005	-5.99601E-002	2.11726E-001	3.57990E+000	9	...........
	62	0.84	2.02782E-001	-9.85967E-005	0.00000E+000	-1.99937E-005	-5.99601E-002	2.02811E-001	3.57990E+000	9	...........
	63	0.853333	1.93923E-001	-9.89301E-005	0.00000E+000	-1.91848E-005	-5.99601E-002	1.93950E-001	3.57990E+000	9	...........
	64	0.866667	1.85110E-001	-9.89937E-005	0.00000E+000	-1.83247E-005	-5.99601E-002	1.85136E-001	3.57990E+000	9	...........
	65	0.88	1.76347E-001	-1.00089E-004	0.00000E+000	-1.76503E-005	-5.99601E-002	1.76374E-001	3.57990E+000	9	...........
	66	0.893333	1.67645E-001	-9.93771E-005	0.00000E+000	-1.66600E-005	-5.99601E-002	1.67674E-001	3.57990E+000	9	...........
	67	0.906667	1.59005E-001	-9.86457E-005	0.00000E+000	-1.56851E-005	-5.99601E-002	1.59031E-001	3.57990E+000	9	...........
	68	0.92	1.50430E-001	-9.88895E-005	0.00000E+000	-1.48760E-005	-5.99601E-002	1.50447E-001	3.57990E+000	9	...........
	69	0.933333	1.41909E-001	-9.94490E-005	0.00000E+000	-1.41127E-005	-5.99601E-002	1.41930E-001	3.57990E+000	9	...........
	70	0.946667	1.33457E-001	-9.91583E-005	0.00000E+000	-1.32334E-005	-5.99601E-002	1.33472E-001	3.57990E+000	9	...........
	71	0.96	1.25080E-001	-9.88759E-005	0.00000E+000	-1.23674E-005	-5.99601E-002	1.25094E-001	3.57990E+000	9	...........
	72	0.97333	1.16766E-001	-9.95761E-005	0.00000E+000	-1.16271E-005	-5.99601E-002	1.16781E-001	3.57990E+000	9	...........
	73	0.98667	1.08529E-001	-9.99189E-005	0.00000E+000	-1.08441E-005	-5.99601E-002	1.08540E-001	3.57990E+000	9	...........
	74	1	1.00359E-001	-9.87155E-005	0.00000E+000	-9.90703E-006	-5.99601E-002	1.00369E-001	3.57990E+000	9	...........
	75	1.01333	9.22690E-002	-9.82060E-005	0.00000E+000	-9.06137E-006	-5.99601E-002	9.22743E-002	3.57990E+000	9	...........
	76	1.02667	8.42422E-002	-9.82789E-005	0.00000E+000	-8.27924E-006	-5.99601E-002	8.42423E-002	3.57990E+000	9	...........
	77	1.04	7.62970E-002	-9.89176E-005	0.00000E+000	-7.54712E-006	-5.99601E-002	7.62940E-002	3.57990E+000	9	...........
	78	1.05333	6.84147E-002	-9.89958E-005	0.00000E+000	-6.77276E-006	-5.99601E-002	6.84080E-002	3.57990E+000	9	...........
	79	1.06667	6.06037E-002	-9.85384E-005	0.00000E+000	-5.97179E-006	-5.99601E-002	6.05954E-002	3.57990E+000	9	...........
	80	1.08	5.28611E-002	-9.76580E-005	0.00000E+000	-5.16231E-006	-5.99601E-002	5.28554E-002	3.57990E+000	9	...........
	81	1.09333	4.52161E-002	-9.89978E-005	0.00000E+000	-4.47630E-006	-5.99601E-002	4.52102E-002	3.57990E+000	9	...........
	82	1.10667	3.76141E-002	-9.96240E-005	0.00000E+000	-3.74726E-006	-5.99601E-002	3.76043E-002	3.57990E+000	9	...........
	83	1.12	3.00711E-002	-9.95355E-005	0.00000E+000	-2.99314E-006	-5.99601E-002	3.00587E-002	3.57990E+000	9	...........
	84	1.13333	2.25980E-002	-9.96063E-005	0.00000E+000	-2.25091E-006	-5.99601E-002	2.25783E-002	3.57990E+000	9	...........
	85	1.14667	1.51863E-002	-9.91218E-005	0.00000E+000	-1.50529E-006	-5.99601E-002	1.51623E-002	3.57990E+000	9	...........
	86	1.16	7.84215E-003	-9.92146E-005	0.00000E+000	-7.78055E-007	-5.99601E-002	7.80869E-003	3.57990E+000	9	...........
	87	1.17	1.46163E-003	-9.80629E-005	0.00000E+000	-1.43331E-007	-5.99601E-002	1.42827E-003	3.57990E+000	9	...........
STARTTIMEOFFSET	QUANT	1145.331	Start Time Offset (s)
