EXPLAIN
TAG	PWR800_DISCHARGE
TITLE	LABEL	PWR Cyclic Charge Discharge (Cell) - Discharge Step	Test &Identifier
DATE	LABEL	13-7-2017	Date
TIME	LABEL	15:45:21	Time
NOTES	NOTES	2	&Notes...
	supercap test cell
	6M KOH
PSTAT	PSTAT	IFC5000-01520	Potentiostat
CAPACITY	QUANT	1.00000E-003	Capacity (A-hr)
CELLTYPE	SELECTOR	1	&Cell Type
WORKINGCONNECTION	SELECTOR	0	&Working Lead
MAXDISCHARGETIME	VARIABLEANDUNITS	1.00000E+002	s	1.00000E+002	second(s)	Max &Discharge Time
DISCHARGEMODE	MULTIPARAM	0	1.00000E-004	&Discharge Mode	Constant Current	Amp(s)
SAMPLETIME	QUANT	1.00000E-002	Sa&mple Period (s)
DISCHARGESTOPAT1	MULTIPARAM	3	0.00000E+000	Discharge Stop At &1	Voltage < Limit	V
DISCHARGESTOPAT2	MULTIPARAM	0	0.00000E+000	Discharge Stop At &2	None	N/A
AESBHCSELECTOR	TOGGLE	F	Save Both Half Cells
IRCOMP	TOGGLE	F	IR &Measure
EOC	QUANT	0	Open Circuit (V)
SEQUENCER	TOGGLE	TRUE	Run as Sequence
PSTATMODEL	IQUANT	53	Pstat Model
PSTATSECTION	LABEL	IFC5000-01520	Pstat Section
PSTATSERIALNO	LABEL	01520	Pstat Serial Number
CTRLMODE	IQUANT	0	Control Mode
ELECTROMETER	IQUANT	1	RE=0 or CS=1
IESTAB	IQUANT	0	I/E Stability
CASPEED	IQUANT	4	Control Amp Speed
CONVENTION	IQUANT	1	Current Convention
ICHRANGE	IQUANT	2	Ich Range
ICHRANGEMODE	TOGGLE	T	Ich Auto Range
ICHOFFSETENABLE	TOGGLE	F	Ich Offset Enable
ICHOFFSET	QUANT	0	Ich Offset (V)
ICHFILTER	IQUANT	1	Ich Filter
VCHRANGE	IQUANT	2	Vch Range
VCHRANGEMODE	TOGGLE	T	Vch Auto Range
VCHOFFSETENABLE	TOGGLE	F	Vch Offset Enable
VCHOFFSET	QUANT	0	Vch Offset (V)
VCHFILTER	IQUANT	1	Vch Filter
IERANGELOWERLIMIT	IQUANT	9	I/E Range Lower Limit
IERANGEMODE	TOGGLE	F	I/E AutoRange
IERANGE	IQUANT	9	I/E Range
ACHSELECT	IQUANT	1	Ach Select
ACHRANGE	IQUANT	2	Ach Range
ACHOFFSETENABLE	TOGGLE	F	Ach Offset Enable
ACHOFFSET	QUANT	0	Ach Offset (V)
ACHFILTER	IQUANT	1	Ach Filter
CABLEID	IQUANT	14	Cable ID
DCCALDATE	LABEL	5-7-2017	DC Calibration Date
ACCALDATE	LABEL	12/3/2015	AC Calibration Date
FRAMEWORKVERSION	QUANT	7.01	Framework Version
INSTRUMENTVERSION	LABEL	4.00	Instrument Version
CURVE	TABLE	86
	Pt	T	Vf	Im	Vu	Pwr	Sig	Ach	Temp	IERange	Over
	#	s	V	A	V	W	V	V	deg C	#	bits
	0	0.013333	8.45406E-001	-9.89312E-005	0.00000E+000	-8.36370E-005	-5.99601E-002	8.45703E-001	3.57900E+000	9	...........
	1	0.026667	8.31106E-001	-9.97949E-005	0.00000E+000	-8.29401E-005	-5.99601E-002	8.31386E-001	3.57900E+000	9	...........
	2	0.04	8.17644E-001	-9.84842E-005	0.00000E+000	-8.05250E-005	-5.99601E-002	8.17946E-001	3.57900E+000	9	...........
	3	0.053333	8.04764E-001	-9.91114E-005	0.00000E+000	-7.97613E-005	-5.99601E-002	8.05017E-001	3.57900E+000	9	...........
	4	0.066667	7.92301E-001	-9.86957E-005	0.00000E+000	-7.81967E-005	-5.99601E-002	7.92541E-001	3.57900E+000	9	...........
	5	0.08	7.80102E-001	-9.89989E-005	0.00000E+000	-7.72293E-005	-5.99601E-002	7.80327E-001	3.57900E+000	9	...........
	6	0.093333	7.68120E-001	-9.92052E-005	0.00000E+000	-7.62015E-005	-5.99601E-002	7.68359E-001	3.57900E+000	9	...........
	7	0.106667	7.56307E-001	-9.92875E-005	0.00000E+000	-7.50918E-005	-5.99601E-002	7.56511E-001	3.57900E+000	9	...........
	8	0.12	7.44608E-001	-9.92177E-005	0.00000E+000	-7.38783E-005	-5.99601E-002	7.44829E-001	3.57900E+000	9	...........
	9	0.133333	7.33001E-001	-9.75507E-005	0.00000E+000	-7.15047E-005	-5.99601E-002	7.33233E-001	3.57900E+000	9	...........
	10	0.146667	7.21483E-001	-9.89364E-005	0.00000E+000	-7.13809E-005	-5.99601E-002	7.21711E-001	3.57900E+000	9	...........
	11	0.16	7.09998E-001	-9.89332E-005	0.00000E+000	-7.02424E-005	-5.99601E-002	7.10244E-001	3.57900E+000	9	...........
	12	0.173333	6.98570E-001	-9.93479E-005	0.00000E+000	-6.94014E-005	-5.99601E-002	6.98819E-001	3.57900E+000	9	...........
	13	0.186667	6.87182E-001	-9.87082E-005	0.00000E+000	-6.78305E-005	-5.99601E-002	6.87454E-001	3.57900E+000	9	...........
	14	0.2	6.75844E-001	-9.96188E-005	0.00000E+000	-6.73267E-005	-5.99601E-002	6.76095E-001	3.57900E+000	9	...........
	15	0.213333	6.64483E-001	-9.87843E-005	0.00000E+000	-6.56405E-005	-5.99601E-002	6.64758E-001	3.57900E+000	9	...........
	16	0.226667	6.53185E-001	-9.90385E-005	0.00000E+000	-6.46905E-005	-5.99601E-002	6.53439E-001	3.57900E+000	9	...........
	17	0.24	6.41887E-001	-9.89989E-005	0.00000E+000	-6.35461E-005	-5.99601E-002	6.42161E-001	3.57900E+000	9	...........
	18	0.253333	6.30634E-001	-9.90364E-005	0.00000E+000	-6.24558E-005	-5.99601E-002	6.30898E-001	3.57900E+000	9	...........
	19	0.266667	6.19424E-001	-9.93115E-005	0.00000E+000	-6.15159E-005	-5.99601E-002	6.19652E-001	3.57900E+000	9	...........
	20	0.28	6.08131E-001	-9.87822E-005	0.00000E+000	-6.00725E-005	-5.99601E-002	6.08434E-001	3.57900E+000	9	...........
	21	0.293333	5.96978E-001	-9.85467E-005	0.00000E+000	-5.88302E-005	-5.99601E-002	5.97250E-001	3.57900E+000	9	...........
	22	0.306667	5.85819E-001	-9.81591E-005	0.00000E+000	-5.75035E-005	-5.99601E-002	5.86102E-001	3.57900E+000	9	...........
	23	0.32	5.74716E-001	-9.90801E-005	0.00000E+000	-5.69430E-005	-5.99601E-002	5.74962E-001	3.57900E+000	9	...........
	24	0.333333	5.63623E-001	-9.87853E-005	0.00000E+000	-5.56777E-005	-5.99601E-002	5.63867E-001	3.57900E+000	9	...........
	25	0.346667	5.52542E-001	-9.89259E-005	0.00000E+000	-5.46607E-005	-5.99601E-002	5.52802E-001	3.57900E+000	9	...........
	26	0.36	5.41554E-001	-9.75653E-005	0.00000E+000	-5.28369E-005	-5.99601E-002	5.41805E-001	3.57900E+000	9	...........
	27	0.373333	5.30580E-001	-9.88551E-005	0.00000E+000	-5.24505E-005	-5.99601E-002	5.30837E-001	3.57900E+000	9	...........
	28	0.386667	5.19664E-001	-9.97959E-005	0.00000E+000	-5.18603E-005	-5.99601E-002	5.19904E-001	3.57900E+000	9	...........
	29	0.4	5.08768E-001	-9.79997E-005	0.00000E+000	-4.98591E-005	-5.99601E-002	5.09005E-001	3.57900E+000	9	...........
	30	0.413333	4.97964E-001	-9.94083E-005	0.00000E+000	-4.95018E-005	-5.99601E-002	4.98196E-001	3.57900E+000	9	...........
	31	0.426667	4.87298E-001	-9.95104E-005	0.00000E+000	-4.84913E-005	-5.99601E-002	4.87448E-001	3.57900E+000	9	...........
	32	0.44	4.76873E-001	-9.96615E-005	0.00000E+000	-4.75259E-005	-5.99601E-002	4.76967E-001	3.57900E+000	9	...........
	33	0.453333	4.66238E-001	-9.94917E-005	0.00000E+000	-4.63868E-005	-5.99601E-002	4.66327E-001	3.57900E+000	9	...........
	34	0.466667	4.55672E-001	-9.81862E-005	0.00000E+000	-4.47408E-005	-5.99601E-002	4.55762E-001	3.57900E+000	9	...........
	35	0.48	4.45163E-001	-9.88999E-005	0.00000E+000	-4.40266E-005	-5.99601E-002	4.45255E-001	3.57900E+000	9	...........
	36	0.493333	4.34727E-001	-9.92416E-005	0.00000E+000	-4.31431E-005	-5.99601E-002	4.34816E-001	3.57900E+000	9	...........
	37	0.506667	4.24359E-001	-9.92010E-005	0.00000E+000	-4.20968E-005	-5.99601E-002	4.24448E-001	3.57900E+000	9	...........
	38	0.52	4.14063E-001	-9.94677E-005	0.00000E+000	-4.11859E-005	-5.99601E-002	4.14149E-001	3.57900E+000	9	...........
	39	0.533333	4.03843E-001	-9.86894E-005	0.00000E+000	-3.98551E-005	-5.99601E-002	4.03917E-001	3.57900E+000	9	...........
	40	0.546667	3.93685E-001	-9.85561E-005	0.00000E+000	-3.88001E-005	-5.99601E-002	3.93760E-001	3.57900E+000	9	...........
	41	0.56	3.83594E-001	-9.92823E-005	0.00000E+000	-3.80841E-005	-5.99601E-002	3.83666E-001	3.57900E+000	9	...........
	42	0.573333	3.73573E-001	-9.95271E-005	0.00000E+000	-3.71806E-005	-5.99601E-002	3.73639E-001	3.57900E+000	9	...........
	43	0.586667	3.63617E-001	-9.81768E-005	0.00000E+000	-3.56988E-005	-5.99601E-002	3.63685E-001	3.57900E+000	9	...........
	44	0.6	3.53723E-001	-9.91229E-005	0.00000E+000	-3.50620E-005	-5.99601E-002	3.53786E-001	3.57900E+000	9	...........
	45	0.613333	3.43888E-001	-9.91635E-005	0.00000E+000	-3.41011E-005	-5.99601E-002	3.43948E-001	3.57900E+000	9	...........
	46	0.626667	3.34104E-001	-9.79049E-005	0.00000E+000	-3.27104E-005	-5.99601E-002	3.34171E-001	3.57900E+000	9	...........
	47	0.64	3.24398E-001	-9.85655E-005	0.00000E+000	-3.19744E-005	-5.99601E-002	3.24457E-001	3.57968E+000	9	...........
	48	0.653333	3.14743E-001	-9.82977E-005	0.00000E+000	-3.09385E-005	-5.99601E-002	3.14800E-001	3.57990E+000	9	...........
	49	0.666667	3.05143E-001	-9.99168E-005	0.00000E+000	-3.04889E-005	-5.99601E-002	3.05203E-001	3.57990E+000	9	...........
	50	0.68	2.95602E-001	-9.94563E-005	0.00000E+000	-2.93995E-005	-5.99601E-002	2.95658E-001	3.57990E+000	9	...........
	51	0.693333	2.86109E-001	-9.90854E-005	0.00000E+000	-2.83492E-005	-5.99601E-002	2.86166E-001	3.57990E+000	9	...........
	52	0.706667	2.76671E-001	-9.86321E-005	0.00000E+000	-2.72886E-005	-5.99601E-002	2.76722E-001	3.57990E+000	9	...........
	53	0.72	2.67279E-001	-9.96073E-005	0.00000E+000	-2.66230E-005	-5.99601E-002	2.67333E-001	3.57990E+000	9	...........
	54	0.733333	2.57945E-001	-9.99605E-005	0.00000E+000	-2.57844E-005	-5.99601E-002	2.57995E-001	3.57990E+000	9	...........
	55	0.746667	2.48665E-001	-9.87509E-005	0.00000E+000	-2.45559E-005	-5.99601E-002	2.48711E-001	3.57990E+000	9	...........
	56	0.76	2.39437E-001	-9.84790E-005	0.00000E+000	-2.35795E-005	-5.99601E-002	2.39477E-001	3.57990E+000	9	...........
	57	0.773333	2.30254E-001	-9.82487E-005	0.00000E+000	-2.26222E-005	-5.99601E-002	2.30294E-001	3.57990E+000	9	...........
	58	0.786667	2.21125E-001	-9.84352E-005	0.00000E+000	-2.17665E-005	-5.99601E-002	2.21158E-001	3.57990E+000	9	...........
	59	0.8	2.12047E-001	-9.88749E-005	0.00000E+000	-2.09661E-005	-5.99601E-002	2.12080E-001	3.57990E+000	9	...........
	60	0.813333	2.03026E-001	-9.85603E-005	0.00000E+000	-2.00103E-005	-5.99601E-002	2.03056E-001	3.57990E+000	9	...........
	61	0.826667	1.94057E-001	-9.87478E-005	0.00000E+000	-1.91627E-005	-5.99601E-002	1.94084E-001	3.57990E+000	9	...........
	62	0.84	1.85152E-001	-9.89520E-005	0.00000E+000	-1.83212E-005	-5.99601E-002	1.85180E-001	3.57990E+000	9	...........
	63	0.853333	1.76309E-001	-9.82268E-005	0.00000E+000	-1.73183E-005	-5.99601E-002	1.76338E-001	3.57990E+000	9	...........
	64	0.866667	1.67537E-001	-9.90031E-005	0.00000E+000	-1.65866E-005	-5.99601E-002	1.67560E-001	3.57990E+000	9	...........
	65	0.88	1.58822E-001	-9.85061E-005	0.00000E+000	-1.56450E-005	-5.99601E-002	1.58843E-001	3.57990E+000	9	...........
	66	0.893333	1.50180E-001	-9.87457E-005	0.00000E+000	-1.48297E-005	-5.99601E-002	1.50200E-001	3.57990E+000	9	...........
	67	0.906667	1.41615E-001	-9.91072E-005	0.00000E+000	-1.40350E-005	-5.99601E-002	1.41631E-001	3.57990E+000	9	...........
	68	0.92	1.33115E-001	-9.84842E-005	0.00000E+000	-1.31097E-005	-5.99601E-002	1.33131E-001	3.57990E+000	9	...........
	69	0.933333	1.24691E-001	-9.91927E-005	0.00000E+000	-1.23684E-005	-5.99601E-002	1.24703E-001	3.57990E+000	9	...........
	70	0.946667	1.16341E-001	-9.87832E-005	0.00000E+000	-1.14925E-005	-5.99601E-002	1.16356E-001	3.57990E+000	9	...........
	71	0.96	1.08066E-001	-9.88197E-005	0.00000E+000	-1.06791E-005	-5.99601E-002	1.08081E-001	3.57990E+000	9	...........
	72	0.97333	9.98715E-002	-9.93500E-005	0.00000E+000	-9.92223E-006	-5.99601E-002	9.98766E-002	3.57990E+000	9	...........
	73	0.98667	9.17485E-002	-9.96532E-005	0.00000E+000	-9.14303E-006	-5.99601E-002	9.17517E-002	3.57990E+000	9	...........
	74	1	8.36992E-002	-9.92114E-005	0.00000E+000	-8.30392E-006	-5.99601E-002	8.36994E-002	3.57990E+000	9	...........
	75	1.01333	7.57285E-002	-9.88999E-005	0.00000E+000	-7.48954E-006	-5.99601E-002	7.57206E-002	3.57990E+000	9	...........
	76	1.02667	6.78192E-002	-9.96501E-005	0.00000E+000	-6.75818E-006	-5.99601E-002	6.78153E-002	3.57990E+000	9	...........
	77	1.04	5.99866E-002	-9.87947E-005	0.00000E+000	-5.92636E-006	-5.99601E-002	5.99870E-002	3.57990E+000	9	...........
	78	1.05333	5.22273E-002	-9.86842E-005	0.00000E+000	-5.15401E-006	-5.99601E-002	5.22228E-002	3.57990E+000	9	...........
	79	1.06667	4.45760E-002	-9.83248E-005	0.00000E+000	-4.38293E-006	-5.99601E-002	4.45628E-002	3.57990E+000	9	...........
	80	1.08	3.69530E-002	-9.81227E-005	0.00000E+000	-3.62593E-006	-5.99601E-002	3.69452E-002	3.57990E+000	9	...........
	81	1.09333	2.93986E-002	-9.87790E-005	0.00000E+000	-2.90396E-006	-5.99601E-002	2.93843E-002	3.57990E+000	9	...........
	82	1.10667	2.19126E-002	-9.81560E-005	0.00000E+000	-2.15085E-006	-5.99601E-002	2.18886E-002	3.57990E+000	9	...........
	83	1.12	1.44923E-002	-9.89478E-005	0.00000E+000	-1.43399E-006	-5.99601E-002	1.44630E-002	3.57990E+000	9	...........
	84	1.13333	7.14027E-003	-9.91552E-005	0.00000E+000	-7.07995E-007	-5.99601E-002	7.11203E-003	3.57990E+000	9	...........
	85	1.14167	1.21104E-003	-9.94121E-005	0.00000E+000	-1.20392E-007	-5.99601E-002	1.17958E-003	3.57990E+000	9	...........
STARTTIMEOFFSET	QUANT	1958.373	Start Time Offset (s)
