EXPLAIN
TAG	PWR800_DISCHARGE
TITLE	LABEL	PWR Cyclic Charge Discharge (Cell) - Discharge Step	Test &Identifier
DATE	LABEL	13-7-2017	Date
TIME	LABEL	15:21:57	Time
NOTES	NOTES	2	&Notes...
	supercap test cell
	6M KOH
PSTAT	PSTAT	IFC5000-01520	Potentiostat
CAPACITY	QUANT	1.00000E-003	Capacity (A-hr)
CELLTYPE	SELECTOR	1	&Cell Type
WORKINGCONNECTION	SELECTOR	0	&Working Lead
MAXDISCHARGETIME	VARIABLEANDUNITS	1.00000E+002	s	1.00000E+002	second(s)	Max &Discharge Time
DISCHARGEMODE	MULTIPARAM	0	1.00000E-004	&Discharge Mode	Constant Current	Amp(s)
SAMPLETIME	QUANT	1.00000E-002	Sa&mple Period (s)
DISCHARGESTOPAT1	MULTIPARAM	3	0.00000E+000	Discharge Stop At &1	Voltage < Limit	V
DISCHARGESTOPAT2	MULTIPARAM	0	0.00000E+000	Discharge Stop At &2	None	N/A
AESBHCSELECTOR	TOGGLE	F	Save Both Half Cells
IRCOMP	TOGGLE	F	IR &Measure
EOC	QUANT	0	Open Circuit (V)
SEQUENCER	TOGGLE	TRUE	Run as Sequence
PSTATMODEL	IQUANT	53	Pstat Model
PSTATSECTION	LABEL	IFC5000-01520	Pstat Section
PSTATSERIALNO	LABEL	01520	Pstat Serial Number
CTRLMODE	IQUANT	0	Control Mode
ELECTROMETER	IQUANT	1	RE=0 or CS=1
IESTAB	IQUANT	0	I/E Stability
CASPEED	IQUANT	4	Control Amp Speed
CONVENTION	IQUANT	1	Current Convention
ICHRANGE	IQUANT	2	Ich Range
ICHRANGEMODE	TOGGLE	T	Ich Auto Range
ICHOFFSETENABLE	TOGGLE	F	Ich Offset Enable
ICHOFFSET	QUANT	0	Ich Offset (V)
ICHFILTER	IQUANT	1	Ich Filter
VCHRANGE	IQUANT	2	Vch Range
VCHRANGEMODE	TOGGLE	T	Vch Auto Range
VCHOFFSETENABLE	TOGGLE	F	Vch Offset Enable
VCHOFFSET	QUANT	0	Vch Offset (V)
VCHFILTER	IQUANT	1	Vch Filter
IERANGELOWERLIMIT	IQUANT	9	I/E Range Lower Limit
IERANGEMODE	TOGGLE	F	I/E AutoRange
IERANGE	IQUANT	9	I/E Range
ACHSELECT	IQUANT	1	Ach Select
ACHRANGE	IQUANT	2	Ach Range
ACHOFFSETENABLE	TOGGLE	F	Ach Offset Enable
ACHOFFSET	QUANT	0	Ach Offset (V)
ACHFILTER	IQUANT	1	Ach Filter
CABLEID	IQUANT	14	Cable ID
DCCALDATE	LABEL	5-7-2017	DC Calibration Date
ACCALDATE	LABEL	12/3/2015	AC Calibration Date
FRAMEWORKVERSION	QUANT	7.01	Framework Version
INSTRUMENTVERSION	LABEL	4.00	Instrument Version
CURVE	TABLE	89
	Pt	T	Vf	Im	Vu	Pwr	Sig	Ach	Temp	IERange	Over
	#	s	V	A	V	W	V	V	deg C	#	bits
	0	0.013333	8.50635E-001	-9.81581E-005	0.00000E+000	-8.34967E-005	-5.99601E-002	8.50906E-001	3.57890E+000	9	...........
	1	0.026667	8.36871E-001	-9.92875E-005	0.00000E+000	-8.30908E-005	-5.99601E-002	8.37153E-001	3.57890E+000	9	...........
	2	0.04	8.23988E-001	-9.98980E-005	0.00000E+000	-8.23148E-005	-5.99601E-002	8.24275E-001	3.57890E+000	9	...........
	3	0.053333	8.11646E-001	-9.85467E-005	0.00000E+000	-7.99851E-005	-5.99601E-002	8.11937E-001	3.57890E+000	9	...........
	4	0.066667	7.99741E-001	-9.97084E-005	0.00000E+000	-7.97409E-005	-5.99601E-002	8.00052E-001	3.57890E+000	9	...........
	5	0.08	7.88094E-001	-9.87165E-005	0.00000E+000	-7.77979E-005	-5.99601E-002	7.88406E-001	3.57890E+000	9	...........
	6	0.093333	7.76665E-001	-9.89280E-005	0.00000E+000	-7.68339E-005	-5.99601E-002	7.76980E-001	3.57890E+000	9	...........
	7	0.106667	7.65422E-001	-9.90343E-005	0.00000E+000	-7.58030E-005	-5.99601E-002	7.65731E-001	3.57890E+000	9	...........
	8	0.12	7.54291E-001	-9.77851E-005	0.00000E+000	-7.37584E-005	-5.99601E-002	7.54574E-001	3.57890E+000	9	...........
	9	0.133333	7.43260E-001	-9.88249E-005	0.00000E+000	-7.34526E-005	-5.99601E-002	7.43543E-001	3.57890E+000	9	...........
	10	0.146667	7.32291E-001	-9.87311E-005	0.00000E+000	-7.22999E-005	-5.99601E-002	7.32591E-001	3.57890E+000	9	...........
	11	0.16	7.21423E-001	-9.94177E-005	0.00000E+000	-7.17222E-005	-5.99601E-002	7.21680E-001	3.57890E+000	9	...........
	12	0.173333	7.10535E-001	-9.95146E-005	0.00000E+000	-7.07087E-005	-5.99601E-002	7.10825E-001	3.57890E+000	9	...........
	13	0.186667	6.99730E-001	-9.89207E-005	0.00000E+000	-6.92178E-005	-5.99601E-002	7.00014E-001	3.57890E+000	9	...........
	14	0.2	6.88949E-001	-9.89885E-005	0.00000E+000	-6.81980E-005	-5.99601E-002	6.89232E-001	3.57890E+000	9	...........
	15	0.213333	6.78193E-001	-9.82925E-005	0.00000E+000	-6.66613E-005	-5.99601E-002	6.78473E-001	3.57890E+000	9	...........
	16	0.226667	6.67438E-001	-9.92614E-005	0.00000E+000	-6.62509E-005	-5.99601E-002	6.67739E-001	3.57890E+000	9	...........
	17	0.24	6.56692E-001	-9.93156E-005	0.00000E+000	-6.52197E-005	-5.99601E-002	6.56962E-001	3.57890E+000	9	...........
	18	0.253333	6.46001E-001	-9.84602E-005	0.00000E+000	-6.36054E-005	-5.99601E-002	6.46209E-001	3.57890E+000	9	...........
	19	0.266667	6.35266E-001	-9.95615E-005	0.00000E+000	-6.32481E-005	-5.99601E-002	6.35496E-001	3.57890E+000	9	...........
	20	0.28	6.24605E-001	-9.86936E-005	0.00000E+000	-6.16445E-005	-5.99601E-002	6.24793E-001	3.57890E+000	9	...........
	21	0.293333	6.13905E-001	-9.85665E-005	0.00000E+000	-6.05104E-005	-5.99601E-002	6.14139E-001	3.57890E+000	9	...........
	22	0.306667	6.03218E-001	-9.86311E-005	0.00000E+000	-5.94961E-005	-5.99601E-002	6.03458E-001	3.57890E+000	9	...........
	23	0.32	5.92610E-001	-9.85613E-005	0.00000E+000	-5.84084E-005	-5.99601E-002	5.92832E-001	3.57890E+000	9	...........
	24	0.333333	5.81954E-001	-9.87280E-005	0.00000E+000	-5.74552E-005	-5.99601E-002	5.82215E-001	3.57890E+000	9	...........
	25	0.346667	5.71384E-001	-9.88759E-005	0.00000E+000	-5.64961E-005	-5.99601E-002	5.71611E-001	3.57890E+000	9	...........
	26	0.36	5.60776E-001	-9.89614E-005	0.00000E+000	-5.54952E-005	-5.99601E-002	5.61030E-001	3.57890E+000	9	...........
	27	0.373333	5.50236E-001	-9.89405E-005	0.00000E+000	-5.44407E-005	-5.99601E-002	5.50474E-001	3.57890E+000	9	...........
	28	0.386667	5.39701E-001	-9.90499E-005	0.00000E+000	-5.34573E-005	-5.99601E-002	5.39962E-001	3.57890E+000	9	...........
	29	0.4	5.29182E-001	-9.90885E-005	0.00000E+000	-5.24358E-005	-5.99601E-002	5.29451E-001	3.57890E+000	9	...........
	30	0.413333	5.18734E-001	-9.93198E-005	0.00000E+000	-5.15206E-005	-5.99601E-002	5.18985E-001	3.57890E+000	9	...........
	31	0.426667	5.08297E-001	-9.85582E-005	0.00000E+000	-5.00968E-005	-5.99601E-002	5.08555E-001	3.57890E+000	9	...........
	32	0.44	4.97892E-001	-9.87686E-005	0.00000E+000	-4.91761E-005	-5.99601E-002	4.98159E-001	3.57890E+000	9	...........
	33	0.453333	4.87626E-001	-9.87665E-005	0.00000E+000	-4.81611E-005	-5.99601E-002	4.87861E-001	3.57890E+000	9	...........
	34	0.466667	4.77650E-001	-9.89478E-005	0.00000E+000	-4.72624E-005	-5.99601E-002	4.77753E-001	3.57890E+000	9	...........
	35	0.48	4.67406E-001	-9.96949E-005	0.00000E+000	-4.65979E-005	-5.99601E-002	4.67499E-001	3.57890E+000	9	...........
	36	0.493333	4.57209E-001	-9.90156E-005	0.00000E+000	-4.52708E-005	-5.99601E-002	4.57301E-001	3.57890E+000	9	...........
	37	0.506667	4.47070E-001	-9.89999E-005	0.00000E+000	-4.42599E-005	-5.99601E-002	4.47157E-001	3.57890E+000	9	...........
	38	0.52	4.36979E-001	-9.88468E-005	0.00000E+000	-4.31940E-005	-5.99601E-002	4.37069E-001	3.57890E+000	9	...........
	39	0.533333	4.26946E-001	-9.86123E-005	0.00000E+000	-4.21022E-005	-5.99601E-002	4.27036E-001	3.57890E+000	9	...........
	40	0.546667	4.16965E-001	-9.97928E-005	0.00000E+000	-4.16101E-005	-5.99601E-002	4.17051E-001	3.57890E+000	9	...........
	41	0.56	4.07048E-001	-9.87936E-005	0.00000E+000	-4.02137E-005	-5.99601E-002	4.07132E-001	3.57890E+000	9	...........
	42	0.573333	3.97184E-001	-9.91270E-005	0.00000E+000	-3.93717E-005	-5.99601E-002	3.97259E-001	3.57890E+000	9	...........
	43	0.586667	3.87374E-001	-9.87624E-005	0.00000E+000	-3.82580E-005	-5.99601E-002	3.87451E-001	3.57890E+000	9	...........
	44	0.6	3.77624E-001	-9.92218E-005	0.00000E+000	-3.74685E-005	-5.99601E-002	3.77694E-001	3.57890E+000	9	...........
	45	0.613333	3.67915E-001	-9.91145E-005	0.00000E+000	-3.64657E-005	-5.99601E-002	3.67991E-001	3.57890E+000	9	...........
	46	0.626667	3.58267E-001	-9.93531E-005	0.00000E+000	-3.55949E-005	-5.99601E-002	3.58342E-001	3.57890E+000	9	...........
	47	0.64	3.48668E-001	-9.86165E-005	0.00000E+000	-3.43845E-005	-5.99601E-002	3.48740E-001	3.57890E+000	9	...........
	48	0.653333	3.39125E-001	-9.85769E-005	0.00000E+000	-3.34298E-005	-5.99601E-002	3.39192E-001	3.57890E+000	9	...........
	49	0.666667	3.29630E-001	-9.90739E-005	0.00000E+000	-3.26577E-005	-5.99601E-002	3.29695E-001	3.57890E+000	9	...........
	50	0.68	3.20184E-001	-9.88405E-005	0.00000E+000	-3.16472E-005	-5.99601E-002	3.20250E-001	3.57890E+000	9	...........
	51	0.693333	3.10787E-001	-9.92458E-005	0.00000E+000	-3.08443E-005	-5.99601E-002	3.10848E-001	3.57890E+000	9	...........
	52	0.706667	3.01437E-001	-9.92229E-005	0.00000E+000	-2.99095E-005	-5.99601E-002	3.01492E-001	3.57890E+000	9	...........
	53	0.72	2.92131E-001	-9.92396E-005	0.00000E+000	-2.89910E-005	-5.99601E-002	2.92190E-001	3.57890E+000	9	...........
	54	0.733333	2.82872E-001	-9.90124E-005	0.00000E+000	-2.80079E-005	-5.99601E-002	2.82928E-001	3.57890E+000	9	...........
	55	0.746667	2.73664E-001	-9.83508E-005	0.00000E+000	-2.69151E-005	-5.99601E-002	2.73718E-001	3.57890E+000	9	...........
	56	0.76	2.64492E-001	-9.87217E-005	0.00000E+000	-2.61111E-005	-5.99601E-002	2.64541E-001	3.57890E+000	9	...........
	57	0.773333	2.55363E-001	-9.89437E-005	0.00000E+000	-2.52666E-005	-5.99601E-002	2.55405E-001	3.57890E+000	9	...........
	58	0.786667	2.46273E-001	-9.91458E-005	0.00000E+000	-2.44169E-005	-5.99601E-002	2.46321E-001	3.57890E+000	9	...........
	59	0.8	2.37230E-001	-9.84894E-005	0.00000E+000	-2.33646E-005	-5.99601E-002	2.37274E-001	3.57890E+000	9	...........
	60	0.813333	2.28225E-001	-9.94667E-005	0.00000E+000	-2.27008E-005	-5.99601E-002	2.28264E-001	3.57890E+000	9	...........
	61	0.826667	2.19267E-001	-9.88468E-005	0.00000E+000	-2.16739E-005	-5.99601E-002	2.19306E-001	3.57890E+000	9	...........
	62	0.84	2.10353E-001	-9.91708E-005	0.00000E+000	-2.08609E-005	-5.99601E-002	2.10385E-001	3.57890E+000	9	...........
	63	0.853333	2.01480E-001	-9.87009E-005	0.00000E+000	-1.98862E-005	-5.99601E-002	2.01514E-001	3.57890E+000	9	...........
	64	0.866667	1.92663E-001	-9.87207E-005	0.00000E+000	-1.90199E-005	-5.99601E-002	1.92694E-001	3.57890E+000	9	...........
	65	0.88	1.83887E-001	-9.87072E-005	0.00000E+000	-1.81510E-005	-5.99601E-002	1.83918E-001	3.57890E+000	9	...........
	66	0.893333	1.75170E-001	-9.93521E-005	0.00000E+000	-1.74035E-005	-5.99601E-002	1.75199E-001	3.57890E+000	9	...........
	67	0.906667	1.66507E-001	-9.81602E-005	0.00000E+000	-1.63444E-005	-5.99601E-002	1.66532E-001	3.57890E+000	9	...........
	68	0.92	1.57901E-001	-9.96865E-005	0.00000E+000	-1.57406E-005	-5.99601E-002	1.57921E-001	3.57890E+000	9	...........
	69	0.933333	1.49352E-001	-9.86436E-005	0.00000E+000	-1.47326E-005	-5.99601E-002	1.49377E-001	3.57904E+000	9	...........
	70	0.946667	1.40869E-001	-9.82821E-005	0.00000E+000	-1.38449E-005	-5.99601E-002	1.40889E-001	3.58000E+000	9	...........
	71	0.96	1.32446E-001	-9.81643E-005	0.00000E+000	-1.30015E-005	-5.99601E-002	1.32458E-001	3.58000E+000	9	...........
	72	0.97333	1.24087E-001	-9.86103E-005	0.00000E+000	-1.22362E-005	-5.99601E-002	1.24105E-001	3.58000E+000	9	...........
	73	0.98667	1.15796E-001	-9.97626E-005	0.00000E+000	-1.15521E-005	-5.99601E-002	1.15813E-001	3.58000E+000	9	...........
	74	1	1.07577E-001	-9.94990E-005	0.00000E+000	-1.07038E-005	-5.99601E-002	1.07590E-001	3.58000E+000	9	...........
	75	1.01333	9.94250E-002	-9.88582E-005	0.00000E+000	-9.82897E-006	-5.99601E-002	9.94377E-002	3.58000E+000	9	...........
	76	1.02667	9.13453E-002	-9.85707E-005	0.00000E+000	-9.00396E-006	-5.99601E-002	9.13528E-002	3.58000E+000	9	...........
	77	1.04	8.33380E-002	-9.82758E-005	0.00000E+000	-8.19011E-006	-5.99601E-002	8.33415E-002	3.58000E+000	9	...........
	78	1.05333	7.53945E-002	-9.89624E-005	0.00000E+000	-7.46122E-006	-5.99601E-002	7.53963E-002	3.58000E+000	9	...........
	79	1.06667	6.75238E-002	-9.84102E-005	0.00000E+000	-6.64504E-006	-5.99601E-002	6.75223E-002	3.58000E+000	9	...........
	80	1.08	5.97174E-002	-9.80518E-005	0.00000E+000	-5.85540E-006	-5.99601E-002	5.97184E-002	3.58000E+000	9	...........
	81	1.09333	5.19754E-002	-9.83175E-005	0.00000E+000	-5.11009E-006	-5.99601E-002	5.19747E-002	3.58000E+000	9	...........
	82	1.10667	4.43472E-002	-1.00014E-004	0.00000E+000	-4.43533E-006	-5.99601E-002	4.43368E-002	3.58000E+000	9	...........
	83	1.12	3.67444E-002	-9.85988E-005	0.00000E+000	-3.62295E-006	-5.99601E-002	3.67326E-002	3.58000E+000	9	...........
	84	1.13333	2.92059E-002	-9.89749E-005	0.00000E+000	-2.89065E-006	-5.99601E-002	2.91912E-002	3.58000E+000	9	...........
	85	1.14667	2.17312E-002	-9.94011E-005	0.00000E+000	-2.16011E-006	-5.99601E-002	2.17139E-002	3.58000E+000	9	...........
	86	1.16	1.43206E-002	-9.94156E-005	0.00000E+000	-1.42369E-006	-5.99601E-002	1.42934E-002	3.58000E+000	9	...........
	87	1.17333	6.96908E-003	-9.94552E-005	0.00000E+000	-6.93112E-007	-5.99601E-002	6.94106E-003	3.58000E+000	9	...........
	88	1.18167	1.04774E-003	-9.89920E-005	0.00000E+000	-1.03718E-007	-5.99601E-002	1.01228E-003	3.58000E+000	9	...........
STARTTIMEOFFSET	QUANT	901.934	Start Time Offset (s)
