EXPLAIN
TAG	PWR800_DISCHARGE
TITLE	LABEL	PWR Cyclic Charge Discharge (Cell) - Discharge Step	Test &Identifier
DATE	LABEL	13-7-2017	Date
TIME	LABEL	15:15:39	Time
NOTES	NOTES	2	&Notes...
	supercap test cell
	6M KOH
PSTAT	PSTAT	IFC5000-01520	Potentiostat
CAPACITY	QUANT	1.00000E-003	Capacity (A-hr)
CELLTYPE	SELECTOR	1	&Cell Type
WORKINGCONNECTION	SELECTOR	0	&Working Lead
MAXDISCHARGETIME	VARIABLEANDUNITS	1.00000E+002	s	1.00000E+002	second(s)	Max &Discharge Time
DISCHARGEMODE	MULTIPARAM	0	1.00000E-004	&Discharge Mode	Constant Current	Amp(s)
SAMPLETIME	QUANT	1.00000E-002	Sa&mple Period (s)
DISCHARGESTOPAT1	MULTIPARAM	3	0.00000E+000	Discharge Stop At &1	Voltage < Limit	V
DISCHARGESTOPAT2	MULTIPARAM	0	0.00000E+000	Discharge Stop At &2	None	N/A
AESBHCSELECTOR	TOGGLE	F	Save Both Half Cells
IRCOMP	TOGGLE	F	IR &Measure
EOC	QUANT	0	Open Circuit (V)
SEQUENCER	TOGGLE	TRUE	Run as Sequence
PSTATMODEL	IQUANT	53	Pstat Model
PSTATSECTION	LABEL	IFC5000-01520	Pstat Section
PSTATSERIALNO	LABEL	01520	Pstat Serial Number
CTRLMODE	IQUANT	0	Control Mode
ELECTROMETER	IQUANT	1	RE=0 or CS=1
IESTAB	IQUANT	0	I/E Stability
CASPEED	IQUANT	4	Control Amp Speed
CONVENTION	IQUANT	1	Current Convention
ICHRANGE	IQUANT	2	Ich Range
ICHRANGEMODE	TOGGLE	T	Ich Auto Range
ICHOFFSETENABLE	TOGGLE	F	Ich Offset Enable
ICHOFFSET	QUANT	0	Ich Offset (V)
ICHFILTER	IQUANT	1	Ich Filter
VCHRANGE	IQUANT	2	Vch Range
VCHRANGEMODE	TOGGLE	T	Vch Auto Range
VCHOFFSETENABLE	TOGGLE	F	Vch Offset Enable
VCHOFFSET	QUANT	0	Vch Offset (V)
VCHFILTER	IQUANT	1	Vch Filter
IERANGELOWERLIMIT	IQUANT	9	I/E Range Lower Limit
IERANGEMODE	TOGGLE	F	I/E AutoRange
IERANGE	IQUANT	9	I/E Range
ACHSELECT	IQUANT	1	Ach Select
ACHRANGE	IQUANT	2	Ach Range
ACHOFFSETENABLE	TOGGLE	F	Ach Offset Enable
ACHOFFSET	QUANT	0	Ach Offset (V)
ACHFILTER	IQUANT	1	Ach Filter
CABLEID	IQUANT	14	Cable ID
DCCALDATE	LABEL	5-7-2017	DC Calibration Date
ACCALDATE	LABEL	12/3/2015	AC Calibration Date
FRAMEWORKVERSION	QUANT	7.01	Framework Version
INSTRUMENTVERSION	LABEL	4.00	Instrument Version
CURVE	TABLE	90
	Pt	T	Vf	Im	Vu	Pwr	Sig	Ach	Temp	IERange	Over
	#	s	V	A	V	W	V	V	deg C	#	bits
	0	0.013333	8.44386E-001	-9.88645E-005	0.00000E+000	-8.34798E-005	-5.99601E-002	8.44705E-001	3.57960E+000	9	...........
	1	0.026667	8.30945E-001	-9.83977E-005	0.00000E+000	-8.17631E-005	-5.99601E-002	8.31237E-001	3.57960E+000	9	...........
	2	0.04	8.18326E-001	-9.87207E-005	0.00000E+000	-8.07858E-005	-5.99601E-002	8.18598E-001	3.57960E+000	9	...........
	3	0.053333	8.06252E-001	-9.84529E-005	0.00000E+000	-7.93779E-005	-5.99601E-002	8.06516E-001	3.57960E+000	9	...........
	4	0.066667	7.94595E-001	-9.90729E-005	0.00000E+000	-7.87228E-005	-5.99601E-002	7.94872E-001	3.57960E+000	9	...........
	5	0.08	7.83200E-001	-9.89478E-005	0.00000E+000	-7.74959E-005	-5.99601E-002	7.83506E-001	3.57960E+000	9	...........
	6	0.093333	7.72053E-001	-9.83133E-005	0.00000E+000	-7.59031E-005	-5.99601E-002	7.72341E-001	3.57960E+000	9	...........
	7	0.106667	7.61026E-001	-9.89801E-005	0.00000E+000	-7.53265E-005	-5.99601E-002	7.61345E-001	3.57960E+000	9	...........
	8	0.12	7.50186E-001	-9.96001E-005	0.00000E+000	-7.47186E-005	-5.99601E-002	7.50494E-001	3.57960E+000	9	...........
	9	0.133333	7.39398E-001	-9.95615E-005	0.00000E+000	-7.36156E-005	-5.99601E-002	7.39716E-001	3.57960E+000	9	...........
	10	0.146667	7.28721E-001	-9.84050E-005	0.00000E+000	-7.17098E-005	-5.99601E-002	7.29024E-001	3.57960E+000	9	...........
	11	0.16	7.18081E-001	-9.88551E-005	0.00000E+000	-7.09859E-005	-5.99601E-002	7.18386E-001	3.57960E+000	9	...........
	12	0.173333	7.07480E-001	-9.84092E-005	0.00000E+000	-6.96226E-005	-5.99601E-002	7.07789E-001	3.57960E+000	9	...........
	13	0.186667	6.96938E-001	-9.94386E-005	0.00000E+000	-6.93025E-005	-5.99601E-002	6.97250E-001	3.57960E+000	9	...........
	14	0.2	6.86406E-001	-9.89510E-005	0.00000E+000	-6.79206E-005	-5.99601E-002	6.86699E-001	3.57960E+000	9	...........
	15	0.213333	6.75918E-001	-9.95646E-005	0.00000E+000	-6.72975E-005	-5.99601E-002	6.76225E-001	3.57960E+000	9	...........
	16	0.226667	6.65426E-001	-9.89437E-005	0.00000E+000	-6.58397E-005	-5.99601E-002	6.65738E-001	3.57960E+000	9	...........
	17	0.24	6.54974E-001	-9.78924E-005	0.00000E+000	-6.41169E-005	-5.99601E-002	6.55267E-001	3.57960E+000	9	...........
	18	0.253333	6.44540E-001	-9.90103E-005	0.00000E+000	-6.38161E-005	-5.99601E-002	6.44828E-001	3.57960E+000	9	...........
	19	0.266667	6.34064E-001	-9.91645E-005	0.00000E+000	-6.28767E-005	-5.99601E-002	6.34369E-001	3.57960E+000	9	...........
	20	0.28	6.23654E-001	-9.94761E-005	0.00000E+000	-6.20387E-005	-5.99601E-002	6.23917E-001	3.57960E+000	9	...........
	21	0.293333	6.13228E-001	-9.75684E-005	0.00000E+000	-5.98317E-005	-5.99601E-002	6.13517E-001	3.57960E+000	9	...........
	22	0.306667	6.02793E-001	-9.98636E-005	0.00000E+000	-6.01971E-005	-5.99601E-002	6.03102E-001	3.57960E+000	9	...........
	23	0.32	5.92410E-001	-9.97626E-005	0.00000E+000	-5.91004E-005	-5.99601E-002	5.92716E-001	3.57960E+000	9	...........
	24	0.333333	5.82013E-001	-9.83685E-005	0.00000E+000	-5.72517E-005	-5.99601E-002	5.82317E-001	3.57960E+000	9	...........
	25	0.346667	5.71678E-001	-9.90364E-005	0.00000E+000	-5.66169E-005	-5.99601E-002	5.71965E-001	3.57960E+000	9	...........
	26	0.36	5.61318E-001	-1.00012E-004	0.00000E+000	-5.61383E-005	-5.99601E-002	5.61614E-001	3.57960E+000	9	...........
	27	0.373333	5.50984E-001	-9.79320E-005	0.00000E+000	-5.39589E-005	-5.99601E-002	5.51265E-001	3.57960E+000	9	...........
	28	0.386667	5.40713E-001	-9.85196E-005	0.00000E+000	-5.32708E-005	-5.99601E-002	5.40990E-001	3.57960E+000	9	...........
	29	0.4	5.30434E-001	-9.92323E-005	0.00000E+000	-5.26361E-005	-5.99601E-002	5.30710E-001	3.57960E+000	9	...........
	30	0.413333	5.20197E-001	-9.90301E-005	0.00000E+000	-5.15152E-005	-5.99601E-002	5.20458E-001	3.57960E+000	9	...........
	31	0.426667	5.09972E-001	-9.86947E-005	0.00000E+000	-5.03315E-005	-5.99601E-002	5.10260E-001	3.57960E+000	9	...........
	32	0.44	4.99797E-001	-9.95688E-005	0.00000E+000	-4.97642E-005	-5.99601E-002	5.00080E-001	3.57960E+000	9	...........
	33	0.453333	4.89677E-001	-9.85102E-005	0.00000E+000	-4.82382E-005	-5.99601E-002	4.89928E-001	3.57960E+000	9	...........
	34	0.466667	4.79948E-001	-9.89447E-005	0.00000E+000	-4.74884E-005	-5.99601E-002	4.80023E-001	3.57960E+000	9	...........
	35	0.48	4.69895E-001	-9.88259E-005	0.00000E+000	-4.64378E-005	-5.99601E-002	4.69996E-001	3.57960E+000	9	...........
	36	0.493333	4.59886E-001	-9.81852E-005	0.00000E+000	-4.51540E-005	-5.99601E-002	4.59982E-001	3.57960E+000	9	...........
	37	0.506667	4.49922E-001	-9.96188E-005	0.00000E+000	-4.48207E-005	-5.99601E-002	4.50025E-001	3.57960E+000	9	...........
	38	0.52	4.40011E-001	-9.95250E-005	0.00000E+000	-4.37921E-005	-5.99601E-002	4.40102E-001	3.57960E+000	9	...........
	39	0.533333	4.30144E-001	-9.92125E-005	0.00000E+000	-4.26756E-005	-5.99601E-002	4.30230E-001	3.57892E+000	9	...........
	40	0.546667	4.20325E-001	-9.84467E-005	0.00000E+000	-4.13797E-005	-5.99601E-002	4.20412E-001	3.57880E+000	9	...........
	41	0.56	4.10560E-001	-9.93719E-005	0.00000E+000	-4.07981E-005	-5.99601E-002	4.10644E-001	3.57880E+000	9	...........
	42	0.573333	4.00845E-001	-9.91843E-005	0.00000E+000	-3.97576E-005	-5.99601E-002	4.00922E-001	3.57880E+000	9	...........
	43	0.586667	3.91182E-001	-9.82029E-005	0.00000E+000	-3.84152E-005	-5.99601E-002	3.91258E-001	3.57880E+000	9	...........
	44	0.6	3.81561E-001	-9.92093E-005	0.00000E+000	-3.78544E-005	-5.99601E-002	3.81640E-001	3.57880E+000	9	...........
	45	0.613333	3.71998E-001	-9.83925E-005	0.00000E+000	-3.66018E-005	-5.99601E-002	3.72071E-001	3.57880E+000	9	...........
	46	0.626667	3.62479E-001	-9.90739E-005	0.00000E+000	-3.59122E-005	-5.99601E-002	3.62552E-001	3.57880E+000	9	...........
	47	0.64	3.53012E-001	-9.94156E-005	0.00000E+000	-3.50949E-005	-5.99601E-002	3.53082E-001	3.57880E+000	9	...........
	48	0.653333	3.43593E-001	-9.86655E-005	0.00000E+000	-3.39008E-005	-5.99601E-002	3.43664E-001	3.57880E+000	9	...........
	49	0.666667	3.34216E-001	-9.94021E-005	0.00000E+000	-3.32217E-005	-5.99601E-002	3.34281E-001	3.57880E+000	9	...........
	50	0.68	3.24886E-001	-9.80987E-005	0.00000E+000	-3.18709E-005	-5.99601E-002	3.24954E-001	3.57880E+000	9	...........
	51	0.693333	3.15598E-001	-9.82456E-005	0.00000E+000	-3.10061E-005	-5.99601E-002	3.15661E-001	3.57880E+000	9	...........
	52	0.706667	3.06353E-001	-9.85926E-005	0.00000E+000	-3.02041E-005	-5.99601E-002	3.06417E-001	3.57880E+000	9	...........
	53	0.72	2.97155E-001	-9.84373E-005	0.00000E+000	-2.92511E-005	-5.99601E-002	2.97220E-001	3.57880E+000	9	...........
	54	0.733333	2.87997E-001	-9.92281E-005	0.00000E+000	-2.85773E-005	-5.99601E-002	2.88057E-001	3.57880E+000	9	...........
	55	0.746667	2.78883E-001	-9.92906E-005	0.00000E+000	-2.76904E-005	-5.99601E-002	2.78939E-001	3.57880E+000	9	...........
	56	0.76	2.69802E-001	-9.77507E-005	0.00000E+000	-2.63733E-005	-5.99601E-002	2.69863E-001	3.57880E+000	9	...........
	57	0.773333	2.60771E-001	-9.86571E-005	0.00000E+000	-2.57269E-005	-5.99601E-002	2.60826E-001	3.57880E+000	9	...........
	58	0.786667	2.51772E-001	-9.88051E-005	0.00000E+000	-2.48764E-005	-5.99601E-002	2.51827E-001	3.57880E+000	9	...........
	59	0.8	2.42821E-001	-9.94115E-005	0.00000E+000	-2.41392E-005	-5.99601E-002	2.42867E-001	3.57880E+000	9	...........
	60	0.813333	2.33905E-001	-9.99845E-005	0.00000E+000	-2.33869E-005	-5.99601E-002	2.33948E-001	3.57880E+000	9	...........
	61	0.826667	2.25028E-001	-9.88551E-005	0.00000E+000	-2.22452E-005	-5.99601E-002	2.25065E-001	3.57880E+000	9	...........
	62	0.84	2.16189E-001	-9.88457E-005	0.00000E+000	-2.13693E-005	-5.99601E-002	2.16228E-001	3.57880E+000	9	...........
	63	0.853333	2.07392E-001	-9.87665E-005	0.00000E+000	-2.04834E-005	-5.99601E-002	2.07429E-001	3.57880E+000	9	...........
	64	0.866667	1.98644E-001	-9.87051E-005	0.00000E+000	-1.96072E-005	-5.99601E-002	1.98675E-001	3.57880E+000	9	...........
	65	0.88	1.89937E-001	-9.88999E-005	0.00000E+000	-1.87848E-005	-5.99601E-002	1.89965E-001	3.57880E+000	9	...........
	66	0.893333	1.81277E-001	-9.82237E-005	0.00000E+000	-1.78057E-005	-5.99601E-002	1.81306E-001	3.57880E+000	9	...........
	67	0.906667	1.72665E-001	-9.87436E-005	0.00000E+000	-1.70496E-005	-5.99601E-002	1.72695E-001	3.57880E+000	9	...........
	68	0.92	1.64105E-001	-9.85519E-005	0.00000E+000	-1.61729E-005	-5.99601E-002	1.64132E-001	3.57880E+000	9	...........
	69	0.933333	1.55608E-001	-9.75830E-005	0.00000E+000	-1.51847E-005	-5.99601E-002	1.55625E-001	3.57880E+000	9	...........
	70	0.946667	1.47151E-001	-9.85717E-005	0.00000E+000	-1.45050E-005	-5.99601E-002	1.47169E-001	3.57880E+000	9	...........
	71	0.96	1.38760E-001	-9.97386E-005	0.00000E+000	-1.38397E-005	-5.99601E-002	1.38779E-001	3.57880E+000	9	...........
	72	0.97333	1.30436E-001	-9.81029E-005	0.00000E+000	-1.27962E-005	-5.99601E-002	1.30446E-001	3.57880E+000	9	...........
	73	0.98667	1.22167E-001	-9.86228E-005	0.00000E+000	-1.20485E-005	-5.99601E-002	1.22178E-001	3.57880E+000	9	...........
	74	1	1.13962E-001	-9.88363E-005	0.00000E+000	-1.12635E-005	-5.99601E-002	1.13973E-001	3.57880E+000	9	...........
	75	1.01333	1.05822E-001	-9.94031E-005	0.00000E+000	-1.05191E-005	-5.99601E-002	1.05831E-001	3.57880E+000	9	...........
	76	1.02667	9.77530E-002	-9.93885E-005	0.00000E+000	-9.71552E-006	-5.99601E-002	9.77608E-002	3.57880E+000	9	...........
	77	1.04	8.97497E-002	-9.83008E-005	0.00000E+000	-8.82247E-006	-5.99601E-002	8.97546E-002	3.57880E+000	9	...........
	78	1.05333	8.18117E-002	-9.82487E-005	0.00000E+000	-8.03790E-006	-5.99601E-002	8.18161E-002	3.57880E+000	9	...........
	79	1.06667	7.39412E-002	-9.85863E-005	0.00000E+000	-7.28959E-006	-5.99601E-002	7.39397E-002	3.57880E+000	9	...........
	80	1.08	6.61359E-002	-9.87853E-005	0.00000E+000	-6.53325E-006	-5.99601E-002	6.61324E-002	3.57880E+000	9	...........
	81	1.09333	5.83937E-002	-9.80622E-005	0.00000E+000	-5.72621E-006	-5.99601E-002	5.83849E-002	3.57880E+000	9	...........
	82	1.10667	5.07216E-002	-9.85498E-005	0.00000E+000	-4.99860E-006	-5.99601E-002	5.07107E-002	3.57880E+000	9	...........
	83	1.12	4.31351E-002	-9.89062E-005	0.00000E+000	-4.26632E-006	-5.99601E-002	4.31295E-002	3.57880E+000	9	...........
	84	1.13333	3.55822E-002	-9.91604E-005	0.00000E+000	-3.52834E-006	-5.99601E-002	3.55735E-002	3.57880E+000	9	...........
	85	1.14667	2.80969E-002	-9.86540E-005	0.00000E+000	-2.77187E-006	-5.99601E-002	2.80760E-002	3.57880E+000	9	...........
	86	1.16	2.06622E-002	-9.90124E-005	0.00000E+000	-2.04581E-006	-5.99601E-002	2.06421E-002	3.57880E+000	9	...........
	87	1.17333	1.32948E-002	-9.87759E-005	0.00000E+000	-1.31321E-006	-5.99601E-002	1.32664E-002	3.57880E+000	9	...........
	88	1.18667	5.98136E-003	-9.92927E-005	0.00000E+000	-5.93905E-007	-5.99601E-002	5.94933E-003	3.57880E+000	9	...........
	89	1.19333	5.29699E-004	-9.82289E-005	0.00000E+000	-5.20318E-008	-5.99601E-002	5.04259E-004	3.57880E+000	9	...........
STARTTIMEOFFSET	QUANT	616.1312	Start Time Offset (s)
