EXPLAIN
TAG	PWR800_DISCHARGE
TITLE	LABEL	PWR Cyclic Charge Discharge (Cell) - Discharge Step	Test &Identifier
DATE	LABEL	13-7-2017	Date
TIME	LABEL	15:36:11	Time
NOTES	NOTES	2	&Notes...
	supercap test cell
	6M KOH
PSTAT	PSTAT	IFC5000-01520	Potentiostat
CAPACITY	QUANT	1.00000E-003	Capacity (A-hr)
CELLTYPE	SELECTOR	1	&Cell Type
WORKINGCONNECTION	SELECTOR	0	&Working Lead
MAXDISCHARGETIME	VARIABLEANDUNITS	1.00000E+002	s	1.00000E+002	second(s)	Max &Discharge Time
DISCHARGEMODE	MULTIPARAM	0	1.00000E-004	&Discharge Mode	Constant Current	Amp(s)
SAMPLETIME	QUANT	1.00000E-002	Sa&mple Period (s)
DISCHARGESTOPAT1	MULTIPARAM	3	0.00000E+000	Discharge Stop At &1	Voltage < Limit	V
DISCHARGESTOPAT2	MULTIPARAM	0	0.00000E+000	Discharge Stop At &2	None	N/A
AESBHCSELECTOR	TOGGLE	F	Save Both Half Cells
IRCOMP	TOGGLE	F	IR &Measure
EOC	QUANT	0	Open Circuit (V)
SEQUENCER	TOGGLE	TRUE	Run as Sequence
PSTATMODEL	IQUANT	53	Pstat Model
PSTATSECTION	LABEL	IFC5000-01520	Pstat Section
PSTATSERIALNO	LABEL	01520	Pstat Serial Number
CTRLMODE	IQUANT	0	Control Mode
ELECTROMETER	IQUANT	1	RE=0 or CS=1
IESTAB	IQUANT	0	I/E Stability
CASPEED	IQUANT	4	Control Amp Speed
CONVENTION	IQUANT	1	Current Convention
ICHRANGE	IQUANT	2	Ich Range
ICHRANGEMODE	TOGGLE	T	Ich Auto Range
ICHOFFSETENABLE	TOGGLE	F	Ich Offset Enable
ICHOFFSET	QUANT	0	Ich Offset (V)
ICHFILTER	IQUANT	1	Ich Filter
VCHRANGE	IQUANT	2	Vch Range
VCHRANGEMODE	TOGGLE	T	Vch Auto Range
VCHOFFSETENABLE	TOGGLE	F	Vch Offset Enable
VCHOFFSET	QUANT	0	Vch Offset (V)
VCHFILTER	IQUANT	1	Vch Filter
IERANGELOWERLIMIT	IQUANT	9	I/E Range Lower Limit
IERANGEMODE	TOGGLE	F	I/E AutoRange
IERANGE	IQUANT	9	I/E Range
ACHSELECT	IQUANT	1	Ach Select
ACHRANGE	IQUANT	2	Ach Range
ACHOFFSETENABLE	TOGGLE	F	Ach Offset Enable
ACHOFFSET	QUANT	0	Ach Offset (V)
ACHFILTER	IQUANT	1	Ach Filter
CABLEID	IQUANT	14	Cable ID
DCCALDATE	LABEL	5-7-2017	DC Calibration Date
ACCALDATE	LABEL	12/3/2015	AC Calibration Date
FRAMEWORKVERSION	QUANT	7.01	Framework Version
INSTRUMENTVERSION	LABEL	4.00	Instrument Version
CURVE	TABLE	87
	Pt	T	Vf	Im	Vu	Pwr	Sig	Ach	Temp	IERange	Over
	#	s	V	A	V	W	V	V	deg C	#	bits
	0	0.013333	8.47980E-001	-9.93271E-005	0.00000E+000	-8.42274E-005	-5.99601E-002	8.48341E-001	3.58210E+000	9	...........
	1	0.026667	8.33855E-001	-9.87030E-005	0.00000E+000	-8.23039E-005	-5.99601E-002	8.34206E-001	3.58210E+000	9	...........
	2	0.04	8.20587E-001	-9.93417E-005	0.00000E+000	-8.15185E-005	-5.99601E-002	8.20946E-001	3.58210E+000	9	...........
	3	0.053333	8.07876E-001	-9.87363E-005	0.00000E+000	-7.97667E-005	-5.99601E-002	8.08207E-001	3.58210E+000	9	...........
	4	0.066667	7.95595E-001	-9.93854E-005	0.00000E+000	-7.90706E-005	-5.99601E-002	7.95898E-001	3.58030E+000	9	...........
	5	0.08	7.83549E-001	-9.88718E-005	0.00000E+000	-7.74708E-005	-5.99601E-002	7.83879E-001	3.57850E+000	9	...........
	6	0.093333	7.71749E-001	-9.95698E-005	0.00000E+000	-7.68429E-005	-5.99601E-002	7.72071E-001	3.57850E+000	9	...........
	7	0.106667	7.60115E-001	-9.90166E-005	0.00000E+000	-7.52640E-005	-5.99601E-002	7.60439E-001	3.57850E+000	9	...........
	8	0.12	7.48589E-001	-9.85946E-005	0.00000E+000	-7.38069E-005	-5.99601E-002	7.48919E-001	3.57850E+000	9	...........
	9	0.133333	7.37175E-001	-9.88238E-005	0.00000E+000	-7.28505E-005	-5.99601E-002	7.37474E-001	3.57850E+000	9	...........
	10	0.146667	7.25855E-001	-9.90583E-005	0.00000E+000	-7.19019E-005	-5.99601E-002	7.26133E-001	3.57850E+000	9	...........
	11	0.16	7.14529E-001	-9.89760E-005	0.00000E+000	-7.07212E-005	-5.99601E-002	7.14828E-001	3.57850E+000	9	...........
	12	0.173333	7.03308E-001	-9.97053E-005	0.00000E+000	-7.01235E-005	-5.99601E-002	7.03565E-001	3.57850E+000	9	...........
	13	0.186667	6.92112E-001	-9.90583E-005	0.00000E+000	-6.85594E-005	-5.99601E-002	6.92392E-001	3.57850E+000	9	...........
	14	0.2	6.80942E-001	-9.86571E-005	0.00000E+000	-6.71798E-005	-5.99601E-002	6.81207E-001	3.57850E+000	9	...........
	15	0.213333	6.69779E-001	-9.81352E-005	0.00000E+000	-6.57289E-005	-5.99601E-002	6.70065E-001	3.57850E+000	9	...........
	16	0.226667	6.58659E-001	-9.86436E-005	0.00000E+000	-6.49725E-005	-5.99601E-002	6.58911E-001	3.57850E+000	9	...........
	17	0.24	6.47552E-001	-9.90239E-005	0.00000E+000	-6.41231E-005	-5.99601E-002	6.47821E-001	3.57850E+000	9	...........
	18	0.253333	6.36454E-001	-9.89426E-005	0.00000E+000	-6.29724E-005	-5.99601E-002	6.36736E-001	3.57850E+000	9	...........
	19	0.266667	6.25386E-001	-9.92958E-005	0.00000E+000	-6.20982E-005	-5.99601E-002	6.25666E-001	3.57850E+000	9	...........
	20	0.28	6.14321E-001	-9.91197E-005	0.00000E+000	-6.08913E-005	-5.99601E-002	6.14596E-001	3.57850E+000	9	...........
	21	0.293333	6.03282E-001	-9.89958E-005	0.00000E+000	-5.97223E-005	-5.99601E-002	6.03571E-001	3.57850E+000	9	...........
	22	0.306667	5.92283E-001	-9.87551E-005	0.00000E+000	-5.84909E-005	-5.99601E-002	5.92571E-001	3.57850E+000	9	...........
	23	0.32	5.81298E-001	-9.99835E-005	0.00000E+000	-5.81201E-005	-5.99601E-002	5.81576E-001	3.57850E+000	9	...........
	24	0.333333	5.70368E-001	-9.81664E-005	0.00000E+000	-5.59910E-005	-5.99601E-002	5.70606E-001	3.57850E+000	9	...........
	25	0.346667	5.59433E-001	-9.91718E-005	0.00000E+000	-5.54800E-005	-5.99601E-002	5.59676E-001	3.57850E+000	9	...........
	26	0.36	5.48554E-001	-9.90312E-005	0.00000E+000	-5.43240E-005	-5.99601E-002	5.48801E-001	3.57850E+000	9	...........
	27	0.373333	5.37713E-001	-9.90239E-005	0.00000E+000	-5.32464E-005	-5.99601E-002	5.37944E-001	3.57850E+000	9	...........
	28	0.386667	5.26897E-001	-9.86436E-005	0.00000E+000	-5.19751E-005	-5.99601E-002	5.27159E-001	3.57850E+000	9	...........
	29	0.4	5.16172E-001	-9.84529E-005	0.00000E+000	-5.08187E-005	-5.99601E-002	5.16384E-001	3.57850E+000	9	...........
	30	0.413333	5.05402E-001	-9.93677E-005	0.00000E+000	-5.02206E-005	-5.99601E-002	5.05673E-001	3.57850E+000	9	...........
	31	0.426667	4.94793E-001	-9.85926E-005	0.00000E+000	-4.87829E-005	-5.99601E-002	4.95014E-001	3.57850E+000	9	...........
	32	0.44	4.84368E-001	-9.82560E-005	0.00000E+000	-4.75921E-005	-5.99601E-002	4.84522E-001	3.57850E+000	9	...........
	33	0.453333	4.73997E-001	-9.98501E-005	0.00000E+000	-4.73287E-005	-5.99601E-002	4.74094E-001	3.57850E+000	9	...........
	34	0.466667	4.63512E-001	-9.84154E-005	0.00000E+000	-4.56167E-005	-5.99601E-002	4.63602E-001	3.57850E+000	9	...........
	35	0.48	4.53077E-001	-9.91843E-005	0.00000E+000	-4.49382E-005	-5.99601E-002	4.53174E-001	3.57850E+000	9	...........
	36	0.493333	4.42712E-001	-9.89374E-005	0.00000E+000	-4.38008E-005	-5.99601E-002	4.42807E-001	3.57850E+000	9	...........
	37	0.506667	4.32410E-001	-9.87415E-005	0.00000E+000	-4.26968E-005	-5.99601E-002	4.32497E-001	3.57850E+000	9	...........
	38	0.52	4.22172E-001	-9.92708E-005	0.00000E+000	-4.19093E-005	-5.99601E-002	4.22256E-001	3.57850E+000	9	...........
	39	0.533333	4.11992E-001	-9.93375E-005	0.00000E+000	-4.09263E-005	-5.99601E-002	4.12082E-001	3.57850E+000	9	...........
	40	0.546667	4.01892E-001	-9.94584E-005	0.00000E+000	-3.99715E-005	-5.99601E-002	4.01964E-001	3.57850E+000	9	...........
	41	0.56	3.91849E-001	-9.85821E-005	0.00000E+000	-3.86293E-005	-5.99601E-002	3.91921E-001	3.57850E+000	9	...........
	42	0.573333	3.81864E-001	-9.90374E-005	0.00000E+000	-3.78188E-005	-5.99601E-002	3.81941E-001	3.57850E+000	9	...........
	43	0.586667	3.71946E-001	-9.94729E-005	0.00000E+000	-3.69986E-005	-5.99601E-002	3.72016E-001	3.57850E+000	9	...........
	44	0.6	3.62091E-001	-9.89624E-005	0.00000E+000	-3.58334E-005	-5.99601E-002	3.62163E-001	3.57850E+000	9	...........
	45	0.613333	3.52288E-001	-9.90301E-005	0.00000E+000	-3.48872E-005	-5.99601E-002	3.52358E-001	3.57850E+000	9	...........
	46	0.626667	3.42548E-001	-9.92177E-005	0.00000E+000	-3.39868E-005	-5.99601E-002	3.42615E-001	3.57850E+000	9	...........
	47	0.64	3.32865E-001	-9.83123E-005	0.00000E+000	-3.27247E-005	-5.99601E-002	3.32931E-001	3.57850E+000	9	...........
	48	0.653333	3.23241E-001	-9.92250E-005	0.00000E+000	-3.20736E-005	-5.99601E-002	3.23307E-001	3.57850E+000	9	...........
	49	0.666667	3.13670E-001	-9.86571E-005	0.00000E+000	-3.09458E-005	-5.99601E-002	3.13733E-001	3.57850E+000	9	...........
	50	0.68	3.04149E-001	-9.94375E-005	0.00000E+000	-3.02438E-005	-5.99601E-002	3.04209E-001	3.57850E+000	9	...........
	51	0.693333	2.94685E-001	-9.99314E-005	0.00000E+000	-2.94483E-005	-5.99601E-002	2.94742E-001	3.57850E+000	9	...........
	52	0.706667	2.85273E-001	-9.92125E-005	0.00000E+000	-2.83026E-005	-5.99601E-002	2.85327E-001	3.57850E+000	9	...........
	53	0.72	2.75909E-001	-9.81373E-005	0.00000E+000	-2.70770E-005	-5.99601E-002	2.75962E-001	3.57850E+000	9	...........
	54	0.733333	2.66587E-001	-9.93792E-005	0.00000E+000	-2.64932E-005	-5.99601E-002	2.66637E-001	3.57850E+000	9	...........
	55	0.746667	2.57323E-001	-9.87686E-005	0.00000E+000	-2.54155E-005	-5.99601E-002	2.57368E-001	3.57850E+000	9	...........
	56	0.76	2.48100E-001	-9.90999E-005	0.00000E+000	-2.45867E-005	-5.99601E-002	2.48143E-001	3.57850E+000	9	...........
	57	0.773333	2.38924E-001	-9.89843E-005	0.00000E+000	-2.36497E-005	-5.99601E-002	2.38963E-001	3.57850E+000	9	...........
	58	0.786667	2.29797E-001	-9.92364E-005	0.00000E+000	-2.28042E-005	-5.99601E-002	2.29833E-001	3.57850E+000	9	...........
	59	0.8	2.20715E-001	-9.92531E-005	0.00000E+000	-2.19067E-005	-5.99601E-002	2.20749E-001	3.57850E+000	9	...........
	60	0.813333	2.11690E-001	-9.82591E-005	0.00000E+000	-2.08005E-005	-5.99601E-002	2.11727E-001	3.57850E+000	9	...........
	61	0.826667	2.02716E-001	-9.91041E-005	0.00000E+000	-2.00900E-005	-5.99601E-002	2.02750E-001	3.57850E+000	9	...........
	62	0.84	1.93797E-001	-9.86332E-005	0.00000E+000	-1.91148E-005	-5.99601E-002	1.93826E-001	3.57850E+000	9	...........
	63	0.853333	1.84933E-001	-9.83748E-005	0.00000E+000	-1.81928E-005	-5.99601E-002	1.84959E-001	3.57850E+000	9	...........
	64	0.866667	1.76126E-001	-9.86342E-005	0.00000E+000	-1.73721E-005	-5.99601E-002	1.76154E-001	3.57850E+000	9	...........
	65	0.88	1.67384E-001	-9.83112E-005	0.00000E+000	-1.64557E-005	-5.99601E-002	1.67411E-001	3.57850E+000	9	...........
	66	0.893333	1.58710E-001	-9.89603E-005	0.00000E+000	-1.57060E-005	-5.99601E-002	1.58727E-001	3.57850E+000	9	...........
	67	0.906667	1.50093E-001	-9.90333E-005	0.00000E+000	-1.48642E-005	-5.99601E-002	1.50112E-001	3.57850E+000	9	...........
	68	0.92	1.41544E-001	-9.89749E-005	0.00000E+000	-1.40094E-005	-5.99601E-002	1.41564E-001	3.57850E+000	9	...........
	69	0.933333	1.33072E-001	-9.88416E-005	0.00000E+000	-1.31530E-005	-5.99601E-002	1.33084E-001	3.57850E+000	9	...........
	70	0.946667	1.24672E-001	-9.82216E-005	0.00000E+000	-1.22454E-005	-5.99601E-002	1.24682E-001	3.57850E+000	9	...........
	71	0.96	1.16336E-001	-9.83415E-005	0.00000E+000	-1.14407E-005	-5.99601E-002	1.16348E-001	3.57850E+000	9	...........
	72	0.97333	1.08079E-001	-9.88728E-005	0.00000E+000	-1.06861E-005	-5.99601E-002	1.08090E-001	3.57850E+000	9	...........
	73	0.98667	9.99012E-002	-9.80091E-005	0.00000E+000	-9.79122E-006	-5.99601E-002	9.99082E-002	3.57850E+000	9	...........
	74	1	9.17864E-002	-9.94834E-005	0.00000E+000	-9.13122E-006	-5.99601E-002	9.17931E-002	3.57850E+000	9	...........
	75	1.01333	8.37545E-002	-9.90145E-005	0.00000E+000	-8.29291E-006	-5.99601E-002	8.37501E-002	3.57850E+000	9	...........
	76	1.02667	7.57894E-002	-9.89270E-005	0.00000E+000	-7.49762E-006	-5.99601E-002	7.57842E-002	3.57850E+000	9	...........
	77	1.04	6.78998E-002	-9.90635E-005	0.00000E+000	-6.72639E-006	-5.99601E-002	6.78918E-002	3.57850E+000	9	...........
	78	1.05333	6.00732E-002	-9.84227E-005	0.00000E+000	-5.91257E-006	-5.99601E-002	6.00687E-002	3.57850E+000	9	...........
	79	1.06667	5.23258E-002	-9.84019E-005	0.00000E+000	-5.14896E-006	-5.99601E-002	5.23185E-002	3.57850E+000	9	...........
	80	1.08	4.46746E-002	-9.95719E-005	0.00000E+000	-4.44833E-006	-5.99601E-002	4.46686E-002	3.57850E+000	9	...........
	81	1.09333	3.70658E-002	-9.84842E-005	0.00000E+000	-3.65039E-006	-5.99601E-002	3.70510E-002	3.57850E+000	9	...........
	82	1.10667	2.95159E-002	-9.95188E-005	0.00000E+000	-2.93738E-006	-5.99601E-002	2.94978E-002	3.57850E+000	9	...........
	83	1.12	2.20314E-002	-9.95636E-005	0.00000E+000	-2.19353E-006	-5.99601E-002	2.20116E-002	3.57850E+000	9	...........
	84	1.13333	1.46178E-002	-9.97345E-005	0.00000E+000	-1.45790E-006	-5.99601E-002	1.45921E-002	3.57850E+000	9	...........
	85	1.14667	7.26803E-003	-9.90031E-005	0.00000E+000	-7.19557E-007	-5.99601E-002	7.23584E-003	3.57850E+000	9	...........
	86	1.155	1.34128E-003	-9.81302E-005	0.00000E+000	-1.31620E-007	-5.99601E-002	1.30650E-003	3.57850E+000	9	...........
STARTTIMEOFFSET	QUANT	1545.054	Start Time Offset (s)
