EXPLAIN
TAG	PWR800_DISCHARGE
TITLE	LABEL	PWR Cyclic Charge Discharge (Cell) - Discharge Step	Test &Identifier
DATE	LABEL	13-7-2017	Date
TIME	LABEL	15:07:30	Time
NOTES	NOTES	2	&Notes...
	supercap test cell
	6M KOH
PSTAT	PSTAT	IFC5000-01520	Potentiostat
CAPACITY	QUANT	1.00000E-003	Capacity (A-hr)
CELLTYPE	SELECTOR	1	&Cell Type
WORKINGCONNECTION	SELECTOR	0	&Working Lead
MAXDISCHARGETIME	VARIABLEANDUNITS	1.00000E+002	s	1.00000E+002	second(s)	Max &Discharge Time
DISCHARGEMODE	MULTIPARAM	0	1.00000E-004	&Discharge Mode	Constant Current	Amp(s)
SAMPLETIME	QUANT	1.00000E-002	Sa&mple Period (s)
DISCHARGESTOPAT1	MULTIPARAM	3	0.00000E+000	Discharge Stop At &1	Voltage < Limit	V
DISCHARGESTOPAT2	MULTIPARAM	0	0.00000E+000	Discharge Stop At &2	None	N/A
AESBHCSELECTOR	TOGGLE	F	Save Both Half Cells
IRCOMP	TOGGLE	F	IR &Measure
EOC	QUANT	0	Open Circuit (V)
SEQUENCER	TOGGLE	TRUE	Run as Sequence
PSTATMODEL	IQUANT	53	Pstat Model
PSTATSECTION	LABEL	IFC5000-01520	Pstat Section
PSTATSERIALNO	LABEL	01520	Pstat Serial Number
CTRLMODE	IQUANT	0	Control Mode
ELECTROMETER	IQUANT	1	RE=0 or CS=1
IESTAB	IQUANT	0	I/E Stability
CASPEED	IQUANT	4	Control Amp Speed
CONVENTION	IQUANT	1	Current Convention
ICHRANGE	IQUANT	2	Ich Range
ICHRANGEMODE	TOGGLE	T	Ich Auto Range
ICHOFFSETENABLE	TOGGLE	F	Ich Offset Enable
ICHOFFSET	QUANT	0	Ich Offset (V)
ICHFILTER	IQUANT	1	Ich Filter
VCHRANGE	IQUANT	2	Vch Range
VCHRANGEMODE	TOGGLE	T	Vch Auto Range
VCHOFFSETENABLE	TOGGLE	F	Vch Offset Enable
VCHOFFSET	QUANT	0	Vch Offset (V)
VCHFILTER	IQUANT	1	Vch Filter
IERANGELOWERLIMIT	IQUANT	9	I/E Range Lower Limit
IERANGEMODE	TOGGLE	F	I/E AutoRange
IERANGE	IQUANT	9	I/E Range
ACHSELECT	IQUANT	1	Ach Select
ACHRANGE	IQUANT	2	Ach Range
ACHOFFSETENABLE	TOGGLE	F	Ach Offset Enable
ACHOFFSET	QUANT	0	Ach Offset (V)
ACHFILTER	IQUANT	1	Ach Filter
CABLEID	IQUANT	14	Cable ID
DCCALDATE	LABEL	5-7-2017	DC Calibration Date
ACCALDATE	LABEL	12/3/2015	AC Calibration Date
FRAMEWORKVERSION	QUANT	7.01	Framework Version
INSTRUMENTVERSION	LABEL	4.00	Instrument Version
CURVE	TABLE	93
	Pt	T	Vf	Im	Vu	Pwr	Sig	Ach	Temp	IERange	Over
	#	s	V	A	V	W	V	V	deg C	#	bits
	0	0.013333	8.56513E-001	-9.91781E-005	0.00000E+000	-8.49473E-005	-5.99601E-002	8.56854E-001	3.58020E+000	9	...........
	1	0.026667	8.43534E-001	-9.88145E-005	0.00000E+000	-8.33534E-005	-5.99601E-002	8.43891E-001	3.58020E+000	9	...........
	2	0.04	8.31366E-001	-9.94281E-005	0.00000E+000	-8.26612E-005	-5.99601E-002	8.31708E-001	3.58020E+000	9	...........
	3	0.053333	8.19753E-001	-9.97761E-005	0.00000E+000	-8.17918E-005	-5.99601E-002	8.20088E-001	3.58020E+000	9	...........
	4	0.066667	8.08519E-001	-9.86342E-005	0.00000E+000	-7.97476E-005	-5.99601E-002	8.08843E-001	3.58020E+000	9	...........
	5	0.08	7.97607E-001	-9.97980E-005	0.00000E+000	-7.95996E-005	-5.99601E-002	7.97931E-001	3.58020E+000	9	...........
	6	0.093333	7.86895E-001	-9.94761E-005	0.00000E+000	-7.82772E-005	-5.99601E-002	7.87197E-001	3.58020E+000	9	...........
	7	0.106667	7.76353E-001	-9.84300E-005	0.00000E+000	-7.64165E-005	-5.99601E-002	7.76665E-001	3.58020E+000	9	...........
	8	0.12	7.65925E-001	-9.98324E-005	0.00000E+000	-7.64641E-005	-5.99601E-002	7.66246E-001	3.58020E+000	9	...........
	9	0.133333	7.55633E-001	-9.91333E-005	0.00000E+000	-7.49084E-005	-5.99601E-002	7.55916E-001	3.58020E+000	9	...........
	10	0.146667	7.45402E-001	-9.86957E-005	0.00000E+000	-7.35680E-005	-5.99601E-002	7.45700E-001	3.58020E+000	9	...........
	11	0.16	7.35197E-001	-9.89218E-005	0.00000E+000	-7.27270E-005	-5.99601E-002	7.35491E-001	3.58020E+000	9	...........
	12	0.173333	7.25116E-001	-9.84831E-005	0.00000E+000	-7.14117E-005	-5.99601E-002	7.25371E-001	3.58020E+000	9	...........
	13	0.186667	7.14988E-001	-9.76351E-005	0.00000E+000	-6.98079E-005	-5.99601E-002	7.15263E-001	3.58020E+000	9	...........
	14	0.2	7.04951E-001	-9.87082E-005	0.00000E+000	-6.95844E-005	-5.99601E-002	7.05209E-001	3.57897E+000	9	...........
	15	0.213333	6.94918E-001	-9.96396E-005	0.00000E+000	-6.92414E-005	-5.99601E-002	6.95183E-001	3.57880E+000	9	...........
	16	0.226667	6.84880E-001	-9.90604E-005	0.00000E+000	-6.78444E-005	-5.99601E-002	6.85162E-001	3.57880E+000	9	...........
	17	0.24	6.74892E-001	-9.81768E-005	0.00000E+000	-6.62588E-005	-5.99601E-002	6.75158E-001	3.57880E+000	9	...........
	18	0.253333	6.64906E-001	-9.86759E-005	0.00000E+000	-6.56102E-005	-5.99601E-002	6.65169E-001	3.57880E+000	9	...........
	19	0.266667	6.54896E-001	-9.92750E-005	0.00000E+000	-6.50148E-005	-5.99601E-002	6.55186E-001	3.57880E+000	9	...........
	20	0.28	6.44907E-001	-9.91864E-005	0.00000E+000	-6.39660E-005	-5.99601E-002	6.45194E-001	3.57880E+000	9	...........
	21	0.293333	6.34912E-001	-1.00057E-004	0.00000E+000	-6.35277E-005	-5.99601E-002	6.35184E-001	3.57880E+000	9	...........
	22	0.306667	6.24932E-001	-9.90760E-005	0.00000E+000	-6.19158E-005	-5.99601E-002	6.25182E-001	3.57880E+000	9	...........
	23	0.32	6.14944E-001	-9.84071E-005	0.00000E+000	-6.05148E-005	-5.99601E-002	6.15211E-001	3.57880E+000	9	...........
	24	0.333333	6.04934E-001	-9.84529E-005	0.00000E+000	-5.95575E-005	-5.99601E-002	6.05216E-001	3.57880E+000	9	...........
	25	0.346667	5.94984E-001	-9.94438E-005	0.00000E+000	-5.91674E-005	-5.99601E-002	5.95232E-001	3.57880E+000	9	...........
	26	0.36	5.84991E-001	-9.91250E-005	0.00000E+000	-5.79872E-005	-5.99601E-002	5.85241E-001	3.57880E+000	9	...........
	27	0.373333	5.75071E-001	-9.99376E-005	0.00000E+000	-5.74713E-005	-5.99601E-002	5.75308E-001	3.57880E+000	9	...........
	28	0.386667	5.65103E-001	-9.97230E-005	0.00000E+000	-5.63537E-005	-5.99601E-002	5.65360E-001	3.57880E+000	9	...........
	29	0.4	5.55137E-001	-9.86915E-005	0.00000E+000	-5.47873E-005	-5.99601E-002	5.55404E-001	3.57880E+000	9	...........
	30	0.413333	5.45220E-001	-9.93427E-005	0.00000E+000	-5.41637E-005	-5.99601E-002	5.45460E-001	3.57880E+000	9	...........
	31	0.426667	5.35267E-001	-9.87853E-005	0.00000E+000	-5.28765E-005	-5.99601E-002	5.35551E-001	3.57880E+000	9	...........
	32	0.44	5.25382E-001	-9.84456E-005	0.00000E+000	-5.17216E-005	-5.99601E-002	5.25641E-001	3.57880E+000	9	...........
	33	0.453333	5.15528E-001	-9.85571E-005	0.00000E+000	-5.08090E-005	-5.99601E-002	5.15768E-001	3.57880E+000	9	...........
	34	0.466667	5.05590E-001	-9.81008E-005	0.00000E+000	-4.95987E-005	-5.99601E-002	5.05904E-001	3.57880E+000	9	...........
	35	0.48	4.95772E-001	-9.89853E-005	0.00000E+000	-4.90742E-005	-5.99601E-002	4.96053E-001	3.57880E+000	9	...........
	36	0.493333	4.86106E-001	-9.92364E-005	0.00000E+000	-4.82395E-005	-5.99601E-002	4.86302E-001	3.57880E+000	9	...........
	37	0.506667	4.76571E-001	-9.90281E-005	0.00000E+000	-4.71939E-005	-5.99601E-002	4.76675E-001	3.57880E+000	9	...........
	38	0.52	4.66813E-001	-9.85227E-005	0.00000E+000	-4.59917E-005	-5.99601E-002	4.66915E-001	3.57880E+000	9	...........
	39	0.533333	4.57090E-001	-9.86978E-005	0.00000E+000	-4.51138E-005	-5.99601E-002	4.57184E-001	3.57880E+000	9	...........
	40	0.546667	4.47401E-001	-9.97188E-005	0.00000E+000	-4.46143E-005	-5.99601E-002	4.47500E-001	3.57880E+000	9	...........
	41	0.56	4.37749E-001	-9.85738E-005	0.00000E+000	-4.31506E-005	-5.99601E-002	4.37847E-001	3.57880E+000	9	...........
	42	0.573333	4.28131E-001	-9.84769E-005	0.00000E+000	-4.21610E-005	-5.99601E-002	4.28223E-001	3.57880E+000	9	...........
	43	0.586667	4.18551E-001	-9.80893E-005	0.00000E+000	-4.10554E-005	-5.99601E-002	4.18639E-001	3.57880E+000	9	...........
	44	0.6	4.09001E-001	-9.95282E-005	0.00000E+000	-4.07071E-005	-5.99601E-002	4.09090E-001	3.57880E+000	9	...........
	45	0.613333	3.99505E-001	-9.90531E-005	0.00000E+000	-3.95722E-005	-5.99601E-002	3.99578E-001	3.57880E+000	9	...........
	46	0.626667	3.90033E-001	-9.87718E-005	0.00000E+000	-3.85242E-005	-5.99601E-002	3.90112E-001	3.57880E+000	9	...........
	47	0.64	3.80604E-001	-9.88759E-005	0.00000E+000	-3.76325E-005	-5.99601E-002	3.80682E-001	3.57880E+000	9	...........
	48	0.653333	3.71215E-001	-9.92666E-005	0.00000E+000	-3.68493E-005	-5.99601E-002	3.71293E-001	3.57880E+000	9	...........
	49	0.666667	3.61856E-001	-9.90270E-005	0.00000E+000	-3.58335E-005	-5.99601E-002	3.61933E-001	3.57880E+000	9	...........
	50	0.68	3.52542E-001	-9.90510E-005	0.00000E+000	-3.49197E-005	-5.99601E-002	3.52615E-001	3.57880E+000	9	...........
	51	0.693333	3.43267E-001	-9.86634E-005	0.00000E+000	-3.38679E-005	-5.99601E-002	3.43336E-001	3.57880E+000	9	...........
	52	0.706667	3.34029E-001	-9.89322E-005	0.00000E+000	-3.30462E-005	-5.99601E-002	3.34094E-001	3.57880E+000	9	...........
	53	0.72	3.24822E-001	-9.85352E-005	0.00000E+000	-3.20064E-005	-5.99601E-002	3.24887E-001	3.57880E+000	9	...........
	54	0.733333	3.15652E-001	-9.90270E-005	0.00000E+000	-3.12581E-005	-5.99601E-002	3.15716E-001	3.57880E+000	9	...........
	55	0.746667	3.06515E-001	-9.90947E-005	0.00000E+000	-3.03741E-005	-5.99601E-002	3.06582E-001	3.57880E+000	9	...........
	56	0.76	2.97416E-001	-9.91989E-005	0.00000E+000	-2.95034E-005	-5.99601E-002	2.97483E-001	3.57880E+000	9	...........
	57	0.773333	2.88352E-001	-9.83831E-005	0.00000E+000	-2.83689E-005	-5.99601E-002	2.88409E-001	3.57880E+000	9	...........
	58	0.786667	2.79317E-001	-9.94532E-005	0.00000E+000	-2.77790E-005	-5.99601E-002	2.79380E-001	3.57880E+000	9	...........
	59	0.8	2.70320E-001	-9.84811E-005	0.00000E+000	-2.66214E-005	-5.99601E-002	2.70376E-001	3.57880E+000	9	...........
	60	0.813333	2.61355E-001	-9.84373E-005	0.00000E+000	-2.57271E-005	-5.99601E-002	2.61406E-001	3.57880E+000	9	...........
	61	0.826667	2.52419E-001	-9.89958E-005	0.00000E+000	-2.49884E-005	-5.99601E-002	2.52473E-001	3.57880E+000	9	...........
	62	0.84	2.43527E-001	-9.94052E-005	0.00000E+000	-2.42078E-005	-5.99601E-002	2.43569E-001	3.57880E+000	9	...........
	63	0.853333	2.34654E-001	-9.89416E-005	0.00000E+000	-2.32170E-005	-5.99601E-002	2.34701E-001	3.57880E+000	9	...........
	64	0.866667	2.25815E-001	-9.90812E-005	0.00000E+000	-2.23740E-005	-5.99601E-002	2.25860E-001	3.57880E+000	9	...........
	65	0.88	2.17013E-001	-9.86999E-005	0.00000E+000	-2.14192E-005	-5.99601E-002	2.17050E-001	3.57880E+000	9	...........
	66	0.893333	2.08244E-001	-9.92166E-005	0.00000E+000	-2.06613E-005	-5.99601E-002	2.08281E-001	3.57880E+000	9	...........
	67	0.906667	1.99511E-001	-9.83675E-005	0.00000E+000	-1.96254E-005	-5.99601E-002	1.99547E-001	3.57880E+000	9	...........
	68	0.92	1.90815E-001	-9.87280E-005	0.00000E+000	-1.88387E-005	-5.99601E-002	1.90847E-001	3.57880E+000	9	...........
	69	0.933333	1.82160E-001	-9.85363E-005	0.00000E+000	-1.79494E-005	-5.99601E-002	1.82189E-001	3.57880E+000	9	...........
	70	0.946667	1.73539E-001	-9.98939E-005	0.00000E+000	-1.73355E-005	-5.99601E-002	1.73567E-001	3.57880E+000	9	...........
	71	0.96	1.64967E-001	-9.83842E-005	0.00000E+000	-1.62301E-005	-5.99601E-002	1.64992E-001	3.57880E+000	9	...........
	72	0.97333	1.56435E-001	-9.91166E-005	0.00000E+000	-1.55053E-005	-5.99601E-002	1.56460E-001	3.57880E+000	9	...........
	73	0.98667	1.47960E-001	-9.84519E-005	0.00000E+000	-1.45670E-005	-5.99601E-002	1.47981E-001	3.57880E+000	9	...........
	74	1	1.39524E-001	-9.93115E-005	0.00000E+000	-1.38564E-005	-5.99601E-002	1.39546E-001	3.57880E+000	9	...........
	75	1.01333	1.31151E-001	-9.94844E-005	0.00000E+000	-1.30474E-005	-5.99601E-002	1.31165E-001	3.57880E+000	9	...........
	76	1.02667	1.22829E-001	-9.90104E-005	0.00000E+000	-1.21614E-005	-5.99601E-002	1.22843E-001	3.57880E+000	9	...........
	77	1.04	1.14564E-001	-9.90593E-005	0.00000E+000	-1.13486E-005	-5.99601E-002	1.14578E-001	3.57880E+000	9	...........
	78	1.05333	1.06353E-001	-9.83456E-005	0.00000E+000	-1.04593E-005	-5.99601E-002	1.06363E-001	3.57880E+000	9	...........
	79	1.06667	9.82026E-002	-9.87832E-005	0.00000E+000	-9.70077E-006	-5.99601E-002	9.82152E-002	3.57880E+000	9	...........
	80	1.08	9.01176E-002	-9.93750E-005	0.00000E+000	-8.95543E-006	-5.99601E-002	9.01303E-002	3.57880E+000	9	...........
	81	1.09333	8.20945E-002	-9.91500E-005	0.00000E+000	-8.13967E-006	-5.99601E-002	8.21061E-002	3.57880E+000	9	...........
	82	1.10667	7.41425E-002	-9.75392E-005	0.00000E+000	-7.23180E-006	-5.99601E-002	7.41445E-002	3.57880E+000	9	...........
	83	1.12	6.62468E-002	-9.83988E-005	0.00000E+000	-6.51861E-006	-5.99601E-002	6.62434E-002	3.57880E+000	9	...........
	84	1.13333	5.84149E-002	-9.91083E-005	0.00000E+000	-5.78940E-006	-5.99601E-002	5.84131E-002	3.57880E+000	9	...........
	85	1.14667	5.06508E-002	-9.83602E-005	0.00000E+000	-4.98203E-006	-5.99601E-002	5.06441E-002	3.57880E+000	9	...........
	86	1.16	4.29770E-002	-9.91708E-005	0.00000E+000	-4.26206E-006	-5.99601E-002	4.29698E-002	3.57880E+000	9	...........
	87	1.17333	3.53330E-002	-9.85342E-005	0.00000E+000	-3.48151E-006	-5.99601E-002	3.53183E-002	3.57880E+000	9	...........
	88	1.18667	2.77415E-002	-9.88957E-005	0.00000E+000	-2.74351E-006	-5.99601E-002	2.77241E-002	3.57880E+000	9	...........
	89	1.2	2.02143E-002	-9.89614E-005	0.00000E+000	-2.00043E-006	-5.99601E-002	2.01915E-002	3.57880E+000	9	...........
	90	1.21333	1.27418E-002	-9.82446E-005	0.00000E+000	-1.25181E-006	-5.99601E-002	1.27172E-002	3.57880E+000	9	...........
	91	1.22667	5.32928E-003	-9.80852E-005	0.00000E+000	-5.22723E-007	-5.99601E-002	5.30189E-003	3.57880E+000	9	...........
	92	1.23167	2.59485E-004	-9.90687E-005	0.00000E+000	-2.57068E-008	-5.99601E-002	2.28256E-004	3.57880E+000	9	...........
STARTTIMEOFFSET	QUANT	243.5433	Start Time Offset (s)
