EXPLAIN
TAG	PWR800_DISCHARGE
TITLE	LABEL	PWR Cyclic Charge Discharge (Cell) - Discharge Step	Test &Identifier
DATE	LABEL	13-7-2017	Date
TIME	LABEL	15:21:15	Time
NOTES	NOTES	2	&Notes...
	supercap test cell
	6M KOH
PSTAT	PSTAT	IFC5000-01520	Potentiostat
CAPACITY	QUANT	1.00000E-003	Capacity (A-hr)
CELLTYPE	SELECTOR	1	&Cell Type
WORKINGCONNECTION	SELECTOR	0	&Working Lead
MAXDISCHARGETIME	VARIABLEANDUNITS	1.00000E+002	s	1.00000E+002	second(s)	Max &Discharge Time
DISCHARGEMODE	MULTIPARAM	0	1.00000E-004	&Discharge Mode	Constant Current	Amp(s)
SAMPLETIME	QUANT	1.00000E-002	Sa&mple Period (s)
DISCHARGESTOPAT1	MULTIPARAM	3	0.00000E+000	Discharge Stop At &1	Voltage < Limit	V
DISCHARGESTOPAT2	MULTIPARAM	0	0.00000E+000	Discharge Stop At &2	None	N/A
AESBHCSELECTOR	TOGGLE	F	Save Both Half Cells
IRCOMP	TOGGLE	F	IR &Measure
EOC	QUANT	0	Open Circuit (V)
SEQUENCER	TOGGLE	TRUE	Run as Sequence
PSTATMODEL	IQUANT	53	Pstat Model
PSTATSECTION	LABEL	IFC5000-01520	Pstat Section
PSTATSERIALNO	LABEL	01520	Pstat Serial Number
CTRLMODE	IQUANT	0	Control Mode
ELECTROMETER	IQUANT	1	RE=0 or CS=1
IESTAB	IQUANT	0	I/E Stability
CASPEED	IQUANT	4	Control Amp Speed
CONVENTION	IQUANT	1	Current Convention
ICHRANGE	IQUANT	2	Ich Range
ICHRANGEMODE	TOGGLE	T	Ich Auto Range
ICHOFFSETENABLE	TOGGLE	F	Ich Offset Enable
ICHOFFSET	QUANT	0	Ich Offset (V)
ICHFILTER	IQUANT	1	Ich Filter
VCHRANGE	IQUANT	2	Vch Range
VCHRANGEMODE	TOGGLE	T	Vch Auto Range
VCHOFFSETENABLE	TOGGLE	F	Vch Offset Enable
VCHOFFSET	QUANT	0	Vch Offset (V)
VCHFILTER	IQUANT	1	Vch Filter
IERANGELOWERLIMIT	IQUANT	9	I/E Range Lower Limit
IERANGEMODE	TOGGLE	F	I/E AutoRange
IERANGE	IQUANT	9	I/E Range
ACHSELECT	IQUANT	1	Ach Select
ACHRANGE	IQUANT	2	Ach Range
ACHOFFSETENABLE	TOGGLE	F	Ach Offset Enable
ACHOFFSET	QUANT	0	Ach Offset (V)
ACHFILTER	IQUANT	1	Ach Filter
CABLEID	IQUANT	14	Cable ID
DCCALDATE	LABEL	5-7-2017	DC Calibration Date
ACCALDATE	LABEL	12/3/2015	AC Calibration Date
FRAMEWORKVERSION	QUANT	7.01	Framework Version
INSTRUMENTVERSION	LABEL	4.00	Instrument Version
CURVE	TABLE	89
	Pt	T	Vf	Im	Vu	Pwr	Sig	Ach	Temp	IERange	Over
	#	s	V	A	V	W	V	V	deg C	#	bits
	0	0.013333	8.49891E-001	-9.93271E-005	0.00000E+000	-8.44171E-005	-5.99601E-002	8.50212E-001	3.57900E+000	9	...........
	1	0.026667	8.36180E-001	-9.82446E-005	0.00000E+000	-8.21502E-005	-5.99601E-002	8.36473E-001	3.57900E+000	9	...........
	2	0.04	8.23332E-001	-9.87072E-005	0.00000E+000	-8.12688E-005	-5.99601E-002	8.23617E-001	3.57900E+000	9	...........
	3	0.053333	8.11017E-001	-9.90395E-005	0.00000E+000	-8.03228E-005	-5.99601E-002	8.11301E-001	3.57900E+000	9	...........
	4	0.066667	7.99144E-001	-9.94167E-005	0.00000E+000	-7.94483E-005	-5.99601E-002	7.99417E-001	3.57900E+000	9	...........
	5	0.08	7.87505E-001	-9.87759E-005	0.00000E+000	-7.77865E-005	-5.99601E-002	7.87797E-001	3.57900E+000	9	...........
	6	0.093333	7.76116E-001	-9.94115E-005	0.00000E+000	-7.71548E-005	-5.99601E-002	7.76411E-001	3.57900E+000	9	...........
	7	0.106667	7.64897E-001	-9.94250E-005	0.00000E+000	-7.60499E-005	-5.99601E-002	7.65167E-001	3.57900E+000	9	...........
	8	0.12	7.53790E-001	-9.90312E-005	0.00000E+000	-7.46487E-005	-5.99601E-002	7.54066E-001	3.57900E+000	9	...........
	9	0.133333	7.42766E-001	-9.85634E-005	0.00000E+000	-7.32095E-005	-5.99601E-002	7.43034E-001	3.57900E+000	9	...........
	10	0.146667	7.31817E-001	-9.95678E-005	0.00000E+000	-7.28654E-005	-5.99601E-002	7.32100E-001	3.57900E+000	9	...........
	11	0.16	7.20975E-001	-9.92552E-005	0.00000E+000	-7.15605E-005	-5.99601E-002	7.21238E-001	3.57900E+000	9	...........
	12	0.173333	7.10103E-001	-9.97574E-005	0.00000E+000	-7.08380E-005	-5.99601E-002	7.10391E-001	3.57900E+000	9	...........
	13	0.186667	6.99337E-001	-9.93875E-005	0.00000E+000	-6.95054E-005	-5.99601E-002	6.99593E-001	3.57900E+000	9	...........
	14	0.2	6.88560E-001	-9.88655E-005	0.00000E+000	-6.80748E-005	-5.99601E-002	6.88837E-001	3.57900E+000	9	...........
	15	0.213333	6.77831E-001	-9.98303E-005	0.00000E+000	-6.76681E-005	-5.99601E-002	6.78107E-001	3.57900E+000	9	...........
	16	0.226667	6.67100E-001	-9.82810E-005	0.00000E+000	-6.55633E-005	-5.99601E-002	6.67384E-001	3.57900E+000	9	...........
	17	0.24	6.56378E-001	-9.93021E-005	0.00000E+000	-6.51797E-005	-5.99601E-002	6.56648E-001	3.57900E+000	9	...........
	18	0.253333	6.45689E-001	-9.88311E-005	0.00000E+000	-6.38142E-005	-5.99601E-002	6.45963E-001	3.57900E+000	9	...........
	19	0.266667	6.35016E-001	-9.88207E-005	0.00000E+000	-6.27528E-005	-5.99601E-002	6.35257E-001	3.57900E+000	9	...........
	20	0.28	6.24337E-001	-9.98209E-005	0.00000E+000	-6.23219E-005	-5.99601E-002	6.24588E-001	3.57900E+000	9	...........
	21	0.293333	6.13672E-001	-9.88311E-005	0.00000E+000	-6.06499E-005	-5.99601E-002	6.13938E-001	3.57900E+000	9	...........
	22	0.306667	6.03001E-001	-9.88687E-005	0.00000E+000	-5.96178E-005	-5.99601E-002	6.03303E-001	3.57900E+000	9	...........
	23	0.32	5.92409E-001	-9.94365E-005	0.00000E+000	-5.89071E-005	-5.99601E-002	5.92688E-001	3.57900E+000	9	...........
	24	0.333333	5.81785E-001	-9.88926E-005	0.00000E+000	-5.75343E-005	-5.99601E-002	5.82060E-001	3.57900E+000	9	...........
	25	0.346667	5.71201E-001	-9.88270E-005	0.00000E+000	-5.64501E-005	-5.99601E-002	5.71465E-001	3.57900E+000	9	...........
	26	0.36	5.60615E-001	-9.91781E-005	0.00000E+000	-5.56007E-005	-5.99601E-002	5.60885E-001	3.57900E+000	9	...........
	27	0.373333	5.50082E-001	-9.93531E-005	0.00000E+000	-5.46524E-005	-5.99601E-002	5.50335E-001	3.57900E+000	9	...........
	28	0.386667	5.39567E-001	-9.85790E-005	0.00000E+000	-5.31900E-005	-5.99601E-002	5.39839E-001	3.57900E+000	9	...........
	29	0.4	5.29073E-001	-9.89708E-005	0.00000E+000	-5.23628E-005	-5.99601E-002	5.29331E-001	3.57900E+000	9	...........
	30	0.413333	5.18631E-001	-9.90114E-005	0.00000E+000	-5.13503E-005	-5.99601E-002	5.18859E-001	3.57900E+000	9	...........
	31	0.426667	5.08191E-001	-9.87853E-005	0.00000E+000	-5.02018E-005	-5.99601E-002	5.08459E-001	3.57900E+000	9	...........
	32	0.44	4.97818E-001	-9.89322E-005	0.00000E+000	-4.92502E-005	-5.99601E-002	4.98083E-001	3.57900E+000	9	...........
	33	0.453333	4.87544E-001	-9.93458E-005	0.00000E+000	-4.84354E-005	-5.99601E-002	4.87786E-001	3.57900E+000	9	...........
	34	0.466667	4.77588E-001	-9.92489E-005	0.00000E+000	-4.74001E-005	-5.99601E-002	4.77685E-001	3.57900E+000	9	...........
	35	0.48	4.67352E-001	-9.89926E-005	0.00000E+000	-4.62644E-005	-5.99601E-002	4.67442E-001	3.57900E+000	9	...........
	36	0.493333	4.57158E-001	-9.89030E-005	0.00000E+000	-4.52143E-005	-5.99601E-002	4.57255E-001	3.57900E+000	9	...........
	37	0.506667	4.47019E-001	-1.00118E-004	0.00000E+000	-4.47546E-005	-5.99601E-002	4.47110E-001	3.57900E+000	9	...........
	38	0.52	4.36937E-001	-9.86592E-005	0.00000E+000	-4.31079E-005	-5.99601E-002	4.37025E-001	3.57900E+000	9	...........
	39	0.533333	4.26907E-001	-9.90489E-005	0.00000E+000	-4.22847E-005	-5.99601E-002	4.26994E-001	3.57900E+000	9	...........
	40	0.546667	4.16935E-001	-9.82779E-005	0.00000E+000	-4.09755E-005	-5.99601E-002	4.17022E-001	3.57900E+000	9	...........
	41	0.56	4.07018E-001	-9.91072E-005	0.00000E+000	-4.03385E-005	-5.99601E-002	4.07095E-001	3.57900E+000	9	...........
	42	0.573333	3.97152E-001	-9.91302E-005	0.00000E+000	-3.93697E-005	-5.99601E-002	3.97224E-001	3.57900E+000	9	...........
	43	0.586667	3.87340E-001	-9.87530E-005	0.00000E+000	-3.82509E-005	-5.99601E-002	3.87417E-001	3.57900E+000	9	...........
	44	0.6	3.77584E-001	-9.97063E-005	0.00000E+000	-3.76475E-005	-5.99601E-002	3.77652E-001	3.57900E+000	9	...........
	45	0.613333	3.67874E-001	-9.86967E-005	0.00000E+000	-3.63079E-005	-5.99601E-002	3.67947E-001	3.57900E+000	9	...........
	46	0.626667	3.58222E-001	-9.89249E-005	0.00000E+000	-3.54371E-005	-5.99601E-002	3.58292E-001	3.57900E+000	9	...........
	47	0.64	3.48616E-001	-9.76726E-005	0.00000E+000	-3.40502E-005	-5.99601E-002	3.48687E-001	3.57900E+000	9	...........
	48	0.653333	3.39066E-001	-9.90874E-005	0.00000E+000	-3.35972E-005	-5.99601E-002	3.39129E-001	3.57900E+000	9	...........
	49	0.666667	3.29568E-001	-9.88103E-005	0.00000E+000	-3.25647E-005	-5.99601E-002	3.29626E-001	3.57900E+000	9	...........
	50	0.68	3.20124E-001	-9.83487E-005	0.00000E+000	-3.14838E-005	-5.99601E-002	3.20182E-001	3.57900E+000	9	...........
	51	0.693333	3.10719E-001	-9.88978E-005	0.00000E+000	-3.07294E-005	-5.99601E-002	3.10778E-001	3.57900E+000	9	...........
	52	0.706667	3.01361E-001	-9.90833E-005	0.00000E+000	-2.98599E-005	-5.99601E-002	3.01417E-001	3.57900E+000	9	...........
	53	0.72	2.92051E-001	-9.85748E-005	0.00000E+000	-2.87889E-005	-5.99601E-002	2.92104E-001	3.57900E+000	9	...........
	54	0.733333	2.82779E-001	-9.88582E-005	0.00000E+000	-2.79551E-005	-5.99601E-002	2.82835E-001	3.57900E+000	9	...........
	55	0.746667	2.73558E-001	-9.92969E-005	0.00000E+000	-2.71634E-005	-5.99601E-002	2.73609E-001	3.57900E+000	9	...........
	56	0.76	2.64371E-001	-9.89676E-005	0.00000E+000	-2.61642E-005	-5.99601E-002	2.64425E-001	3.57900E+000	9	...........
	57	0.773333	2.55233E-001	-9.90385E-005	0.00000E+000	-2.52779E-005	-5.99601E-002	2.55280E-001	3.57900E+000	9	...........
	58	0.786667	2.46135E-001	-9.92343E-005	0.00000E+000	-2.44250E-005	-5.99601E-002	2.46174E-001	3.57900E+000	9	...........
	59	0.8	2.37078E-001	-9.83904E-005	0.00000E+000	-2.33262E-005	-5.99601E-002	2.37117E-001	3.57900E+000	9	...........
	60	0.813333	2.28059E-001	-9.86571E-005	0.00000E+000	-2.24996E-005	-5.99601E-002	2.28101E-001	3.57900E+000	9	...........
	61	0.826667	2.19079E-001	-9.91948E-005	0.00000E+000	-2.17315E-005	-5.99601E-002	2.19118E-001	3.57900E+000	9	...........
	62	0.84	2.10149E-001	-9.90468E-005	0.00000E+000	-2.08146E-005	-5.99601E-002	2.10179E-001	3.57900E+000	9	...........
	63	0.853333	2.01259E-001	-9.86103E-005	0.00000E+000	-1.98462E-005	-5.99601E-002	2.01297E-001	3.57900E+000	9	...........
	64	0.866667	1.92425E-001	-9.93385E-005	0.00000E+000	-1.91152E-005	-5.99601E-002	1.92456E-001	3.57900E+000	9	...........
	65	0.88	1.83633E-001	-9.86238E-005	0.00000E+000	-1.81106E-005	-5.99601E-002	1.83660E-001	3.57900E+000	9	...........
	66	0.893333	1.74890E-001	-9.87790E-005	0.00000E+000	-1.72755E-005	-5.99601E-002	1.74920E-001	3.57900E+000	9	...........
	67	0.906667	1.66206E-001	-9.90458E-005	0.00000E+000	-1.64620E-005	-5.99601E-002	1.66232E-001	3.57900E+000	9	...........
	68	0.92	1.57578E-001	-9.96209E-005	0.00000E+000	-1.56981E-005	-5.99601E-002	1.57600E-001	3.57900E+000	9	...........
	69	0.933333	1.49012E-001	-9.87572E-005	0.00000E+000	-1.47160E-005	-5.99601E-002	1.49032E-001	3.57900E+000	9	...........
	70	0.946667	1.40496E-001	-9.94667E-005	0.00000E+000	-1.39747E-005	-5.99601E-002	1.40513E-001	3.57900E+000	9	...........
	71	0.96	1.32050E-001	-9.95448E-005	0.00000E+000	-1.31449E-005	-5.99601E-002	1.32068E-001	3.57900E+000	9	...........
	72	0.97333	1.23667E-001	-9.92458E-005	0.00000E+000	-1.22735E-005	-5.99601E-002	1.23684E-001	3.57900E+000	9	...........
	73	0.98667	1.15357E-001	-9.93198E-005	0.00000E+000	-1.14573E-005	-5.99601E-002	1.15370E-001	3.57900E+000	9	...........
	74	1	1.07113E-001	-9.85821E-005	0.00000E+000	-1.05594E-005	-5.99601E-002	1.07125E-001	3.57900E+000	9	...........
	75	1.01333	9.89364E-002	-9.93062E-005	0.00000E+000	-9.82500E-006	-5.99601E-002	9.89501E-002	3.57900E+000	9	...........
	76	1.02667	9.08337E-002	-9.80935E-005	0.00000E+000	-8.91019E-006	-5.99601E-002	9.08469E-002	3.57900E+000	9	...........
	77	1.04	8.28018E-002	-9.91948E-005	0.00000E+000	-8.21350E-006	-5.99601E-002	8.28024E-002	3.57900E+000	9	...........
	78	1.05333	7.48399E-002	-9.88780E-005	0.00000E+000	-7.40002E-006	-5.99601E-002	7.48423E-002	3.57900E+000	9	...........
	79	1.06667	6.69401E-002	-9.85311E-005	0.00000E+000	-6.59568E-006	-5.99601E-002	6.69381E-002	3.57900E+000	9	...........
	80	1.08	5.91092E-002	-9.87572E-005	0.00000E+000	-5.83745E-006	-5.99601E-002	5.91091E-002	3.57900E+000	9	...........
	81	1.09333	5.13424E-002	-9.90791E-005	0.00000E+000	-5.08696E-006	-5.99601E-002	5.13371E-002	3.57900E+000	9	...........
	82	1.10667	4.36859E-002	-9.96073E-005	0.00000E+000	-4.35144E-006	-5.99601E-002	4.36780E-002	3.57900E+000	9	...........
	83	1.12	3.60545E-002	-9.89895E-005	0.00000E+000	-3.56902E-006	-5.99601E-002	3.60475E-002	3.57900E+000	9	...........
	84	1.13333	2.84895E-002	-9.91395E-005	0.00000E+000	-2.82443E-006	-5.99601E-002	2.84731E-002	3.57900E+000	9	...........
	85	1.14667	2.09917E-002	-9.87020E-005	0.00000E+000	-2.07192E-006	-5.99601E-002	2.09718E-002	3.57900E+000	9	...........
	86	1.16	1.35542E-002	-9.83842E-005	0.00000E+000	-1.33352E-006	-5.99601E-002	1.35290E-002	3.57900E+000	9	...........
	87	1.17333	6.17959E-003	-1.00103E-004	0.00000E+000	-6.18597E-007	-5.99601E-002	6.14897E-003	3.57900E+000	9	...........
	88	1.18	6.89851E-004	-9.97209E-005	0.00000E+000	-6.87926E-008	-5.99601E-002	6.53197E-004	3.57900E+000	9	...........
STARTTIMEOFFSET	QUANT	870.4009	Start Time Offset (s)
