EXPLAIN
TAG	PWR800_DISCHARGE
TITLE	LABEL	PWR Cyclic Charge Discharge (Cell) - Discharge Step	Test &Identifier
DATE	LABEL	13-7-2017	Date
TIME	LABEL	15:33:01	Time
NOTES	NOTES	2	&Notes...
	supercap test cell
	6M KOH
PSTAT	PSTAT	IFC5000-01520	Potentiostat
CAPACITY	QUANT	1.00000E-003	Capacity (A-hr)
CELLTYPE	SELECTOR	1	&Cell Type
WORKINGCONNECTION	SELECTOR	0	&Working Lead
MAXDISCHARGETIME	VARIABLEANDUNITS	1.00000E+002	s	1.00000E+002	second(s)	Max &Discharge Time
DISCHARGEMODE	MULTIPARAM	0	1.00000E-004	&Discharge Mode	Constant Current	Amp(s)
SAMPLETIME	QUANT	1.00000E-002	Sa&mple Period (s)
DISCHARGESTOPAT1	MULTIPARAM	3	0.00000E+000	Discharge Stop At &1	Voltage < Limit	V
DISCHARGESTOPAT2	MULTIPARAM	0	0.00000E+000	Discharge Stop At &2	None	N/A
AESBHCSELECTOR	TOGGLE	F	Save Both Half Cells
IRCOMP	TOGGLE	F	IR &Measure
EOC	QUANT	0	Open Circuit (V)
SEQUENCER	TOGGLE	TRUE	Run as Sequence
PSTATMODEL	IQUANT	53	Pstat Model
PSTATSECTION	LABEL	IFC5000-01520	Pstat Section
PSTATSERIALNO	LABEL	01520	Pstat Serial Number
CTRLMODE	IQUANT	0	Control Mode
ELECTROMETER	IQUANT	1	RE=0 or CS=1
IESTAB	IQUANT	0	I/E Stability
CASPEED	IQUANT	4	Control Amp Speed
CONVENTION	IQUANT	1	Current Convention
ICHRANGE	IQUANT	2	Ich Range
ICHRANGEMODE	TOGGLE	T	Ich Auto Range
ICHOFFSETENABLE	TOGGLE	F	Ich Offset Enable
ICHOFFSET	QUANT	0	Ich Offset (V)
ICHFILTER	IQUANT	1	Ich Filter
VCHRANGE	IQUANT	2	Vch Range
VCHRANGEMODE	TOGGLE	T	Vch Auto Range
VCHOFFSETENABLE	TOGGLE	F	Vch Offset Enable
VCHOFFSET	QUANT	0	Vch Offset (V)
VCHFILTER	IQUANT	1	Vch Filter
IERANGELOWERLIMIT	IQUANT	9	I/E Range Lower Limit
IERANGEMODE	TOGGLE	F	I/E AutoRange
IERANGE	IQUANT	9	I/E Range
ACHSELECT	IQUANT	1	Ach Select
ACHRANGE	IQUANT	2	Ach Range
ACHOFFSETENABLE	TOGGLE	F	Ach Offset Enable
ACHOFFSET	QUANT	0	Ach Offset (V)
ACHFILTER	IQUANT	1	Ach Filter
CABLEID	IQUANT	14	Cable ID
DCCALDATE	LABEL	5-7-2017	DC Calibration Date
ACCALDATE	LABEL	12/3/2015	AC Calibration Date
FRAMEWORKVERSION	QUANT	7.01	Framework Version
INSTRUMENTVERSION	LABEL	4.00	Instrument Version
CURVE	TABLE	87
	Pt	T	Vf	Im	Vu	Pwr	Sig	Ach	Temp	IERange	Over
	#	s	V	A	V	W	V	V	deg C	#	bits
	0	0.013333	8.47387E-001	-9.97345E-005	0.00000E+000	-8.45137E-005	-5.99601E-002	8.47743E-001	3.57900E+000	9	...........
	1	0.026667	8.33336E-001	-9.94625E-005	0.00000E+000	-8.28857E-005	-5.99601E-002	8.33687E-001	3.57900E+000	9	...........
	2	0.04	8.20150E-001	-9.92896E-005	0.00000E+000	-8.14323E-005	-5.99601E-002	8.20473E-001	3.57900E+000	9	...........
	3	0.053333	8.07507E-001	-9.95584E-005	0.00000E+000	-8.03941E-005	-5.99601E-002	8.07830E-001	3.57900E+000	9	...........
	4	0.066667	7.95283E-001	-9.85748E-005	0.00000E+000	-7.83949E-005	-5.99601E-002	7.95596E-001	3.57900E+000	9	...........
	5	0.08	7.83311E-001	-9.85863E-005	0.00000E+000	-7.72237E-005	-5.99601E-002	7.83629E-001	3.57900E+000	9	...........
	6	0.093333	7.71598E-001	-9.89385E-005	0.00000E+000	-7.63407E-005	-5.99601E-002	7.71889E-001	3.57900E+000	9	...........
	7	0.106667	7.60015E-001	-9.86321E-005	0.00000E+000	-7.49619E-005	-5.99601E-002	7.60305E-001	3.57900E+000	9	...........
	8	0.12	7.48582E-001	-9.90739E-005	0.00000E+000	-7.41649E-005	-5.99601E-002	7.48869E-001	3.57900E+000	9	...........
	9	0.133333	7.37228E-001	-9.90635E-005	0.00000E+000	-7.30323E-005	-5.99601E-002	7.37504E-001	3.57900E+000	9	...........
	10	0.146667	7.25978E-001	-9.91343E-005	0.00000E+000	-7.19694E-005	-5.99601E-002	7.26266E-001	3.57900E+000	9	...........
	11	0.16	7.14742E-001	-9.86582E-005	0.00000E+000	-7.05151E-005	-5.99601E-002	7.15019E-001	3.57900E+000	9	...........
	12	0.173333	7.03579E-001	-9.87811E-005	0.00000E+000	-6.95003E-005	-5.99601E-002	7.03828E-001	3.57900E+000	9	...........
	13	0.186667	6.92455E-001	-9.79549E-005	0.00000E+000	-6.78294E-005	-5.99601E-002	6.92705E-001	3.57900E+000	9	...........
	14	0.2	6.81360E-001	-9.93906E-005	0.00000E+000	-6.77208E-005	-5.99601E-002	6.81617E-001	3.57900E+000	9	...........
	15	0.213333	6.70290E-001	-9.83102E-005	0.00000E+000	-6.58964E-005	-5.99601E-002	6.70547E-001	3.57900E+000	9	...........
	16	0.226667	6.59218E-001	-9.88780E-005	0.00000E+000	-6.51821E-005	-5.99601E-002	6.59479E-001	3.57900E+000	9	...........
	17	0.24	6.48160E-001	-9.93708E-005	0.00000E+000	-6.44082E-005	-5.99601E-002	6.48443E-001	3.57900E+000	9	...........
	18	0.253333	6.37153E-001	-9.91989E-005	0.00000E+000	-6.32049E-005	-5.99601E-002	6.37408E-001	3.57900E+000	9	...........
	19	0.266667	6.26165E-001	-9.89197E-005	0.00000E+000	-6.19401E-005	-5.99601E-002	6.26429E-001	3.57900E+000	9	...........
	20	0.28	6.15170E-001	-9.87343E-005	0.00000E+000	-6.07384E-005	-5.99601E-002	6.15448E-001	3.57900E+000	9	...........
	21	0.293333	6.04198E-001	-9.91093E-005	0.00000E+000	-5.98817E-005	-5.99601E-002	6.04468E-001	3.57900E+000	9	...........
	22	0.306667	5.93307E-001	-9.89708E-005	0.00000E+000	-5.87200E-005	-5.99601E-002	5.93560E-001	3.57900E+000	9	...........
	23	0.32	5.82369E-001	-9.90093E-005	0.00000E+000	-5.76600E-005	-5.99601E-002	5.82635E-001	3.57900E+000	9	...........
	24	0.333333	5.71511E-001	-9.84738E-005	0.00000E+000	-5.62789E-005	-5.99601E-002	5.71742E-001	3.57900E+000	9	...........
	25	0.346667	5.60642E-001	-9.84644E-005	0.00000E+000	-5.52033E-005	-5.99601E-002	5.60900E-001	3.57900E+000	9	...........
	26	0.36	5.49815E-001	-9.88103E-005	0.00000E+000	-5.43273E-005	-5.99601E-002	5.50052E-001	3.57900E+000	9	...........
	27	0.373333	5.39044E-001	-9.93396E-005	0.00000E+000	-5.35484E-005	-5.99601E-002	5.39274E-001	3.57900E+000	9	...........
	28	0.386667	5.28299E-001	-9.92125E-005	0.00000E+000	-5.24139E-005	-5.99601E-002	5.28506E-001	3.57900E+000	9	...........
	29	0.4	5.17608E-001	-9.91114E-005	0.00000E+000	-5.13008E-005	-5.99601E-002	5.17828E-001	3.57900E+000	9	...........
	30	0.413333	5.06890E-001	-9.97886E-005	0.00000E+000	-5.05819E-005	-5.99601E-002	5.07175E-001	3.57900E+000	9	...........
	31	0.426667	4.96310E-001	-1.00206E-004	0.00000E+000	-4.97334E-005	-5.99601E-002	4.96541E-001	3.57900E+000	9	...........
	32	0.44	4.85902E-001	-9.86467E-005	0.00000E+000	-4.79326E-005	-5.99601E-002	4.86067E-001	3.57900E+000	9	...........
	33	0.453333	4.75630E-001	-9.94771E-005	0.00000E+000	-4.73143E-005	-5.99601E-002	4.75728E-001	3.57900E+000	9	...........
	34	0.466667	4.65188E-001	-9.87447E-005	0.00000E+000	-4.59348E-005	-5.99601E-002	4.65274E-001	3.57900E+000	9	...........
	35	0.48	4.54797E-001	-9.92562E-005	0.00000E+000	-4.51414E-005	-5.99601E-002	4.54889E-001	3.57900E+000	9	...........
	36	0.493333	4.44471E-001	-9.91791E-005	0.00000E+000	-4.40822E-005	-5.99601E-002	4.44564E-001	3.57900E+000	9	...........
	37	0.506667	4.34207E-001	-9.92281E-005	0.00000E+000	-4.30856E-005	-5.99601E-002	4.34294E-001	3.57900E+000	9	...........
	38	0.52	4.24003E-001	-9.88155E-005	0.00000E+000	-4.18981E-005	-5.99601E-002	4.24087E-001	3.57900E+000	9	...........
	39	0.533333	4.13862E-001	-9.91322E-005	0.00000E+000	-4.10271E-005	-5.99601E-002	4.13943E-001	3.57900E+000	9	...........
	40	0.546667	4.03790E-001	-9.88822E-005	0.00000E+000	-3.99277E-005	-5.99601E-002	4.03870E-001	3.57900E+000	9	...........
	41	0.56	3.93771E-001	-9.95615E-005	0.00000E+000	-3.92045E-005	-5.99601E-002	3.93852E-001	3.57900E+000	9	...........
	42	0.573333	3.83820E-001	-9.92041E-005	0.00000E+000	-3.80766E-005	-5.99601E-002	3.83895E-001	3.57856E+000	9	...........
	43	0.586667	3.73935E-001	-9.86373E-005	0.00000E+000	-3.68839E-005	-5.99601E-002	3.74001E-001	3.57850E+000	9	...........
	44	0.6	3.64108E-001	-9.83477E-005	0.00000E+000	-3.58092E-005	-5.99601E-002	3.64177E-001	3.57850E+000	9	...........
	45	0.613333	3.54335E-001	-9.90531E-005	0.00000E+000	-3.50980E-005	-5.99601E-002	3.54400E-001	3.57850E+000	9	...........
	46	0.626667	3.44623E-001	-9.88551E-005	0.00000E+000	-3.40677E-005	-5.99601E-002	3.44688E-001	3.57850E+000	9	...........
	47	0.64	3.34961E-001	-9.89728E-005	0.00000E+000	-3.31520E-005	-5.99601E-002	3.35031E-001	3.57850E+000	9	...........
	48	0.653333	3.25373E-001	-9.91354E-005	0.00000E+000	-3.22559E-005	-5.99601E-002	3.25428E-001	3.57850E+000	9	...........
	49	0.666667	3.15823E-001	-9.83915E-005	0.00000E+000	-3.10743E-005	-5.99601E-002	3.15882E-001	3.57850E+000	9	...........
	50	0.68	3.06325E-001	-9.89405E-005	0.00000E+000	-3.03079E-005	-5.99601E-002	3.06382E-001	3.57850E+000	9	...........
	51	0.693333	2.96884E-001	-9.84040E-005	0.00000E+000	-2.92145E-005	-5.99601E-002	2.96939E-001	3.57850E+000	9	...........
	52	0.706667	2.87491E-001	-9.94000E-005	0.00000E+000	-2.85766E-005	-5.99601E-002	2.87540E-001	3.57850E+000	9	...........
	53	0.72	2.78143E-001	-9.86926E-005	0.00000E+000	-2.74506E-005	-5.99601E-002	2.78189E-001	3.57850E+000	9	...........
	54	0.733333	2.68843E-001	-9.84123E-005	0.00000E+000	-2.64574E-005	-5.99601E-002	2.68893E-001	3.57850E+000	9	...........
	55	0.746667	2.59594E-001	-9.91885E-005	0.00000E+000	-2.57488E-005	-5.99601E-002	2.59640E-001	3.57850E+000	9	...........
	56	0.76	2.50392E-001	-9.92323E-005	0.00000E+000	-2.48470E-005	-5.99601E-002	2.50433E-001	3.57850E+000	9	...........
	57	0.773333	2.41234E-001	-9.92073E-005	0.00000E+000	-2.39322E-005	-5.99601E-002	2.41274E-001	3.57850E+000	9	...........
	58	0.786667	2.32129E-001	-9.88947E-005	0.00000E+000	-2.29564E-005	-5.99601E-002	2.32162E-001	3.57850E+000	9	...........
	59	0.8	2.23068E-001	-9.88259E-005	0.00000E+000	-2.20449E-005	-5.99601E-002	2.23101E-001	3.57850E+000	9	...........
	60	0.813333	2.14054E-001	-9.87259E-005	0.00000E+000	-2.11327E-005	-5.99601E-002	2.14085E-001	3.57850E+000	9	...........
	61	0.826667	2.05095E-001	-9.90103E-005	0.00000E+000	-2.03065E-005	-5.99601E-002	2.05126E-001	3.57850E+000	9	...........
	62	0.84	1.96187E-001	-9.76069E-005	0.00000E+000	-1.91492E-005	-5.99601E-002	1.96215E-001	3.57850E+000	9	...........
	63	0.853333	1.87335E-001	-9.85332E-005	0.00000E+000	-1.84587E-005	-5.99601E-002	1.87363E-001	3.57850E+000	9	...........
	64	0.866667	1.78536E-001	-9.92635E-005	0.00000E+000	-1.77221E-005	-5.99601E-002	1.78560E-001	3.57850E+000	9	...........
	65	0.88	1.69789E-001	-9.98637E-005	0.00000E+000	-1.69557E-005	-5.99601E-002	1.69817E-001	3.57850E+000	9	...........
	66	0.893333	1.61114E-001	-9.95657E-005	0.00000E+000	-1.60414E-005	-5.99601E-002	1.61135E-001	3.57850E+000	9	...........
	67	0.906667	1.52496E-001	-9.96615E-005	0.00000E+000	-1.51980E-005	-5.99601E-002	1.52517E-001	3.57850E+000	9	...........
	68	0.92	1.43947E-001	-9.90739E-005	0.00000E+000	-1.42614E-005	-5.99601E-002	1.43964E-001	3.57850E+000	9	...........
	69	0.933333	1.35467E-001	-9.98063E-005	0.00000E+000	-1.35204E-005	-5.99601E-002	1.35484E-001	3.57850E+000	9	...........
	70	0.946667	1.27062E-001	-9.86863E-005	0.00000E+000	-1.25393E-005	-5.99601E-002	1.27070E-001	3.57850E+000	9	...........
	71	0.96	1.18722E-001	-9.90333E-005	0.00000E+000	-1.17574E-005	-5.99601E-002	1.18739E-001	3.57850E+000	9	...........
	72	0.97333	1.10457E-001	-9.86009E-005	0.00000E+000	-1.08912E-005	-5.99601E-002	1.10470E-001	3.57850E+000	9	...........
	73	0.98667	1.02269E-001	-9.84623E-005	0.00000E+000	-1.00696E-005	-5.99601E-002	1.02279E-001	3.57850E+000	9	...........
	74	1	9.41468E-002	-9.83123E-005	0.00000E+000	-9.25578E-006	-5.99601E-002	9.41542E-002	3.57850E+000	9	...........
	75	1.01333	8.60995E-002	-9.85603E-005	0.00000E+000	-8.48599E-006	-5.99601E-002	8.61063E-002	3.57850E+000	9	...........
	76	1.02667	7.81310E-002	-9.87811E-005	0.00000E+000	-7.71787E-006	-5.99601E-002	7.81264E-002	3.57850E+000	9	...........
	77	1.04	7.02274E-002	-9.80393E-005	0.00000E+000	-6.88505E-006	-5.99601E-002	7.02248E-002	3.57850E+000	9	...........
	78	1.05333	6.23944E-002	-9.84227E-005	0.00000E+000	-6.14102E-006	-5.99601E-002	6.23921E-002	3.57850E+000	9	...........
	79	1.06667	5.46260E-002	-9.93312E-005	0.00000E+000	-5.42607E-006	-5.99601E-002	5.46265E-002	3.57850E+000	9	...........
	80	1.08	4.69547E-002	-9.96521E-005	0.00000E+000	-4.67914E-006	-5.99601E-002	4.69529E-002	3.57850E+000	9	...........
	81	1.09333	3.93464E-002	-9.83956E-005	0.00000E+000	-3.87152E-006	-5.99601E-002	3.93317E-002	3.57850E+000	9	...........
	82	1.10667	3.17882E-002	-9.95719E-005	0.00000E+000	-3.16521E-006	-5.99601E-002	3.17733E-002	3.57850E+000	9	...........
	83	1.12	2.42971E-002	-9.91218E-005	0.00000E+000	-2.40837E-006	-5.99601E-002	2.42749E-002	3.57850E+000	9	...........
	84	1.13333	1.68653E-002	-9.96105E-005	0.00000E+000	-1.67996E-006	-5.99601E-002	1.68425E-002	3.57850E+000	9	...........
	85	1.14667	9.50216E-003	-9.89239E-005	0.00000E+000	-9.39991E-007	-5.99601E-002	9.47447E-003	3.57850E+000	9	...........
	86	1.15833	2.66183E-003	-9.90318E-005	0.00000E+000	-2.63606E-007	-5.99601E-002	2.63029E-003	3.57850E+000	9	...........
STARTTIMEOFFSET	QUANT	1402.964	Start Time Offset (s)
