EXPLAIN
TAG	PWR800_DISCHARGE
TITLE	LABEL	PWR Cyclic Charge Discharge (Cell) - Discharge Step	Test &Identifier
DATE	LABEL	13-7-2017	Date
TIME	LABEL	15:16:08	Time
NOTES	NOTES	2	&Notes...
	supercap test cell
	6M KOH
PSTAT	PSTAT	IFC5000-01520	Potentiostat
CAPACITY	QUANT	1.00000E-003	Capacity (A-hr)
CELLTYPE	SELECTOR	1	&Cell Type
WORKINGCONNECTION	SELECTOR	0	&Working Lead
MAXDISCHARGETIME	VARIABLEANDUNITS	1.00000E+002	s	1.00000E+002	second(s)	Max &Discharge Time
DISCHARGEMODE	MULTIPARAM	0	1.00000E-004	&Discharge Mode	Constant Current	Amp(s)
SAMPLETIME	QUANT	1.00000E-002	Sa&mple Period (s)
DISCHARGESTOPAT1	MULTIPARAM	3	0.00000E+000	Discharge Stop At &1	Voltage < Limit	V
DISCHARGESTOPAT2	MULTIPARAM	0	0.00000E+000	Discharge Stop At &2	None	N/A
AESBHCSELECTOR	TOGGLE	F	Save Both Half Cells
IRCOMP	TOGGLE	F	IR &Measure
EOC	QUANT	0	Open Circuit (V)
SEQUENCER	TOGGLE	TRUE	Run as Sequence
PSTATMODEL	IQUANT	53	Pstat Model
PSTATSECTION	LABEL	IFC5000-01520	Pstat Section
PSTATSERIALNO	LABEL	01520	Pstat Serial Number
CTRLMODE	IQUANT	0	Control Mode
ELECTROMETER	IQUANT	1	RE=0 or CS=1
IESTAB	IQUANT	0	I/E Stability
CASPEED	IQUANT	4	Control Amp Speed
CONVENTION	IQUANT	1	Current Convention
ICHRANGE	IQUANT	2	Ich Range
ICHRANGEMODE	TOGGLE	T	Ich Auto Range
ICHOFFSETENABLE	TOGGLE	F	Ich Offset Enable
ICHOFFSET	QUANT	0	Ich Offset (V)
ICHFILTER	IQUANT	1	Ich Filter
VCHRANGE	IQUANT	2	Vch Range
VCHRANGEMODE	TOGGLE	T	Vch Auto Range
VCHOFFSETENABLE	TOGGLE	F	Vch Offset Enable
VCHOFFSET	QUANT	0	Vch Offset (V)
VCHFILTER	IQUANT	1	Vch Filter
IERANGELOWERLIMIT	IQUANT	9	I/E Range Lower Limit
IERANGEMODE	TOGGLE	F	I/E AutoRange
IERANGE	IQUANT	9	I/E Range
ACHSELECT	IQUANT	1	Ach Select
ACHRANGE	IQUANT	2	Ach Range
ACHOFFSETENABLE	TOGGLE	F	Ach Offset Enable
ACHOFFSET	QUANT	0	Ach Offset (V)
ACHFILTER	IQUANT	1	Ach Filter
CABLEID	IQUANT	14	Cable ID
DCCALDATE	LABEL	5-7-2017	DC Calibration Date
ACCALDATE	LABEL	12/3/2015	AC Calibration Date
FRAMEWORKVERSION	QUANT	7.01	Framework Version
INSTRUMENTVERSION	LABEL	4.00	Instrument Version
CURVE	TABLE	90
	Pt	T	Vf	Im	Vu	Pwr	Sig	Ach	Temp	IERange	Over
	#	s	V	A	V	W	V	V	deg C	#	bits
	0	0.013333	8.52011E-001	-9.85540E-005	0.00000E+000	-8.39691E-005	-5.99601E-002	8.52364E-001	3.58000E+000	9	...........
	1	0.026667	8.38504E-001	-9.83300E-005	0.00000E+000	-8.24501E-005	-5.99601E-002	8.38836E-001	3.58000E+000	9	...........
	2	0.04	8.25825E-001	-9.86030E-005	0.00000E+000	-8.14288E-005	-5.99601E-002	8.26157E-001	3.58000E+000	9	...........
	3	0.053333	8.13700E-001	-9.90739E-005	0.00000E+000	-8.06164E-005	-5.99601E-002	8.14025E-001	3.58000E+000	9	...........
	4	0.066667	8.02010E-001	-9.93333E-005	0.00000E+000	-7.96664E-005	-5.99601E-002	8.02321E-001	3.58000E+000	9	...........
	5	0.08	7.90576E-001	-9.89447E-005	0.00000E+000	-7.82233E-005	-5.99601E-002	7.90874E-001	3.58000E+000	9	...........
	6	0.093333	7.79374E-001	-9.89645E-005	0.00000E+000	-7.71304E-005	-5.99601E-002	7.79681E-001	3.58000E+000	9	...........
	7	0.106667	7.68334E-001	-9.90697E-005	0.00000E+000	-7.61187E-005	-5.99601E-002	7.68641E-001	3.58000E+000	9	...........
	8	0.12	7.57431E-001	-9.97053E-005	0.00000E+000	-7.55199E-005	-5.99601E-002	7.57720E-001	3.58000E+000	9	...........
	9	0.133333	7.46627E-001	-9.90291E-005	0.00000E+000	-7.39378E-005	-5.99601E-002	7.46901E-001	3.58000E+000	9	...........
	10	0.146667	7.35867E-001	-9.88343E-005	0.00000E+000	-7.27289E-005	-5.99601E-002	7.36154E-001	3.58000E+000	9	...........
	11	0.16	7.25224E-001	-9.84269E-005	0.00000E+000	-7.13816E-005	-5.99601E-002	7.25481E-001	3.58000E+000	9	...........
	12	0.173333	7.14568E-001	-9.90895E-005	0.00000E+000	-7.08062E-005	-5.99601E-002	7.14848E-001	3.58000E+000	9	...........
	13	0.186667	7.03972E-001	-9.85738E-005	0.00000E+000	-6.93932E-005	-5.99601E-002	7.04259E-001	3.58000E+000	9	...........
	14	0.2	6.93411E-001	-9.96271E-005	0.00000E+000	-6.90826E-005	-5.99601E-002	6.93704E-001	3.58000E+000	9	...........
	15	0.213333	6.82884E-001	-9.83321E-005	0.00000E+000	-6.71494E-005	-5.99601E-002	6.83144E-001	3.58000E+000	9	...........
	16	0.226667	6.72361E-001	-9.84759E-005	0.00000E+000	-6.62113E-005	-5.99601E-002	6.72640E-001	3.58000E+000	9	...........
	17	0.24	6.61834E-001	-9.87728E-005	0.00000E+000	-6.53711E-005	-5.99601E-002	6.62133E-001	3.58000E+000	9	...........
	18	0.253333	6.51318E-001	-9.90010E-005	0.00000E+000	-6.44812E-005	-5.99601E-002	6.51611E-001	3.58000E+000	9	...........
	19	0.266667	6.40840E-001	-9.80706E-005	0.00000E+000	-6.28475E-005	-5.99601E-002	6.41114E-001	3.58000E+000	9	...........
	20	0.28	6.30336E-001	-9.96042E-005	0.00000E+000	-6.27841E-005	-5.99601E-002	6.30644E-001	3.58000E+000	9	...........
	21	0.293333	6.19899E-001	-9.83706E-005	0.00000E+000	-6.09799E-005	-5.99601E-002	6.20172E-001	3.58000E+000	9	...........
	22	0.306667	6.09382E-001	-9.80258E-005	0.00000E+000	-5.97351E-005	-5.99601E-002	6.09693E-001	3.58000E+000	9	...........
	23	0.32	5.98953E-001	-9.92458E-005	0.00000E+000	-5.94436E-005	-5.99601E-002	5.99243E-001	3.58000E+000	9	...........
	24	0.333333	5.88523E-001	-9.92271E-005	0.00000E+000	-5.83974E-005	-5.99601E-002	5.88787E-001	3.58000E+000	9	...........
	25	0.346667	5.78105E-001	-9.88957E-005	0.00000E+000	-5.71721E-005	-5.99601E-002	5.78368E-001	3.58000E+000	9	...........
	26	0.36	5.67707E-001	-9.96271E-005	0.00000E+000	-5.65591E-005	-5.99601E-002	5.67950E-001	3.58000E+000	9	...........
	27	0.373333	5.57289E-001	-9.97949E-005	0.00000E+000	-5.56146E-005	-5.99601E-002	5.57570E-001	3.57935E+000	9	...........
	28	0.386667	5.46955E-001	-9.95302E-005	0.00000E+000	-5.44385E-005	-5.99601E-002	5.47187E-001	3.57870E+000	9	...........
	29	0.4	5.36600E-001	-9.87738E-005	0.00000E+000	-5.30020E-005	-5.99601E-002	5.36857E-001	3.57870E+000	9	...........
	30	0.413333	5.26291E-001	-9.88572E-005	0.00000E+000	-5.20276E-005	-5.99601E-002	5.26561E-001	3.57870E+000	9	...........
	31	0.426667	5.16027E-001	-9.84196E-005	0.00000E+000	-5.07872E-005	-5.99601E-002	5.16271E-001	3.57870E+000	9	...........
	32	0.44	5.05718E-001	-9.75423E-005	0.00000E+000	-4.93289E-005	-5.99601E-002	5.06005E-001	3.57870E+000	9	...........
	33	0.453333	4.95533E-001	-9.86394E-005	0.00000E+000	-4.88791E-005	-5.99601E-002	4.95776E-001	3.57870E+000	9	...........
	34	0.466667	4.85513E-001	-9.91531E-005	0.00000E+000	-4.81401E-005	-5.99601E-002	4.85696E-001	3.57870E+000	9	...........
	35	0.48	4.75623E-001	-9.91614E-005	0.00000E+000	-4.71635E-005	-5.99601E-002	4.75727E-001	3.57870E+000	9	...........
	36	0.493333	4.65539E-001	-9.82914E-005	0.00000E+000	-4.57585E-005	-5.99601E-002	4.65642E-001	3.57870E+000	9	...........
	37	0.506667	4.55498E-001	-9.95615E-005	0.00000E+000	-4.53501E-005	-5.99601E-002	4.55590E-001	3.57870E+000	9	...........
	38	0.52	4.45517E-001	-9.84852E-005	0.00000E+000	-4.38768E-005	-5.99601E-002	4.45611E-001	3.57870E+000	9	...........
	39	0.533333	4.35569E-001	-9.97803E-005	0.00000E+000	-4.34612E-005	-5.99601E-002	4.35658E-001	3.57870E+000	9	...........
	40	0.546667	4.25680E-001	-9.99939E-005	0.00000E+000	-4.25654E-005	-5.99601E-002	4.25766E-001	3.57870E+000	9	...........
	41	0.56	4.15834E-001	-9.91208E-005	0.00000E+000	-4.12178E-005	-5.99601E-002	4.15923E-001	3.57870E+000	9	...........
	42	0.573333	4.06053E-001	-9.85853E-005	0.00000E+000	-4.00308E-005	-5.99601E-002	4.06131E-001	3.57870E+000	9	...........
	43	0.586667	3.96310E-001	-9.89395E-005	0.00000E+000	-3.92107E-005	-5.99601E-002	3.96390E-001	3.57870E+000	9	...........
	44	0.6	3.86624E-001	-9.79018E-005	0.00000E+000	-3.78512E-005	-5.99601E-002	3.86695E-001	3.57870E+000	9	...........
	45	0.613333	3.76984E-001	-9.82894E-005	0.00000E+000	-3.70535E-005	-5.99601E-002	3.77055E-001	3.57870E+000	9	...........
	46	0.626667	3.67399E-001	-9.94386E-005	0.00000E+000	-3.65337E-005	-5.99601E-002	3.67464E-001	3.57870E+000	9	...........
	47	0.64	3.57860E-001	-9.95646E-005	0.00000E+000	-3.56302E-005	-5.99601E-002	3.57925E-001	3.57870E+000	9	...........
	48	0.653333	3.48377E-001	-9.82519E-005	0.00000E+000	-3.42287E-005	-5.99601E-002	3.48442E-001	3.57870E+000	9	...........
	49	0.666667	3.38936E-001	-9.95990E-005	0.00000E+000	-3.37577E-005	-5.99601E-002	3.39000E-001	3.57870E+000	9	...........
	50	0.68	3.29546E-001	-9.85821E-005	0.00000E+000	-3.24873E-005	-5.99601E-002	3.29605E-001	3.57870E+000	9	...........
	51	0.693333	3.20199E-001	-9.88728E-005	0.00000E+000	-3.16589E-005	-5.99601E-002	3.20258E-001	3.57870E+000	9	...........
	52	0.706667	3.10896E-001	-9.85071E-005	0.00000E+000	-3.06255E-005	-5.99601E-002	3.10953E-001	3.57870E+000	9	...........
	53	0.72	3.01643E-001	-9.88145E-005	0.00000E+000	-2.98067E-005	-5.99601E-002	3.01693E-001	3.57870E+000	9	...........
	54	0.733333	2.92422E-001	-9.96646E-005	0.00000E+000	-2.91441E-005	-5.99601E-002	2.92473E-001	3.57870E+000	9	...........
	55	0.746667	2.83253E-001	-9.88801E-005	0.00000E+000	-2.80081E-005	-5.99601E-002	2.83306E-001	3.57870E+000	9	...........
	56	0.76	2.74125E-001	-9.88645E-005	0.00000E+000	-2.71012E-005	-5.99601E-002	2.74177E-001	3.57870E+000	9	...........
	57	0.773333	2.65030E-001	-9.90968E-005	0.00000E+000	-2.62636E-005	-5.99601E-002	2.65082E-001	3.57870E+000	9	...........
	58	0.786667	2.55983E-001	-9.88343E-005	0.00000E+000	-2.52999E-005	-5.99601E-002	2.56025E-001	3.57870E+000	9	...........
	59	0.8	2.46975E-001	-9.90114E-005	0.00000E+000	-2.44533E-005	-5.99601E-002	2.47015E-001	3.57870E+000	9	...........
	60	0.813333	2.38002E-001	-9.87905E-005	0.00000E+000	-2.35123E-005	-5.99601E-002	2.38037E-001	3.57870E+000	9	...........
	61	0.826667	2.29070E-001	-9.79778E-005	0.00000E+000	-2.24438E-005	-5.99601E-002	2.29109E-001	3.57870E+000	9	...........
	62	0.84	2.20178E-001	-9.85352E-005	0.00000E+000	-2.16953E-005	-5.99601E-002	2.20212E-001	3.57870E+000	9	...........
	63	0.853333	2.11329E-001	-9.95011E-005	0.00000E+000	-2.10275E-005	-5.99601E-002	2.11365E-001	3.57870E+000	9	...........
	64	0.866667	2.02522E-001	-9.93062E-005	0.00000E+000	-2.01117E-005	-5.99601E-002	2.02556E-001	3.57870E+000	9	...........
	65	0.88	1.93763E-001	-9.84904E-005	0.00000E+000	-1.90838E-005	-5.99601E-002	1.93794E-001	3.57870E+000	9	...........
	66	0.893333	1.85047E-001	-9.80987E-005	0.00000E+000	-1.81528E-005	-5.99601E-002	1.85080E-001	3.57870E+000	9	...........
	67	0.906667	1.76378E-001	-9.91875E-005	0.00000E+000	-1.74945E-005	-5.99601E-002	1.76412E-001	3.57870E+000	9	...........
	68	0.92	1.67763E-001	-9.93365E-005	0.00000E+000	-1.66650E-005	-5.99601E-002	1.67790E-001	3.57870E+000	9	...........
	69	0.933333	1.59200E-001	-9.88280E-005	0.00000E+000	-1.57334E-005	-5.99601E-002	1.59223E-001	3.57870E+000	9	...........
	70	0.946667	1.50700E-001	-9.92562E-005	0.00000E+000	-1.49579E-005	-5.99601E-002	1.50716E-001	3.57870E+000	9	...........
	71	0.96	1.42256E-001	-9.85123E-005	0.00000E+000	-1.40140E-005	-5.99601E-002	1.42271E-001	3.57870E+000	9	...........
	72	0.97333	1.33861E-001	-9.97418E-005	0.00000E+000	-1.33515E-005	-5.99601E-002	1.33879E-001	3.57870E+000	9	...........
	73	0.98667	1.25535E-001	-9.94479E-005	0.00000E+000	-1.24842E-005	-5.99601E-002	1.25549E-001	3.57870E+000	9	...........
	74	1	1.17268E-001	-9.90166E-005	0.00000E+000	-1.16115E-005	-5.99601E-002	1.17286E-001	3.57870E+000	9	...........
	75	1.01333	1.09073E-001	-9.81414E-005	0.00000E+000	-1.07045E-005	-5.99601E-002	1.09087E-001	3.57870E+000	9	...........
	76	1.02667	1.00942E-001	-9.88030E-005	0.00000E+000	-9.97335E-006	-5.99601E-002	1.00950E-001	3.57870E+000	9	...........
	77	1.04	9.28794E-002	-9.90958E-005	0.00000E+000	-9.20396E-006	-5.99601E-002	9.28811E-002	3.57870E+000	9	...........
	78	1.05333	8.48833E-002	-9.88468E-005	0.00000E+000	-8.39044E-006	-5.99601E-002	8.48858E-002	3.57870E+000	9	...........
	79	1.06667	7.69599E-002	-9.88145E-005	0.00000E+000	-7.60476E-006	-5.99601E-002	7.69565E-002	3.57870E+000	9	...........
	80	1.08	6.90933E-002	-9.81498E-005	0.00000E+000	-6.78149E-006	-5.99601E-002	6.90934E-002	3.57870E+000	9	...........
	81	1.09333	6.12984E-002	-9.85446E-005	0.00000E+000	-6.04063E-006	-5.99601E-002	6.12929E-002	3.57870E+000	9	...........
	82	1.10667	5.35603E-002	-9.94177E-005	0.00000E+000	-5.32484E-006	-5.99601E-002	5.35557E-002	3.57870E+000	9	...........
	83	1.12	4.59244E-002	-9.85436E-005	0.00000E+000	-4.52556E-006	-5.99601E-002	4.59185E-002	3.57870E+000	9	...........
	84	1.13333	3.83360E-002	-9.91781E-005	0.00000E+000	-3.80209E-006	-5.99601E-002	3.83231E-002	3.57870E+000	9	...........
	85	1.14667	3.07958E-002	-9.78132E-005	0.00000E+000	-3.01223E-006	-5.99601E-002	3.07819E-002	3.57870E+000	9	...........
	86	1.16	2.33189E-002	-9.86259E-005	0.00000E+000	-2.29985E-006	-5.99601E-002	2.32984E-002	3.57870E+000	9	...........
	87	1.17333	1.59059E-002	-9.85623E-005	0.00000E+000	-1.56772E-006	-5.99601E-002	1.58804E-002	3.57870E+000	9	...........
	88	1.18667	8.55382E-003	-9.91823E-005	0.00000E+000	-8.48387E-007	-5.99601E-002	8.52281E-003	3.57870E+000	9	...........
	89	1.19667	2.16096E-003	-9.79115E-005	0.00000E+000	-2.11583E-007	-5.99601E-002	2.13271E-003	3.57870E+000	9	...........
STARTTIMEOFFSET	QUANT	638.2827	Start Time Offset (s)
