EXPLAIN
TAG	PWR800_DISCHARGE
TITLE	LABEL	PWR Cyclic Charge Discharge (Cell) - Discharge Step	Test &Identifier
DATE	LABEL	13-7-2017	Date
TIME	LABEL	15:08:16	Time
NOTES	NOTES	2	&Notes...
	supercap test cell
	6M KOH
PSTAT	PSTAT	IFC5000-01520	Potentiostat
CAPACITY	QUANT	1.00000E-003	Capacity (A-hr)
CELLTYPE	SELECTOR	1	&Cell Type
WORKINGCONNECTION	SELECTOR	0	&Working Lead
MAXDISCHARGETIME	VARIABLEANDUNITS	1.00000E+002	s	1.00000E+002	second(s)	Max &Discharge Time
DISCHARGEMODE	MULTIPARAM	0	1.00000E-004	&Discharge Mode	Constant Current	Amp(s)
SAMPLETIME	QUANT	1.00000E-002	Sa&mple Period (s)
DISCHARGESTOPAT1	MULTIPARAM	3	0.00000E+000	Discharge Stop At &1	Voltage < Limit	V
DISCHARGESTOPAT2	MULTIPARAM	0	0.00000E+000	Discharge Stop At &2	None	N/A
AESBHCSELECTOR	TOGGLE	F	Save Both Half Cells
IRCOMP	TOGGLE	F	IR &Measure
EOC	QUANT	0	Open Circuit (V)
SEQUENCER	TOGGLE	TRUE	Run as Sequence
PSTATMODEL	IQUANT	53	Pstat Model
PSTATSECTION	LABEL	IFC5000-01520	Pstat Section
PSTATSERIALNO	LABEL	01520	Pstat Serial Number
CTRLMODE	IQUANT	0	Control Mode
ELECTROMETER	IQUANT	1	RE=0 or CS=1
IESTAB	IQUANT	0	I/E Stability
CASPEED	IQUANT	4	Control Amp Speed
CONVENTION	IQUANT	1	Current Convention
ICHRANGE	IQUANT	2	Ich Range
ICHRANGEMODE	TOGGLE	T	Ich Auto Range
ICHOFFSETENABLE	TOGGLE	F	Ich Offset Enable
ICHOFFSET	QUANT	0	Ich Offset (V)
ICHFILTER	IQUANT	1	Ich Filter
VCHRANGE	IQUANT	2	Vch Range
VCHRANGEMODE	TOGGLE	T	Vch Auto Range
VCHOFFSETENABLE	TOGGLE	F	Vch Offset Enable
VCHOFFSET	QUANT	0	Vch Offset (V)
VCHFILTER	IQUANT	1	Vch Filter
IERANGELOWERLIMIT	IQUANT	9	I/E Range Lower Limit
IERANGEMODE	TOGGLE	F	I/E AutoRange
IERANGE	IQUANT	9	I/E Range
ACHSELECT	IQUANT	1	Ach Select
ACHRANGE	IQUANT	2	Ach Range
ACHOFFSETENABLE	TOGGLE	F	Ach Offset Enable
ACHOFFSET	QUANT	0	Ach Offset (V)
ACHFILTER	IQUANT	1	Ach Filter
CABLEID	IQUANT	14	Cable ID
DCCALDATE	LABEL	5-7-2017	DC Calibration Date
ACCALDATE	LABEL	12/3/2015	AC Calibration Date
FRAMEWORKVERSION	QUANT	7.01	Framework Version
INSTRUMENTVERSION	LABEL	4.00	Instrument Version
CURVE	TABLE	93
	Pt	T	Vf	Im	Vu	Pwr	Sig	Ach	Temp	IERange	Over
	#	s	V	A	V	W	V	V	deg C	#	bits
	0	0.013333	8.56694E-001	-9.95136E-005	0.00000E+000	-8.52527E-005	-5.99601E-002	8.57042E-001	3.57880E+000	9	...........
	1	0.026667	8.43638E-001	-9.93594E-005	0.00000E+000	-8.38234E-005	-5.99601E-002	8.43989E-001	3.57880E+000	9	...........
	2	0.04	8.31390E-001	-9.80591E-005	0.00000E+000	-8.15254E-005	-5.99601E-002	8.31736E-001	3.57880E+000	9	...........
	3	0.053333	8.19696E-001	-9.88739E-005	0.00000E+000	-8.10465E-005	-5.99601E-002	8.20035E-001	3.57880E+000	9	...........
	4	0.066667	8.08390E-001	-9.88718E-005	0.00000E+000	-7.99270E-005	-5.99601E-002	8.08745E-001	3.57880E+000	9	...........
	5	0.08	7.97429E-001	-9.75309E-005	0.00000E+000	-7.77739E-005	-5.99601E-002	7.97736E-001	3.57880E+000	9	...........
	6	0.093333	7.86630E-001	-9.84967E-005	0.00000E+000	-7.74804E-005	-5.99601E-002	7.86964E-001	3.57880E+000	9	...........
	7	0.106667	7.76033E-001	-9.79976E-005	0.00000E+000	-7.60494E-005	-5.99601E-002	7.76357E-001	3.57880E+000	9	...........
	8	0.12	7.65563E-001	-9.90093E-005	0.00000E+000	-7.57979E-005	-5.99601E-002	7.65884E-001	3.57880E+000	9	...........
	9	0.133333	7.55166E-001	-9.85040E-005	0.00000E+000	-7.43868E-005	-5.99601E-002	7.55491E-001	3.57880E+000	9	...........
	10	0.146667	7.44862E-001	-9.88009E-005	0.00000E+000	-7.35930E-005	-5.99601E-002	7.45189E-001	3.57880E+000	9	...........
	11	0.16	7.34625E-001	-9.78372E-005	0.00000E+000	-7.18737E-005	-5.99601E-002	7.34943E-001	3.57880E+000	9	...........
	12	0.173333	7.24463E-001	-9.94375E-005	0.00000E+000	-7.20388E-005	-5.99601E-002	7.24754E-001	3.57880E+000	9	...........
	13	0.186667	7.14269E-001	-9.87988E-005	0.00000E+000	-7.05690E-005	-5.99601E-002	7.14581E-001	3.57880E+000	9	...........
	14	0.2	7.04168E-001	-9.79164E-005	0.00000E+000	-6.89496E-005	-5.99601E-002	7.04453E-001	3.57880E+000	9	...........
	15	0.213333	6.94075E-001	-9.85029E-005	0.00000E+000	-6.83685E-005	-5.99601E-002	6.94379E-001	3.57880E+000	9	...........
	16	0.226667	6.83980E-001	-9.86176E-005	0.00000E+000	-6.74525E-005	-5.99601E-002	6.84283E-001	3.57880E+000	9	...........
	17	0.24	6.73927E-001	-9.85154E-005	0.00000E+000	-6.63922E-005	-5.99601E-002	6.74210E-001	3.57880E+000	9	...........
	18	0.253333	6.63841E-001	-9.84977E-005	0.00000E+000	-6.53868E-005	-5.99601E-002	6.64145E-001	3.57880E+000	9	...........
	19	0.266667	6.53772E-001	-9.84696E-005	0.00000E+000	-6.43767E-005	-5.99601E-002	6.54072E-001	3.57880E+000	9	...........
	20	0.28	6.43723E-001	-9.92635E-005	0.00000E+000	-6.38982E-005	-5.99601E-002	6.44013E-001	3.57880E+000	9	...........
	21	0.293333	6.33647E-001	-9.86488E-005	0.00000E+000	-6.25085E-005	-5.99601E-002	6.33937E-001	3.57880E+000	9	...........
	22	0.306667	6.23612E-001	-9.85978E-005	0.00000E+000	-6.14867E-005	-5.99601E-002	6.23899E-001	3.57880E+000	9	...........
	23	0.32	6.13541E-001	-9.91447E-005	0.00000E+000	-6.08293E-005	-5.99601E-002	6.13851E-001	3.57880E+000	9	...........
	24	0.333333	6.03492E-001	-9.81695E-005	0.00000E+000	-5.92445E-005	-5.99601E-002	6.03810E-001	3.57880E+000	9	...........
	25	0.346667	5.93475E-001	-9.88384E-005	0.00000E+000	-5.86581E-005	-5.99601E-002	5.93772E-001	3.57880E+000	9	...........
	26	0.36	5.83433E-001	-9.90843E-005	0.00000E+000	-5.78091E-005	-5.99601E-002	5.83722E-001	3.57880E+000	9	...........
	27	0.373333	5.73423E-001	-9.82602E-005	0.00000E+000	-5.63447E-005	-5.99601E-002	5.73706E-001	3.57880E+000	9	...........
	28	0.386667	5.63423E-001	-9.78341E-005	0.00000E+000	-5.51220E-005	-5.99601E-002	5.63661E-001	3.57880E+000	9	...........
	29	0.4	5.53381E-001	-9.75944E-005	0.00000E+000	-5.40069E-005	-5.99601E-002	5.53647E-001	3.57880E+000	9	...........
	30	0.413333	5.43439E-001	-9.83039E-005	0.00000E+000	-5.34222E-005	-5.99601E-002	5.43661E-001	3.57880E+000	9	...........
	31	0.426667	5.33450E-001	-9.88426E-005	0.00000E+000	-5.27276E-005	-5.99601E-002	5.33700E-001	3.57880E+000	9	...........
	32	0.44	5.23489E-001	-9.90333E-005	0.00000E+000	-5.18428E-005	-5.99601E-002	5.23755E-001	3.57880E+000	9	...........
	33	0.453333	5.13581E-001	-9.94459E-005	0.00000E+000	-5.10735E-005	-5.99601E-002	5.13844E-001	3.57880E+000	9	...........
	34	0.466667	5.03630E-001	-9.91156E-005	0.00000E+000	-4.99176E-005	-5.99601E-002	5.03910E-001	3.57880E+000	9	...........
	35	0.48	4.93780E-001	-9.84759E-005	0.00000E+000	-4.86254E-005	-5.99601E-002	4.94001E-001	3.57880E+000	9	...........
	36	0.493333	4.84125E-001	-9.88593E-005	0.00000E+000	-4.78602E-005	-5.99601E-002	4.84294E-001	3.57880E+000	9	...........
	37	0.506667	4.74484E-001	-9.96073E-005	0.00000E+000	-4.72621E-005	-5.99601E-002	4.74589E-001	3.57880E+000	9	...........
	38	0.52	4.64698E-001	-9.81810E-005	0.00000E+000	-4.56245E-005	-5.99601E-002	4.64795E-001	3.57880E+000	9	...........
	39	0.533333	4.54938E-001	-9.85738E-005	0.00000E+000	-4.48450E-005	-5.99601E-002	4.55030E-001	3.57880E+000	9	...........
	40	0.546667	4.45214E-001	-9.93042E-005	0.00000E+000	-4.42116E-005	-5.99601E-002	4.45311E-001	3.57880E+000	9	...........
	41	0.56	4.35538E-001	-9.87030E-005	0.00000E+000	-4.29889E-005	-5.99601E-002	4.35627E-001	3.57880E+000	9	...........
	42	0.573333	4.25892E-001	-9.85800E-005	0.00000E+000	-4.19844E-005	-5.99601E-002	4.25982E-001	3.57880E+000	9	...........
	43	0.586667	4.16287E-001	-9.93208E-005	0.00000E+000	-4.13459E-005	-5.99601E-002	4.16375E-001	3.57880E+000	9	...........
	44	0.6	4.06723E-001	-9.84175E-005	0.00000E+000	-4.00287E-005	-5.99601E-002	4.06808E-001	3.57880E+000	9	...........
	45	0.613333	3.97199E-001	-9.79914E-005	0.00000E+000	-3.89220E-005	-5.99601E-002	3.97276E-001	3.57880E+000	9	...........
	46	0.626667	3.87707E-001	-9.93354E-005	0.00000E+000	-3.85131E-005	-5.99601E-002	3.87788E-001	3.57880E+000	9	...........
	47	0.64	3.78270E-001	-9.86561E-005	0.00000E+000	-3.73186E-005	-5.99601E-002	3.78343E-001	3.57880E+000	9	...........
	48	0.653333	3.68863E-001	-9.96073E-005	0.00000E+000	-3.67415E-005	-5.99601E-002	3.68934E-001	3.57880E+000	9	...........
	49	0.666667	3.59496E-001	-9.82060E-005	0.00000E+000	-3.53047E-005	-5.99601E-002	3.59571E-001	3.57880E+000	9	...........
	50	0.68	3.50167E-001	-9.84259E-005	0.00000E+000	-3.44655E-005	-5.99601E-002	3.50237E-001	3.57880E+000	9	...........
	51	0.693333	3.40878E-001	-9.88645E-005	0.00000E+000	-3.37008E-005	-5.99601E-002	3.40948E-001	3.57880E+000	9	...........
	52	0.706667	3.31635E-001	-9.93542E-005	0.00000E+000	-3.29493E-005	-5.99601E-002	3.31700E-001	3.57880E+000	9	...........
	53	0.72	3.22426E-001	-9.95115E-005	0.00000E+000	-3.20851E-005	-5.99601E-002	3.22490E-001	3.57880E+000	9	...........
	54	0.733333	3.13256E-001	-9.94198E-005	0.00000E+000	-3.11438E-005	-5.99601E-002	3.13320E-001	3.57880E+000	9	...........
	55	0.746667	3.04123E-001	-9.77851E-005	0.00000E+000	-2.97387E-005	-5.99601E-002	3.04178E-001	3.57880E+000	9	...........
	56	0.76	2.95014E-001	-9.86832E-005	0.00000E+000	-2.91129E-005	-5.99601E-002	2.95072E-001	3.57880E+000	9	...........
	57	0.773333	2.85948E-001	-9.93760E-005	0.00000E+000	-2.84164E-005	-5.99601E-002	2.86007E-001	3.57880E+000	9	...........
	58	0.786667	2.76918E-001	-9.96844E-005	0.00000E+000	-2.76045E-005	-5.99601E-002	2.76970E-001	3.57880E+000	9	...........
	59	0.8	2.67908E-001	-9.86269E-005	0.00000E+000	-2.64229E-005	-5.99601E-002	2.67967E-001	3.57880E+000	9	...........
	60	0.813333	2.58947E-001	-9.79528E-005	0.00000E+000	-2.53646E-005	-5.99601E-002	2.58999E-001	3.57916E+000	9	...........
	61	0.826667	2.50012E-001	-9.86717E-005	0.00000E+000	-2.46691E-005	-5.99601E-002	2.50054E-001	3.58020E+000	9	...........
	62	0.84	2.41112E-001	-9.79914E-005	0.00000E+000	-2.36269E-005	-5.99601E-002	2.41155E-001	3.58020E+000	9	...........
	63	0.853333	2.32245E-001	-9.88051E-005	0.00000E+000	-2.29470E-005	-5.99601E-002	2.32279E-001	3.58020E+000	9	...........
	64	0.866667	2.23407E-001	-9.79497E-005	0.00000E+000	-2.18826E-005	-5.99601E-002	2.23443E-001	3.58020E+000	9	...........
	65	0.88	2.14608E-001	-9.85759E-005	0.00000E+000	-2.11552E-005	-5.99601E-002	2.14642E-001	3.58020E+000	9	...........
	66	0.893333	2.05841E-001	-9.93323E-005	0.00000E+000	-2.04467E-005	-5.99601E-002	2.05876E-001	3.58020E+000	9	...........
	67	0.906667	1.97119E-001	-9.87968E-005	0.00000E+000	-1.94747E-005	-5.99601E-002	1.97152E-001	3.58020E+000	9	...........
	68	0.92	1.88439E-001	-9.91114E-005	0.00000E+000	-1.86765E-005	-5.99601E-002	1.88464E-001	3.58020E+000	9	...........
	69	0.933333	1.79788E-001	-9.87009E-005	0.00000E+000	-1.77452E-005	-5.99601E-002	1.79813E-001	3.58020E+000	9	...........
	70	0.946667	1.71175E-001	-9.87072E-005	0.00000E+000	-1.68962E-005	-5.99601E-002	1.71203E-001	3.58020E+000	9	...........
	71	0.96	1.62616E-001	-9.89999E-005	0.00000E+000	-1.60990E-005	-5.99601E-002	1.62636E-001	3.58020E+000	9	...........
	72	0.97333	1.54100E-001	-9.94927E-005	0.00000E+000	-1.53319E-005	-5.99601E-002	1.54120E-001	3.58020E+000	9	...........
	73	0.98667	1.45632E-001	-9.92208E-005	0.00000E+000	-1.44497E-005	-5.99601E-002	1.45651E-001	3.58020E+000	9	...........
	74	1	1.37225E-001	-9.91635E-005	0.00000E+000	-1.36077E-005	-5.99601E-002	1.37240E-001	3.58020E+000	9	...........
	75	1.01333	1.28866E-001	-9.82466E-005	0.00000E+000	-1.26606E-005	-5.99601E-002	1.28876E-001	3.58020E+000	9	...........
	76	1.02667	1.20564E-001	-9.95021E-005	0.00000E+000	-1.19964E-005	-5.99601E-002	1.20574E-001	3.58020E+000	9	...........
	77	1.04	1.12323E-001	-9.91218E-005	0.00000E+000	-1.11336E-005	-5.99601E-002	1.12335E-001	3.58020E+000	9	...........
	78	1.05333	1.04144E-001	-9.96626E-005	0.00000E+000	-1.03793E-005	-5.99601E-002	1.04156E-001	3.58020E+000	9	...........
	79	1.06667	9.60240E-002	-9.87405E-005	0.00000E+000	-9.48146E-006	-5.99601E-002	9.60286E-002	3.58020E+000	9	...........
	80	1.08	8.79717E-002	-9.84904E-005	0.00000E+000	-8.66437E-006	-5.99601E-002	8.79764E-002	3.58020E+000	9	...........
	81	1.09333	7.99801E-002	-9.88280E-005	0.00000E+000	-7.90427E-006	-5.99601E-002	7.99848E-002	3.58020E+000	9	...........
	82	1.10667	7.20538E-002	-9.78101E-005	0.00000E+000	-7.04758E-006	-5.99601E-002	7.20549E-002	3.58020E+000	9	...........
	83	1.12	6.41886E-002	-9.96928E-005	0.00000E+000	-6.39914E-006	-5.99601E-002	6.41870E-002	3.58020E+000	9	...........
	84	1.13333	5.63827E-002	-9.86248E-005	0.00000E+000	-5.56074E-006	-5.99601E-002	5.63839E-002	3.58020E+000	9	...........
	85	1.14667	4.86602E-002	-9.80164E-005	0.00000E+000	-4.76950E-006	-5.99601E-002	4.86535E-002	3.58020E+000	9	...........
	86	1.16	4.09964E-002	-9.88218E-005	0.00000E+000	-4.05134E-006	-5.99601E-002	4.09887E-002	3.58020E+000	9	...........
	87	1.17333	3.33834E-002	-9.89603E-005	0.00000E+000	-3.30363E-006	-5.99601E-002	3.33704E-002	3.58020E+000	9	...........
	88	1.18667	2.58239E-002	-9.76059E-005	0.00000E+000	-2.52056E-006	-5.99601E-002	2.58088E-002	3.58020E+000	9	...........
	89	1.2	1.83265E-002	-9.94406E-005	0.00000E+000	-1.82240E-006	-5.99601E-002	1.83036E-002	3.58020E+000	9	...........
	90	1.21333	1.08899E-002	-9.90499E-005	0.00000E+000	-1.07864E-006	-5.99601E-002	1.08589E-002	3.58020E+000	9	...........
	91	1.22667	3.50500E-003	-9.91656E-005	0.00000E+000	-3.47576E-007	-5.99601E-002	3.47537E-003	3.58020E+000	9	...........
	92	1.22833	-6.15112E-004	-9.81268E-005	0.00000E+000	6.03590E-008	-5.99601E-002	-6.63922E-004	3.58020E+000	9	...........
STARTTIMEOFFSET	QUANT	279.1166	Start Time Offset (s)
