EXPLAIN
TAG	PWR800_DISCHARGE
TITLE	LABEL	PWR Cyclic Charge Discharge (Cell) - Discharge Step	Test &Identifier
DATE	LABEL	13-7-2017	Date
TIME	LABEL	15:23:52	Time
NOTES	NOTES	2	&Notes...
	supercap test cell
	6M KOH
PSTAT	PSTAT	IFC5000-01520	Potentiostat
CAPACITY	QUANT	1.00000E-003	Capacity (A-hr)
CELLTYPE	SELECTOR	1	&Cell Type
WORKINGCONNECTION	SELECTOR	0	&Working Lead
MAXDISCHARGETIME	VARIABLEANDUNITS	1.00000E+002	s	1.00000E+002	second(s)	Max &Discharge Time
DISCHARGEMODE	MULTIPARAM	0	1.00000E-004	&Discharge Mode	Constant Current	Amp(s)
SAMPLETIME	QUANT	1.00000E-002	Sa&mple Period (s)
DISCHARGESTOPAT1	MULTIPARAM	3	0.00000E+000	Discharge Stop At &1	Voltage < Limit	V
DISCHARGESTOPAT2	MULTIPARAM	0	0.00000E+000	Discharge Stop At &2	None	N/A
AESBHCSELECTOR	TOGGLE	F	Save Both Half Cells
IRCOMP	TOGGLE	F	IR &Measure
EOC	QUANT	0	Open Circuit (V)
SEQUENCER	TOGGLE	TRUE	Run as Sequence
PSTATMODEL	IQUANT	53	Pstat Model
PSTATSECTION	LABEL	IFC5000-01520	Pstat Section
PSTATSERIALNO	LABEL	01520	Pstat Serial Number
CTRLMODE	IQUANT	0	Control Mode
ELECTROMETER	IQUANT	1	RE=0 or CS=1
IESTAB	IQUANT	0	I/E Stability
CASPEED	IQUANT	4	Control Amp Speed
CONVENTION	IQUANT	1	Current Convention
ICHRANGE	IQUANT	2	Ich Range
ICHRANGEMODE	TOGGLE	T	Ich Auto Range
ICHOFFSETENABLE	TOGGLE	F	Ich Offset Enable
ICHOFFSET	QUANT	0	Ich Offset (V)
ICHFILTER	IQUANT	1	Ich Filter
VCHRANGE	IQUANT	2	Vch Range
VCHRANGEMODE	TOGGLE	T	Vch Auto Range
VCHOFFSETENABLE	TOGGLE	F	Vch Offset Enable
VCHOFFSET	QUANT	0	Vch Offset (V)
VCHFILTER	IQUANT	1	Vch Filter
IERANGELOWERLIMIT	IQUANT	9	I/E Range Lower Limit
IERANGEMODE	TOGGLE	F	I/E AutoRange
IERANGE	IQUANT	9	I/E Range
ACHSELECT	IQUANT	1	Ach Select
ACHRANGE	IQUANT	2	Ach Range
ACHOFFSETENABLE	TOGGLE	F	Ach Offset Enable
ACHOFFSET	QUANT	0	Ach Offset (V)
ACHFILTER	IQUANT	1	Ach Filter
CABLEID	IQUANT	14	Cable ID
DCCALDATE	LABEL	5-7-2017	DC Calibration Date
ACCALDATE	LABEL	12/3/2015	AC Calibration Date
FRAMEWORKVERSION	QUANT	7.01	Framework Version
INSTRUMENTVERSION	LABEL	4.00	Instrument Version
CURVE	TABLE	89
	Pt	T	Vf	Im	Vu	Pwr	Sig	Ach	Temp	IERange	Over
	#	s	V	A	V	W	V	V	deg C	#	bits
	0	0.013333	8.49903E-001	-9.92990E-005	0.00000E+000	-8.43945E-005	-5.99601E-002	8.50242E-001	3.57890E+000	9	...........
	1	0.026667	8.36089E-001	-9.98980E-005	0.00000E+000	-8.35237E-005	-5.99601E-002	8.36431E-001	3.57890E+000	9	...........
	2	0.04	8.23149E-001	-9.86509E-005	0.00000E+000	-8.12044E-005	-5.99601E-002	8.23481E-001	3.57890E+000	9	...........
	3	0.053333	8.10735E-001	-9.97470E-005	0.00000E+000	-8.08683E-005	-5.99601E-002	8.11061E-001	3.57890E+000	9	...........
	4	0.066667	7.98783E-001	-9.89916E-005	0.00000E+000	-7.90728E-005	-5.99601E-002	7.99085E-001	3.57890E+000	9	...........
	5	0.08	7.87072E-001	-9.77257E-005	0.00000E+000	-7.69172E-005	-5.99601E-002	7.87372E-001	3.57890E+000	9	...........
	6	0.093333	7.75593E-001	-9.93302E-005	0.00000E+000	-7.70398E-005	-5.99601E-002	7.75889E-001	3.57890E+000	9	...........
	7	0.106667	7.64288E-001	-9.90426E-005	0.00000E+000	-7.56971E-005	-5.99601E-002	7.64579E-001	3.57890E+000	9	...........
	8	0.12	7.53107E-001	-9.84196E-005	0.00000E+000	-7.41205E-005	-5.99601E-002	7.53409E-001	3.57890E+000	9	...........
	9	0.133333	7.42012E-001	-9.84175E-005	0.00000E+000	-7.30270E-005	-5.99601E-002	7.42304E-001	3.57890E+000	9	...........
	10	0.146667	7.30995E-001	-9.92104E-005	0.00000E+000	-7.25223E-005	-5.99601E-002	7.31284E-001	3.57890E+000	9	...........
	11	0.16	7.20039E-001	-9.82310E-005	0.00000E+000	-7.07301E-005	-5.99601E-002	7.20328E-001	3.57890E+000	9	...........
	12	0.173333	7.09103E-001	-9.85988E-005	0.00000E+000	-6.99168E-005	-5.99601E-002	7.09385E-001	3.57890E+000	9	...........
	13	0.186667	6.98231E-001	-9.92333E-005	0.00000E+000	-6.92877E-005	-5.99601E-002	6.98514E-001	3.57890E+000	9	...........
	14	0.2	6.87365E-001	-9.79872E-005	0.00000E+000	-6.73530E-005	-5.99601E-002	6.87649E-001	3.57890E+000	9	...........
	15	0.213333	6.76553E-001	-9.92458E-005	0.00000E+000	-6.71450E-005	-5.99601E-002	6.76842E-001	3.57890E+000	9	...........
	16	0.226667	6.65765E-001	-9.90374E-005	0.00000E+000	-6.59357E-005	-5.99601E-002	6.66047E-001	3.57890E+000	9	...........
	17	0.24	6.54967E-001	-9.82946E-005	0.00000E+000	-6.43797E-005	-5.99601E-002	6.55254E-001	3.57890E+000	9	...........
	18	0.253333	6.44211E-001	-9.84154E-005	0.00000E+000	-6.34003E-005	-5.99601E-002	6.44448E-001	3.57890E+000	9	...........
	19	0.266667	6.33407E-001	-9.85300E-005	0.00000E+000	-6.24096E-005	-5.99601E-002	6.33688E-001	3.57890E+000	9	...........
	20	0.28	6.22690E-001	-9.85384E-005	0.00000E+000	-6.13589E-005	-5.99601E-002	6.22957E-001	3.57890E+000	9	...........
	21	0.293333	6.11924E-001	-9.88124E-005	0.00000E+000	-6.04657E-005	-5.99601E-002	6.12209E-001	3.57890E+000	9	...........
	22	0.306667	6.01205E-001	-9.95136E-005	0.00000E+000	-5.98280E-005	-5.99601E-002	6.01510E-001	3.57890E+000	9	...........
	23	0.32	5.90523E-001	-9.94115E-005	0.00000E+000	-5.87048E-005	-5.99601E-002	5.90791E-001	3.57890E+000	9	...........
	24	0.333333	5.79839E-001	-9.81831E-005	0.00000E+000	-5.69304E-005	-5.99601E-002	5.80141E-001	3.57890E+000	9	...........
	25	0.346667	5.69214E-001	-9.91510E-005	0.00000E+000	-5.64382E-005	-5.99601E-002	5.69467E-001	3.57890E+000	9	...........
	26	0.36	5.58560E-001	-9.89020E-005	0.00000E+000	-5.52427E-005	-5.99601E-002	5.58830E-001	3.57890E+000	9	...........
	27	0.373333	5.47964E-001	-9.78351E-005	0.00000E+000	-5.36101E-005	-5.99601E-002	5.48229E-001	3.57890E+000	9	...........
	28	0.386667	5.37393E-001	-9.88166E-005	0.00000E+000	-5.31033E-005	-5.99601E-002	5.37649E-001	3.57890E+000	9	...........
	29	0.4	5.26850E-001	-9.79424E-005	0.00000E+000	-5.16009E-005	-5.99601E-002	5.27106E-001	3.57890E+000	9	...........
	30	0.413333	5.16366E-001	-9.95292E-005	0.00000E+000	-5.13935E-005	-5.99601E-002	5.16608E-001	3.57890E+000	9	...........
	31	0.426667	5.05865E-001	-9.89312E-005	0.00000E+000	-5.00458E-005	-5.99601E-002	5.06131E-001	3.57890E+000	9	...........
	32	0.44	4.95466E-001	-9.94219E-005	0.00000E+000	-4.92601E-005	-5.99601E-002	4.95714E-001	3.57890E+000	9	...........
	33	0.453333	4.85247E-001	-9.91937E-005	0.00000E+000	-4.81335E-005	-5.99601E-002	4.85442E-001	3.57890E+000	9	...........
	34	0.466667	4.75140E-001	-9.94531E-005	0.00000E+000	-4.72542E-005	-5.99601E-002	4.75239E-001	3.57890E+000	9	...........
	35	0.48	4.64863E-001	-9.88759E-005	0.00000E+000	-4.59638E-005	-5.99601E-002	4.64958E-001	3.57890E+000	9	...........
	36	0.493333	4.54638E-001	-9.87374E-005	0.00000E+000	-4.48897E-005	-5.99601E-002	4.54738E-001	3.57890E+000	9	...........
	37	0.506667	4.44463E-001	-9.82612E-005	0.00000E+000	-4.36735E-005	-5.99601E-002	4.44559E-001	3.57890E+000	9	...........
	38	0.52	4.34356E-001	-9.90760E-005	0.00000E+000	-4.30343E-005	-5.99601E-002	4.34441E-001	3.57890E+000	9	...........
	39	0.533333	4.24303E-001	-9.94115E-005	0.00000E+000	-4.21806E-005	-5.99601E-002	4.24384E-001	3.57890E+000	9	...........
	40	0.546667	4.14305E-001	-9.88937E-005	0.00000E+000	-4.09722E-005	-5.99601E-002	4.14393E-001	3.57890E+000	9	...........
	41	0.56	4.04368E-001	-9.89249E-005	0.00000E+000	-4.00021E-005	-5.99601E-002	4.04445E-001	3.57890E+000	9	...........
	42	0.573333	3.94489E-001	-9.90614E-005	0.00000E+000	-3.90786E-005	-5.99601E-002	3.94560E-001	3.57890E+000	9	...........
	43	0.586667	3.84666E-001	-9.84915E-005	0.00000E+000	-3.78863E-005	-5.99601E-002	3.84736E-001	3.57890E+000	9	...........
	44	0.6	3.74894E-001	-9.79320E-005	0.00000E+000	-3.67142E-005	-5.99601E-002	3.74967E-001	3.57890E+000	9	...........
	45	0.613333	3.65181E-001	-9.92229E-005	0.00000E+000	-3.62343E-005	-5.99601E-002	3.65254E-001	3.57890E+000	9	...........
	46	0.626667	3.55521E-001	-9.98824E-005	0.00000E+000	-3.55103E-005	-5.99601E-002	3.55584E-001	3.57890E+000	9	...........
	47	0.64	3.45914E-001	-9.94740E-005	0.00000E+000	-3.44095E-005	-5.99601E-002	3.45981E-001	3.57890E+000	9	...........
	48	0.653333	3.36362E-001	-9.82394E-005	0.00000E+000	-3.30439E-005	-5.99601E-002	3.36426E-001	3.57890E+000	9	...........
	49	0.666667	3.26856E-001	-9.87759E-005	0.00000E+000	-3.22856E-005	-5.99601E-002	3.26919E-001	3.57890E+000	9	...........
	50	0.68	3.17403E-001	-9.94594E-005	0.00000E+000	-3.15687E-005	-5.99601E-002	3.17463E-001	3.57890E+000	9	...........
	51	0.693333	3.08001E-001	-9.89155E-005	0.00000E+000	-3.04661E-005	-5.99601E-002	3.08062E-001	3.57890E+000	9	...........
	52	0.706667	2.98644E-001	-9.94854E-005	0.00000E+000	-2.97107E-005	-5.99601E-002	2.98697E-001	3.57890E+000	9	...........
	53	0.72	2.89336E-001	-9.82321E-005	0.00000E+000	-2.84221E-005	-5.99601E-002	2.89393E-001	3.57890E+000	9	...........
	54	0.733333	2.80070E-001	-9.96105E-005	0.00000E+000	-2.78979E-005	-5.99601E-002	2.80119E-001	3.57890E+000	9	...........
	55	0.746667	2.70852E-001	-9.89478E-005	0.00000E+000	-2.68003E-005	-5.99601E-002	2.70903E-001	3.57890E+000	9	...........
	56	0.76	2.61669E-001	-9.84717E-005	0.00000E+000	-2.57670E-005	-5.99601E-002	2.61726E-001	3.57890E+000	9	...........
	57	0.773333	2.52543E-001	-9.89645E-005	0.00000E+000	-2.49928E-005	-5.99601E-002	2.52588E-001	3.57890E+000	9	...........
	58	0.786667	2.43454E-001	-9.87707E-005	0.00000E+000	-2.40461E-005	-5.99601E-002	2.43500E-001	3.57890E+000	9	...........
	59	0.8	2.34409E-001	-9.99137E-005	0.00000E+000	-2.34206E-005	-5.99601E-002	2.34449E-001	3.57890E+000	9	...........
	60	0.813333	2.25406E-001	-9.91552E-005	0.00000E+000	-2.23502E-005	-5.99601E-002	2.25441E-001	3.57890E+000	9	...........
	61	0.826667	2.16448E-001	-9.85790E-005	0.00000E+000	-2.13373E-005	-5.99601E-002	2.16484E-001	3.57890E+000	9	...........
	62	0.84	2.07542E-001	-9.89614E-005	0.00000E+000	-2.05386E-005	-5.99601E-002	2.07573E-001	3.57890E+000	9	...........
	63	0.853333	1.98671E-001	-9.76986E-005	0.00000E+000	-1.94099E-005	-5.99601E-002	1.98706E-001	3.57890E+000	9	...........
	64	0.866667	1.89858E-001	-9.88197E-005	0.00000E+000	-1.87617E-005	-5.99601E-002	1.89892E-001	3.57890E+000	9	...........
	65	0.88	1.81096E-001	-9.91218E-005	0.00000E+000	-1.79506E-005	-5.99601E-002	1.81128E-001	3.57890E+000	9	...........
	66	0.893333	1.72385E-001	-9.85196E-005	0.00000E+000	-1.69833E-005	-5.99601E-002	1.72412E-001	3.57890E+000	9	...........
	67	0.906667	1.63731E-001	-9.84175E-005	0.00000E+000	-1.61140E-005	-5.99601E-002	1.63760E-001	3.57890E+000	9	...........
	68	0.92	1.55140E-001	-9.82133E-005	0.00000E+000	-1.52368E-005	-5.99601E-002	1.55160E-001	3.57890E+000	9	...........
	69	0.933333	1.46608E-001	-9.80893E-005	0.00000E+000	-1.43807E-005	-5.99601E-002	1.46627E-001	3.57890E+000	9	...........
	70	0.946667	1.38135E-001	-9.84613E-005	0.00000E+000	-1.36009E-005	-5.99601E-002	1.38160E-001	3.57890E+000	9	...........
	71	0.96	1.29734E-001	-9.92750E-005	0.00000E+000	-1.28794E-005	-5.99601E-002	1.29754E-001	3.57890E+000	9	...........
	72	0.97333	1.21399E-001	-9.81862E-005	0.00000E+000	-1.19197E-005	-5.99601E-002	1.21418E-001	3.57890E+000	9	...........
	73	0.98667	1.13133E-001	-9.88832E-005	0.00000E+000	-1.11870E-005	-5.99601E-002	1.13148E-001	3.57890E+000	9	...........
	74	1	1.04936E-001	-9.86280E-005	0.00000E+000	-1.03496E-005	-5.99601E-002	1.04950E-001	3.57890E+000	9	...........
	75	1.01333	9.68074E-002	-1.00164E-004	0.00000E+000	-9.69659E-006	-5.99601E-002	9.68234E-002	3.57900E+000	9	...........
	76	1.02667	8.87559E-002	-9.90541E-005	0.00000E+000	-8.79164E-006	-5.99601E-002	8.87675E-002	3.57900E+000	9	...........
	77	1.04	8.07705E-002	-9.90312E-005	0.00000E+000	-7.99880E-006	-5.99601E-002	8.07753E-002	3.57900E+000	9	...........
	78	1.05333	7.28588E-002	-9.82592E-005	0.00000E+000	-7.15904E-006	-5.99601E-002	7.28599E-002	3.57900E+000	9	...........
	79	1.06667	6.50144E-002	-9.86717E-005	0.00000E+000	-6.41508E-006	-5.99601E-002	6.50077E-002	3.57900E+000	9	...........
	80	1.08	5.72349E-002	-9.86749E-005	0.00000E+000	-5.64765E-006	-5.99601E-002	5.72294E-002	3.57900E+000	9	...........
	81	1.09333	4.95306E-002	-9.90864E-005	0.00000E+000	-4.90781E-006	-5.99601E-002	4.95228E-002	3.57900E+000	9	...........
	82	1.10667	4.19133E-002	-9.79914E-005	0.00000E+000	-4.10715E-006	-5.99601E-002	4.19073E-002	3.57900E+000	9	...........
	83	1.12	3.43335E-002	-9.78049E-005	0.00000E+000	-3.35798E-006	-5.99601E-002	3.43171E-002	3.57900E+000	9	...........
	84	1.13333	2.68166E-002	-9.89728E-005	0.00000E+000	-2.65411E-006	-5.99601E-002	2.67967E-002	3.57900E+000	9	...........
	85	1.14667	1.93670E-002	-9.86061E-005	0.00000E+000	-1.90970E-006	-5.99601E-002	1.93444E-002	3.57900E+000	9	...........
	86	1.16	1.19862E-002	-9.83102E-005	0.00000E+000	-1.17837E-006	-5.99601E-002	1.19581E-002	3.57900E+000	9	...........
	87	1.17333	4.66441E-003	-9.86248E-005	0.00000E+000	-4.60026E-007	-5.99601E-002	4.62876E-003	3.57900E+000	9	...........
	88	1.17667	1.10838E-004	-9.98022E-005	0.00000E+000	-1.10619E-008	-5.99601E-002	8.22460E-005	3.57900E+000	9	...........
STARTTIMEOFFSET	QUANT	989.022	Start Time Offset (s)
