EXPLAIN
TAG	PWR800_DISCHARGE
TITLE	LABEL	PWR Cyclic Charge Discharge (Cell) - Discharge Step	Test &Identifier
DATE	LABEL	13-7-2017	Date
TIME	LABEL	15:35:27	Time
NOTES	NOTES	2	&Notes...
	supercap test cell
	6M KOH
PSTAT	PSTAT	IFC5000-01520	Potentiostat
CAPACITY	QUANT	1.00000E-003	Capacity (A-hr)
CELLTYPE	SELECTOR	1	&Cell Type
WORKINGCONNECTION	SELECTOR	0	&Working Lead
MAXDISCHARGETIME	VARIABLEANDUNITS	1.00000E+002	s	1.00000E+002	second(s)	Max &Discharge Time
DISCHARGEMODE	MULTIPARAM	0	1.00000E-004	&Discharge Mode	Constant Current	Amp(s)
SAMPLETIME	QUANT	1.00000E-002	Sa&mple Period (s)
DISCHARGESTOPAT1	MULTIPARAM	3	0.00000E+000	Discharge Stop At &1	Voltage < Limit	V
DISCHARGESTOPAT2	MULTIPARAM	0	0.00000E+000	Discharge Stop At &2	None	N/A
AESBHCSELECTOR	TOGGLE	F	Save Both Half Cells
IRCOMP	TOGGLE	F	IR &Measure
EOC	QUANT	0	Open Circuit (V)
SEQUENCER	TOGGLE	TRUE	Run as Sequence
PSTATMODEL	IQUANT	53	Pstat Model
PSTATSECTION	LABEL	IFC5000-01520	Pstat Section
PSTATSERIALNO	LABEL	01520	Pstat Serial Number
CTRLMODE	IQUANT	0	Control Mode
ELECTROMETER	IQUANT	1	RE=0 or CS=1
IESTAB	IQUANT	0	I/E Stability
CASPEED	IQUANT	4	Control Amp Speed
CONVENTION	IQUANT	1	Current Convention
ICHRANGE	IQUANT	2	Ich Range
ICHRANGEMODE	TOGGLE	T	Ich Auto Range
ICHOFFSETENABLE	TOGGLE	F	Ich Offset Enable
ICHOFFSET	QUANT	0	Ich Offset (V)
ICHFILTER	IQUANT	1	Ich Filter
VCHRANGE	IQUANT	2	Vch Range
VCHRANGEMODE	TOGGLE	T	Vch Auto Range
VCHOFFSETENABLE	TOGGLE	F	Vch Offset Enable
VCHOFFSET	QUANT	0	Vch Offset (V)
VCHFILTER	IQUANT	1	Vch Filter
IERANGELOWERLIMIT	IQUANT	9	I/E Range Lower Limit
IERANGEMODE	TOGGLE	F	I/E AutoRange
IERANGE	IQUANT	9	I/E Range
ACHSELECT	IQUANT	1	Ach Select
ACHRANGE	IQUANT	2	Ach Range
ACHOFFSETENABLE	TOGGLE	F	Ach Offset Enable
ACHOFFSET	QUANT	0	Ach Offset (V)
ACHFILTER	IQUANT	1	Ach Filter
CABLEID	IQUANT	14	Cable ID
DCCALDATE	LABEL	5-7-2017	DC Calibration Date
ACCALDATE	LABEL	12/3/2015	AC Calibration Date
FRAMEWORKVERSION	QUANT	7.01	Framework Version
INSTRUMENTVERSION	LABEL	4.00	Instrument Version
CURVE	TABLE	87
	Pt	T	Vf	Im	Vu	Pwr	Sig	Ach	Temp	IERange	Over
	#	s	V	A	V	W	V	V	deg C	#	bits
	0	0.013333	8.48870E-001	-9.94875E-005	0.00000E+000	-8.44520E-005	-5.99601E-002	8.49196E-001	3.57850E+000	9	...........
	1	0.026667	8.34744E-001	-9.88072E-005	0.00000E+000	-8.24787E-005	-5.99601E-002	8.35040E-001	3.57850E+000	9	...........
	2	0.04	8.21464E-001	-9.91385E-005	0.00000E+000	-8.14387E-005	-5.99601E-002	8.21756E-001	3.57850E+000	9	...........
	3	0.053333	8.08763E-001	-9.85248E-005	0.00000E+000	-7.96832E-005	-5.99601E-002	8.09035E-001	3.57850E+000	9	...........
	4	0.066667	7.96476E-001	-9.81341E-005	0.00000E+000	-7.81615E-005	-5.99601E-002	7.96745E-001	3.57850E+000	9	...........
	5	0.08	7.84446E-001	-9.91270E-005	0.00000E+000	-7.77598E-005	-5.99601E-002	7.84724E-001	3.57850E+000	9	...........
	6	0.093333	7.72686E-001	-9.88238E-005	0.00000E+000	-7.63598E-005	-5.99601E-002	7.72945E-001	3.57850E+000	9	...........
	7	0.106667	7.61055E-001	-9.81633E-005	0.00000E+000	-7.47077E-005	-5.99601E-002	7.61306E-001	3.57850E+000	9	...........
	8	0.12	7.49555E-001	-9.87155E-005	0.00000E+000	-7.39927E-005	-5.99601E-002	7.49828E-001	3.57850E+000	9	...........
	9	0.133333	7.38141E-001	-9.86592E-005	0.00000E+000	-7.28244E-005	-5.99601E-002	7.38400E-001	3.57850E+000	9	...........
	10	0.146667	7.26819E-001	-9.90624E-005	0.00000E+000	-7.20004E-005	-5.99601E-002	7.27071E-001	3.57850E+000	9	...........
	11	0.16	7.15530E-001	-9.80747E-005	0.00000E+000	-7.01754E-005	-5.99601E-002	7.15809E-001	3.57850E+000	9	...........
	12	0.173333	7.04293E-001	-9.94261E-005	0.00000E+000	-7.00251E-005	-5.99601E-002	7.04584E-001	3.57850E+000	9	...........
	13	0.186667	6.93113E-001	-9.86113E-005	0.00000E+000	-6.83487E-005	-5.99601E-002	6.93405E-001	3.57850E+000	9	...........
	14	0.2	6.81958E-001	-9.86790E-005	0.00000E+000	-6.72950E-005	-5.99601E-002	6.82239E-001	3.57850E+000	9	...........
	15	0.213333	6.70814E-001	-9.76559E-005	0.00000E+000	-6.55090E-005	-5.99601E-002	6.71114E-001	3.57850E+000	9	...........
	16	0.226667	6.59678E-001	-9.87113E-005	0.00000E+000	-6.51177E-005	-5.99601E-002	6.59969E-001	3.57850E+000	9	...........
	17	0.24	6.48584E-001	-9.89166E-005	0.00000E+000	-6.41557E-005	-5.99601E-002	6.48888E-001	3.57850E+000	9	...........
	18	0.253333	6.37506E-001	-9.89530E-005	0.00000E+000	-6.30831E-005	-5.99601E-002	6.37784E-001	3.57850E+000	9	...........
	19	0.266667	6.26460E-001	-9.84154E-005	0.00000E+000	-6.16534E-005	-5.99601E-002	6.26722E-001	3.57850E+000	9	...........
	20	0.28	6.15416E-001	-9.95448E-005	0.00000E+000	-6.12615E-005	-5.99601E-002	6.15686E-001	3.57850E+000	9	...........
	21	0.293333	6.04377E-001	-9.86176E-005	0.00000E+000	-5.96022E-005	-5.99601E-002	6.04663E-001	3.57850E+000	9	...........
	22	0.306667	5.93423E-001	-9.84842E-005	0.00000E+000	-5.84428E-005	-5.99601E-002	5.93671E-001	3.57850E+000	9	...........
	23	0.32	5.82413E-001	-9.88572E-005	0.00000E+000	-5.75757E-005	-5.99601E-002	5.82687E-001	3.57850E+000	9	...........
	24	0.333333	5.71513E-001	-9.91291E-005	0.00000E+000	-5.66535E-005	-5.99601E-002	5.71737E-001	3.57850E+000	9	...........
	25	0.346667	5.60584E-001	-9.85123E-005	0.00000E+000	-5.52244E-005	-5.99601E-002	5.60807E-001	3.57850E+000	9	...........
	26	0.36	5.49735E-001	-9.94469E-005	0.00000E+000	-5.46694E-005	-5.99601E-002	5.49969E-001	3.57850E+000	9	...........
	27	0.373333	5.38881E-001	-9.94375E-005	0.00000E+000	-5.35849E-005	-5.99601E-002	5.39122E-001	3.57850E+000	9	...........
	28	0.386667	5.28085E-001	-9.94990E-005	0.00000E+000	-5.25440E-005	-5.99601E-002	5.28319E-001	3.57850E+000	9	...........
	29	0.4	5.17354E-001	-9.94156E-005	0.00000E+000	-5.14331E-005	-5.99601E-002	5.17563E-001	3.57850E+000	9	...........
	30	0.413333	5.06597E-001	-9.81685E-005	0.00000E+000	-4.97319E-005	-5.99601E-002	5.06856E-001	3.57850E+000	9	...........
	31	0.426667	4.95951E-001	-9.90812E-005	0.00000E+000	-4.91394E-005	-5.99601E-002	4.96194E-001	3.57850E+000	9	...........
	32	0.44	4.85508E-001	-9.83800E-005	0.00000E+000	-4.77643E-005	-5.99601E-002	4.85682E-001	3.57850E+000	9	...........
	33	0.453333	4.75188E-001	-9.94313E-005	0.00000E+000	-4.72485E-005	-5.99601E-002	4.75283E-001	3.57850E+000	9	...........
	34	0.466667	4.64699E-001	-9.84936E-005	0.00000E+000	-4.57699E-005	-5.99601E-002	4.64794E-001	3.57850E+000	9	...........
	35	0.48	4.54269E-001	-9.86696E-005	0.00000E+000	-4.48226E-005	-5.99601E-002	4.54359E-001	3.57850E+000	9	...........
	36	0.493333	4.43893E-001	-9.87811E-005	0.00000E+000	-4.38483E-005	-5.99601E-002	4.43991E-001	3.57850E+000	9	...........
	37	0.506667	4.33585E-001	-9.88249E-005	0.00000E+000	-4.28489E-005	-5.99601E-002	4.33677E-001	3.57850E+000	9	...........
	38	0.52	4.23341E-001	-9.93323E-005	0.00000E+000	-4.20514E-005	-5.99601E-002	4.23429E-001	3.57850E+000	9	...........
	39	0.533333	4.13159E-001	-9.92708E-005	0.00000E+000	-4.10146E-005	-5.99601E-002	4.13244E-001	3.57850E+000	9	...........
	40	0.546667	4.03046E-001	-9.87707E-005	0.00000E+000	-3.98092E-005	-5.99601E-002	4.03122E-001	3.57850E+000	9	...........
	41	0.56	3.92996E-001	-9.94334E-005	0.00000E+000	-3.90769E-005	-5.99601E-002	3.93069E-001	3.57850E+000	9	...........
	42	0.573333	3.83010E-001	-9.98699E-005	0.00000E+000	-3.82511E-005	-5.99601E-002	3.83084E-001	3.57850E+000	9	...........
	43	0.586667	3.73090E-001	-9.76684E-005	0.00000E+000	-3.64391E-005	-5.99601E-002	3.73158E-001	3.57850E+000	9	...........
	44	0.6	3.63223E-001	-9.87270E-005	0.00000E+000	-3.58599E-005	-5.99601E-002	3.63292E-001	3.57850E+000	9	...........
	45	0.613333	3.53420E-001	-9.87634E-005	0.00000E+000	-3.49050E-005	-5.99601E-002	3.53479E-001	3.57850E+000	9	...........
	46	0.626667	3.43676E-001	-9.88322E-005	0.00000E+000	-3.39662E-005	-5.99601E-002	3.43739E-001	3.57850E+000	9	...........
	47	0.64	3.33989E-001	-9.91208E-005	0.00000E+000	-3.31052E-005	-5.99601E-002	3.34052E-001	3.57850E+000	9	...........
	48	0.653333	3.24362E-001	-9.87061E-005	0.00000E+000	-3.20166E-005	-5.99601E-002	3.24423E-001	3.57850E+000	9	...........
	49	0.666667	3.14781E-001	-9.87509E-005	0.00000E+000	-3.10849E-005	-5.99601E-002	3.14839E-001	3.57850E+000	9	...........
	50	0.68	3.05248E-001	-9.85623E-005	0.00000E+000	-3.00860E-005	-5.99601E-002	3.05307E-001	3.57850E+000	9	...........
	51	0.693333	2.95774E-001	-9.89322E-005	0.00000E+000	-2.92616E-005	-5.99601E-002	2.95827E-001	3.57850E+000	9	...........
	52	0.706667	2.86347E-001	-9.88634E-005	0.00000E+000	-2.83093E-005	-5.99601E-002	2.86403E-001	3.57850E+000	9	...........
	53	0.72	2.76969E-001	-9.90656E-005	0.00000E+000	-2.74381E-005	-5.99601E-002	2.77019E-001	3.57850E+000	9	...........
	54	0.733333	2.67638E-001	-9.82404E-005	0.00000E+000	-2.62929E-005	-5.99601E-002	2.67693E-001	3.57850E+000	9	...........
	55	0.746667	2.58357E-001	-9.91250E-005	0.00000E+000	-2.56097E-005	-5.99601E-002	2.58403E-001	3.57850E+000	9	...........
	56	0.76	2.49126E-001	-9.88093E-005	0.00000E+000	-2.46160E-005	-5.99601E-002	2.49168E-001	3.57850E+000	9	...........
	57	0.773333	2.39938E-001	-9.86311E-005	0.00000E+000	-2.36654E-005	-5.99601E-002	2.39974E-001	3.57850E+000	9	...........
	58	0.786667	2.30798E-001	-9.87905E-005	0.00000E+000	-2.28007E-005	-5.99601E-002	2.30834E-001	3.57850E+000	9	...........
	59	0.8	2.21700E-001	-9.92354E-005	0.00000E+000	-2.20005E-005	-5.99601E-002	2.21743E-001	3.57850E+000	9	...........
	60	0.813333	2.12664E-001	-9.88384E-005	0.00000E+000	-2.10194E-005	-5.99601E-002	2.12699E-001	3.57850E+000	9	...........
	61	0.826667	2.03668E-001	-9.82091E-005	0.00000E+000	-2.00021E-005	-5.99601E-002	2.03709E-001	3.57850E+000	9	...........
	62	0.84	1.94734E-001	-9.86530E-005	0.00000E+000	-1.92111E-005	-5.99601E-002	1.94762E-001	3.57850E+000	9	...........
	63	0.853333	1.85852E-001	-9.83227E-005	0.00000E+000	-1.82734E-005	-5.99601E-002	1.85879E-001	3.57850E+000	9	...........
	64	0.866667	1.77021E-001	-9.83956E-005	0.00000E+000	-1.74181E-005	-5.99601E-002	1.77052E-001	3.57850E+000	9	...........
	65	0.88	1.68264E-001	-9.86728E-005	0.00000E+000	-1.66030E-005	-5.99601E-002	1.68285E-001	3.57850E+000	9	...........
	66	0.893333	1.59562E-001	-9.87968E-005	0.00000E+000	-1.57642E-005	-5.99601E-002	1.59581E-001	3.57850E+000	9	...........
	67	0.906667	1.50924E-001	-9.91239E-005	0.00000E+000	-1.49602E-005	-5.99601E-002	1.50945E-001	3.57850E+000	9	...........
	68	0.92	1.42350E-001	-9.94011E-005	0.00000E+000	-1.41497E-005	-5.99601E-002	1.42371E-001	3.57850E+000	9	...........
	69	0.933333	1.33850E-001	-9.93385E-005	0.00000E+000	-1.32964E-005	-5.99601E-002	1.33864E-001	3.57850E+000	9	...........
	70	0.946667	1.25418E-001	-9.85790E-005	0.00000E+000	-1.23636E-005	-5.99601E-002	1.25432E-001	3.57933E+000	9	...........
	71	0.96	1.17063E-001	-9.85196E-005	0.00000E+000	-1.15330E-005	-5.99601E-002	1.17079E-001	3.58000E+000	9	...........
	72	0.97333	1.08775E-001	-9.81727E-005	0.00000E+000	-1.06787E-005	-5.99601E-002	1.08791E-001	3.58000E+000	9	...........
	73	0.98667	1.00568E-001	-9.87790E-005	0.00000E+000	-9.93400E-006	-5.99601E-002	1.00576E-001	3.58000E+000	9	...........
	74	1	9.24317E-002	-9.92114E-005	0.00000E+000	-9.17029E-006	-5.99601E-002	9.24399E-002	3.58000E+000	9	...........
	75	1.01333	8.43692E-002	-9.89833E-005	0.00000E+000	-8.35114E-006	-5.99601E-002	8.43799E-002	3.58000E+000	9	...........
	76	1.02667	7.63867E-002	-9.88614E-005	0.00000E+000	-7.55169E-006	-5.99601E-002	7.63857E-002	3.58000E+000	9	...........
	77	1.04	6.84660E-002	-9.87488E-005	0.00000E+000	-6.76093E-006	-5.99601E-002	6.84649E-002	3.58000E+000	9	...........
	78	1.05333	6.06228E-002	-9.87728E-005	0.00000E+000	-5.98788E-006	-5.99601E-002	6.06181E-002	3.58000E+000	9	...........
	79	1.06667	5.28458E-002	-9.89572E-005	0.00000E+000	-5.22947E-006	-5.99601E-002	5.28380E-002	3.58000E+000	9	...........
	80	1.08	4.51689E-002	-9.73485E-005	0.00000E+000	-4.39712E-006	-5.99601E-002	4.51645E-002	3.58000E+000	9	...........
	81	1.09333	3.75387E-002	-9.82362E-005	0.00000E+000	-3.68766E-006	-5.99601E-002	3.75252E-002	3.58000E+000	9	...........
	82	1.10667	2.99612E-002	-9.86769E-005	0.00000E+000	-2.95648E-006	-5.99601E-002	2.99463E-002	3.58000E+000	9	...........
	83	1.12	2.24558E-002	-9.87665E-005	0.00000E+000	-2.21788E-006	-5.99601E-002	2.24388E-002	3.58000E+000	9	...........
	84	1.13333	1.50225E-002	-9.86342E-005	0.00000E+000	-1.48173E-006	-5.99601E-002	1.49949E-002	3.58000E+000	9	...........
	85	1.14667	7.64468E-003	-9.89864E-005	0.00000E+000	-7.56719E-007	-5.99601E-002	7.61534E-003	3.58000E+000	9	...........
	86	1.155	1.69964E-003	-9.87553E-005	0.00000E+000	-1.67848E-007	-5.99601E-002	1.66389E-003	3.58000E+000	9	...........
STARTTIMEOFFSET	QUANT	1511.95	Start Time Offset (s)
