EXPLAIN
TAG	PWR800_DISCHARGE
TITLE	LABEL	PWR Cyclic Charge Discharge (Cell) - Discharge Step	Test &Identifier
DATE	LABEL	13-7-2017	Date
TIME	LABEL	15:18:14	Time
NOTES	NOTES	2	&Notes...
	supercap test cell
	6M KOH
PSTAT	PSTAT	IFC5000-01520	Potentiostat
CAPACITY	QUANT	1.00000E-003	Capacity (A-hr)
CELLTYPE	SELECTOR	1	&Cell Type
WORKINGCONNECTION	SELECTOR	0	&Working Lead
MAXDISCHARGETIME	VARIABLEANDUNITS	1.00000E+002	s	1.00000E+002	second(s)	Max &Discharge Time
DISCHARGEMODE	MULTIPARAM	0	1.00000E-004	&Discharge Mode	Constant Current	Amp(s)
SAMPLETIME	QUANT	1.00000E-002	Sa&mple Period (s)
DISCHARGESTOPAT1	MULTIPARAM	3	0.00000E+000	Discharge Stop At &1	Voltage < Limit	V
DISCHARGESTOPAT2	MULTIPARAM	0	0.00000E+000	Discharge Stop At &2	None	N/A
AESBHCSELECTOR	TOGGLE	F	Save Both Half Cells
IRCOMP	TOGGLE	F	IR &Measure
EOC	QUANT	0	Open Circuit (V)
SEQUENCER	TOGGLE	TRUE	Run as Sequence
PSTATMODEL	IQUANT	53	Pstat Model
PSTATSECTION	LABEL	IFC5000-01520	Pstat Section
PSTATSERIALNO	LABEL	01520	Pstat Serial Number
CTRLMODE	IQUANT	0	Control Mode
ELECTROMETER	IQUANT	1	RE=0 or CS=1
IESTAB	IQUANT	0	I/E Stability
CASPEED	IQUANT	4	Control Amp Speed
CONVENTION	IQUANT	1	Current Convention
ICHRANGE	IQUANT	2	Ich Range
ICHRANGEMODE	TOGGLE	T	Ich Auto Range
ICHOFFSETENABLE	TOGGLE	F	Ich Offset Enable
ICHOFFSET	QUANT	0	Ich Offset (V)
ICHFILTER	IQUANT	1	Ich Filter
VCHRANGE	IQUANT	2	Vch Range
VCHRANGEMODE	TOGGLE	T	Vch Auto Range
VCHOFFSETENABLE	TOGGLE	F	Vch Offset Enable
VCHOFFSET	QUANT	0	Vch Offset (V)
VCHFILTER	IQUANT	1	Vch Filter
IERANGELOWERLIMIT	IQUANT	9	I/E Range Lower Limit
IERANGEMODE	TOGGLE	F	I/E AutoRange
IERANGE	IQUANT	9	I/E Range
ACHSELECT	IQUANT	1	Ach Select
ACHRANGE	IQUANT	2	Ach Range
ACHOFFSETENABLE	TOGGLE	F	Ach Offset Enable
ACHOFFSET	QUANT	0	Ach Offset (V)
ACHFILTER	IQUANT	1	Ach Filter
CABLEID	IQUANT	14	Cable ID
DCCALDATE	LABEL	5-7-2017	DC Calibration Date
ACCALDATE	LABEL	12/3/2015	AC Calibration Date
FRAMEWORKVERSION	QUANT	7.01	Framework Version
INSTRUMENTVERSION	LABEL	4.00	Instrument Version
CURVE	TABLE	90
	Pt	T	Vf	Im	Vu	Pwr	Sig	Ach	Temp	IERange	Over
	#	s	V	A	V	W	V	V	deg C	#	bits
	0	0.013333	8.51214E-001	-9.89239E-005	0.00000E+000	-8.42053E-005	-5.99601E-002	8.51581E-001	3.57900E+000	9	...........
	1	0.026667	8.37588E-001	-9.89999E-005	0.00000E+000	-8.29212E-005	-5.99601E-002	8.37936E-001	3.57900E+000	9	...........
	2	0.04	8.24826E-001	-9.81216E-005	0.00000E+000	-8.09333E-005	-5.99601E-002	8.25127E-001	3.57900E+000	9	...........
	3	0.053333	8.12622E-001	-9.80664E-005	0.00000E+000	-7.96909E-005	-5.99601E-002	8.12918E-001	3.57900E+000	9	...........
	4	0.066667	8.00829E-001	-9.92562E-005	0.00000E+000	-7.94872E-005	-5.99601E-002	8.01127E-001	3.57900E+000	9	...........
	5	0.08	7.89306E-001	-9.83269E-005	0.00000E+000	-7.76099E-005	-5.99601E-002	7.89581E-001	3.57900E+000	9	...........
	6	0.093333	7.78008E-001	-9.90260E-005	0.00000E+000	-7.70430E-005	-5.99601E-002	7.78289E-001	3.57900E+000	9	...........
	7	0.106667	7.66862E-001	-9.90739E-005	0.00000E+000	-7.59760E-005	-5.99601E-002	7.67126E-001	3.57900E+000	9	...........
	8	0.12	7.55870E-001	-9.84196E-005	0.00000E+000	-7.43924E-005	-5.99601E-002	7.56140E-001	3.57900E+000	9	...........
	9	0.133333	7.44971E-001	-9.94636E-005	0.00000E+000	-7.40974E-005	-5.99601E-002	7.45213E-001	3.57900E+000	9	...........
	10	0.146667	7.34130E-001	-9.89739E-005	0.00000E+000	-7.26597E-005	-5.99601E-002	7.34376E-001	3.57900E+000	9	...........
	11	0.16	7.23380E-001	-9.89541E-005	0.00000E+000	-7.15814E-005	-5.99601E-002	7.23608E-001	3.57900E+000	9	...........
	12	0.173333	7.12622E-001	-9.95157E-005	0.00000E+000	-7.09171E-005	-5.99601E-002	7.12893E-001	3.57900E+000	9	...........
	13	0.186667	7.01962E-001	-9.88634E-005	0.00000E+000	-6.93984E-005	-5.99601E-002	7.02209E-001	3.57900E+000	9	...........
	14	0.2	6.91304E-001	-9.77893E-005	0.00000E+000	-6.76022E-005	-5.99601E-002	6.91558E-001	3.57900E+000	9	...........
	15	0.213333	6.80681E-001	-9.82571E-005	0.00000E+000	-6.68817E-005	-5.99601E-002	6.80932E-001	3.57900E+000	9	...........
	16	0.226667	6.70059E-001	-9.84873E-005	0.00000E+000	-6.59923E-005	-5.99601E-002	6.70329E-001	3.57900E+000	9	...........
	17	0.24	6.59446E-001	-9.89822E-005	0.00000E+000	-6.52735E-005	-5.99601E-002	6.59707E-001	3.57900E+000	9	...........
	18	0.253333	6.48829E-001	-9.94979E-005	0.00000E+000	-6.45571E-005	-5.99601E-002	6.49116E-001	3.57900E+000	9	...........
	19	0.266667	6.38259E-001	-9.92375E-005	0.00000E+000	-6.33392E-005	-5.99601E-002	6.38554E-001	3.57900E+000	9	...........
	20	0.28	6.27706E-001	-9.86947E-005	0.00000E+000	-6.19512E-005	-5.99601E-002	6.27983E-001	3.57900E+000	9	...........
	21	0.293333	6.17159E-001	-9.91437E-005	0.00000E+000	-6.11875E-005	-5.99601E-002	6.17436E-001	3.57900E+000	9	...........
	22	0.306667	6.06567E-001	-9.90145E-005	0.00000E+000	-6.00589E-005	-5.99601E-002	6.06908E-001	3.57900E+000	9	...........
	23	0.32	5.96068E-001	-9.90760E-005	0.00000E+000	-5.90560E-005	-5.99601E-002	5.96373E-001	3.57900E+000	9	...........
	24	0.333333	5.85545E-001	-9.88759E-005	0.00000E+000	-5.78963E-005	-5.99601E-002	5.85846E-001	3.57900E+000	9	...........
	25	0.346667	5.75068E-001	-9.96344E-005	0.00000E+000	-5.72965E-005	-5.99601E-002	5.75347E-001	3.57900E+000	9	...........
	26	0.36	5.64616E-001	-9.90958E-005	0.00000E+000	-5.59511E-005	-5.99601E-002	5.64886E-001	3.57900E+000	9	...........
	27	0.373333	5.54132E-001	-9.89926E-005	0.00000E+000	-5.48550E-005	-5.99601E-002	5.54429E-001	3.57900E+000	9	...........
	28	0.386667	5.43711E-001	-9.98605E-005	0.00000E+000	-5.42953E-005	-5.99601E-002	5.43995E-001	3.57900E+000	9	...........
	29	0.4	5.33311E-001	-9.82644E-005	0.00000E+000	-5.24055E-005	-5.99601E-002	5.33577E-001	3.57900E+000	9	...........
	30	0.413333	5.22942E-001	-9.94167E-005	0.00000E+000	-5.19892E-005	-5.99601E-002	5.23195E-001	3.57870E+000	9	...........
	31	0.426667	5.12598E-001	-9.91541E-005	0.00000E+000	-5.08262E-005	-5.99601E-002	5.12884E-001	3.57860E+000	9	...........
	32	0.44	5.02275E-001	-9.89603E-005	0.00000E+000	-4.97053E-005	-5.99601E-002	5.02578E-001	3.57860E+000	9	...........
	33	0.453333	4.92026E-001	-9.89624E-005	0.00000E+000	-4.86921E-005	-5.99601E-002	4.92306E-001	3.57860E+000	9	...........
	34	0.466667	4.82082E-001	-9.85311E-005	0.00000E+000	-4.75001E-005	-5.99601E-002	4.82213E-001	3.57860E+000	9	...........
	35	0.48	4.72004E-001	-9.92739E-005	0.00000E+000	-4.68577E-005	-5.99601E-002	4.72111E-001	3.57860E+000	9	...........
	36	0.493333	4.61886E-001	-9.91427E-005	0.00000E+000	-4.57926E-005	-5.99601E-002	4.61985E-001	3.57860E+000	9	...........
	37	0.506667	4.51812E-001	-9.91385E-005	0.00000E+000	-4.47920E-005	-5.99601E-002	4.51907E-001	3.57860E+000	9	...........
	38	0.52	4.41789E-001	-9.87645E-005	0.00000E+000	-4.36330E-005	-5.99601E-002	4.41881E-001	3.57860E+000	9	...........
	39	0.533333	4.31816E-001	-9.89176E-005	0.00000E+000	-4.27142E-005	-5.99601E-002	4.31911E-001	3.57860E+000	9	...........
	40	0.546667	4.21887E-001	-9.94625E-005	0.00000E+000	-4.19620E-005	-5.99601E-002	4.21978E-001	3.57860E+000	9	...........
	41	0.56	4.12018E-001	-9.90020E-005	0.00000E+000	-4.07906E-005	-5.99601E-002	4.12108E-001	3.57860E+000	9	...........
	42	0.573333	4.02203E-001	-9.92375E-005	0.00000E+000	-3.99136E-005	-5.99601E-002	4.02288E-001	3.57860E+000	9	...........
	43	0.586667	3.92436E-001	-9.95896E-005	0.00000E+000	-3.90826E-005	-5.99601E-002	3.92514E-001	3.57860E+000	9	...........
	44	0.6	3.82726E-001	-9.88832E-005	0.00000E+000	-3.78452E-005	-5.99601E-002	3.82802E-001	3.57860E+000	9	...........
	45	0.613333	3.73069E-001	-9.92562E-005	0.00000E+000	-3.70294E-005	-5.99601E-002	3.73139E-001	3.57860E+000	9	...........
	46	0.626667	3.63463E-001	-9.90729E-005	0.00000E+000	-3.60093E-005	-5.99601E-002	3.63536E-001	3.57860E+000	9	...........
	47	0.64	3.53909E-001	-9.92885E-005	0.00000E+000	-3.51391E-005	-5.99601E-002	3.53972E-001	3.57860E+000	9	...........
	48	0.653333	3.44405E-001	-9.82310E-005	0.00000E+000	-3.38312E-005	-5.99601E-002	3.44465E-001	3.57860E+000	9	...........
	49	0.666667	3.34947E-001	-9.89937E-005	0.00000E+000	-3.31576E-005	-5.99601E-002	3.35006E-001	3.57860E+000	9	...........
	50	0.68	3.25541E-001	-9.85603E-005	0.00000E+000	-3.20854E-005	-5.99601E-002	3.25601E-001	3.57860E+000	9	...........
	51	0.693333	3.16177E-001	-9.93781E-005	0.00000E+000	-3.14211E-005	-5.99601E-002	3.16237E-001	3.57860E+000	9	...........
	52	0.706667	3.06864E-001	-9.79299E-005	0.00000E+000	-3.00512E-005	-5.99601E-002	3.06922E-001	3.57860E+000	9	...........
	53	0.72	2.97591E-001	-9.89541E-005	0.00000E+000	-2.94478E-005	-5.99601E-002	2.97645E-001	3.57860E+000	9	...........
	54	0.733333	2.88363E-001	-9.90656E-005	0.00000E+000	-2.85668E-005	-5.99601E-002	2.88422E-001	3.57860E+000	9	...........
	55	0.746667	2.79178E-001	-9.81039E-005	0.00000E+000	-2.73885E-005	-5.99601E-002	2.79233E-001	3.57860E+000	9	...........
	56	0.76	2.70032E-001	-9.97824E-005	0.00000E+000	-2.69444E-005	-5.99601E-002	2.70083E-001	3.57860E+000	9	...........
	57	0.773333	2.60933E-001	-9.92406E-005	0.00000E+000	-2.58951E-005	-5.99601E-002	2.60981E-001	3.57860E+000	9	...........
	58	0.786667	2.51877E-001	-9.83019E-005	0.00000E+000	-2.47599E-005	-5.99601E-002	2.51920E-001	3.57860E+000	9	...........
	59	0.8	2.42859E-001	-9.92573E-005	0.00000E+000	-2.41056E-005	-5.99601E-002	2.42901E-001	3.57860E+000	9	...........
	60	0.813333	2.33881E-001	-9.91791E-005	0.00000E+000	-2.31961E-005	-5.99601E-002	2.33922E-001	3.57860E+000	9	...........
	61	0.826667	2.24941E-001	-9.86832E-005	0.00000E+000	-2.21979E-005	-5.99601E-002	2.24978E-001	3.57860E+000	9	...........
	62	0.84	2.16044E-001	-9.93073E-005	0.00000E+000	-2.14548E-005	-5.99601E-002	2.16079E-001	3.57860E+000	9	...........
	63	0.853333	2.07198E-001	-9.81466E-005	0.00000E+000	-2.03357E-005	-5.99601E-002	2.07229E-001	3.57860E+000	9	...........
	64	0.866667	1.98386E-001	-9.86978E-005	0.00000E+000	-1.95802E-005	-5.99601E-002	1.98423E-001	3.57860E+000	9	...........
	65	0.88	1.89624E-001	-9.87415E-005	0.00000E+000	-1.87237E-005	-5.99601E-002	1.89653E-001	3.57860E+000	9	...........
	66	0.893333	1.80912E-001	-9.85457E-005	0.00000E+000	-1.78281E-005	-5.99601E-002	1.80941E-001	3.57860E+000	9	...........
	67	0.906667	1.72248E-001	-9.77893E-005	0.00000E+000	-1.68440E-005	-5.99601E-002	1.72276E-001	3.57860E+000	9	...........
	68	0.92	1.63646E-001	-9.94834E-005	0.00000E+000	-1.62800E-005	-5.99601E-002	1.63670E-001	3.57860E+000	9	...........
	69	0.933333	1.55097E-001	-9.90614E-005	0.00000E+000	-1.53641E-005	-5.99601E-002	1.55114E-001	3.57860E+000	9	...........
	70	0.946667	1.46602E-001	-9.81758E-005	0.00000E+000	-1.43927E-005	-5.99601E-002	1.46616E-001	3.57860E+000	9	...........
	71	0.96	1.38167E-001	-9.86915E-005	0.00000E+000	-1.36359E-005	-5.99601E-002	1.38184E-001	3.57860E+000	9	...........
	72	0.97333	1.29800E-001	-9.89999E-005	0.00000E+000	-1.28502E-005	-5.99601E-002	1.29811E-001	3.57860E+000	9	...........
	73	0.98667	1.21493E-001	-9.80779E-005	0.00000E+000	-1.19158E-005	-5.99601E-002	1.21507E-001	3.57860E+000	9	...........
	74	1	1.13252E-001	-9.91229E-005	0.00000E+000	-1.12259E-005	-5.99601E-002	1.13262E-001	3.57860E+000	9	...........
	75	1.01333	1.05084E-001	-1.00031E-004	0.00000E+000	-1.05117E-005	-5.99601E-002	1.05094E-001	3.57860E+000	9	...........
	76	1.02667	9.69798E-002	-9.97084E-005	0.00000E+000	-9.66970E-006	-5.99601E-002	9.69897E-002	3.57860E+000	9	...........
	77	1.04	8.89425E-002	-9.91833E-005	0.00000E+000	-8.82161E-006	-5.99601E-002	8.89520E-002	3.57860E+000	9	...........
	78	1.05333	8.09794E-002	-9.87905E-005	0.00000E+000	-8.00000E-006	-5.99601E-002	8.09874E-002	3.57860E+000	9	...........
	79	1.06667	7.30831E-002	-9.93437E-005	0.00000E+000	-7.26035E-006	-5.99601E-002	7.30814E-002	3.57860E+000	9	...........
	80	1.08	6.52504E-002	-9.90770E-005	0.00000E+000	-6.46482E-006	-5.99601E-002	6.52514E-002	3.57860E+000	9	...........
	81	1.09333	5.74831E-002	-9.87426E-005	0.00000E+000	-5.67603E-006	-5.99601E-002	5.74848E-002	3.57860E+000	9	...........
	82	1.10667	4.97959E-002	-9.92052E-005	0.00000E+000	-4.94001E-006	-5.99601E-002	4.97914E-002	3.57860E+000	9	...........
	83	1.12	4.21926E-002	-9.83321E-005	0.00000E+000	-4.14888E-006	-5.99601E-002	4.21846E-002	3.57860E+000	9	...........
	84	1.13333	3.46208E-002	-9.88718E-005	0.00000E+000	-3.42302E-006	-5.99601E-002	3.46091E-002	3.57860E+000	9	...........
	85	1.14667	2.71141E-002	-9.90083E-005	0.00000E+000	-2.68452E-006	-5.99601E-002	2.70935E-002	3.57860E+000	9	...........
	86	1.16	1.96620E-002	-9.95657E-005	0.00000E+000	-1.95766E-006	-5.99601E-002	1.96372E-002	3.57860E+000	9	...........
	87	1.17333	1.22815E-002	-9.80716E-005	0.00000E+000	-1.20447E-006	-5.99601E-002	1.22562E-002	3.57860E+000	9	...........
	88	1.18667	4.96102E-003	-9.93771E-005	0.00000E+000	-4.93012E-007	-5.99601E-002	4.92553E-003	3.57860E+000	9	...........
	89	1.19	4.12320E-004	-9.86728E-005	0.00000E+000	-4.06848E-008	-5.99601E-002	3.80573E-004	3.57860E+000	9	...........
STARTTIMEOFFSET	QUANT	733.9709	Start Time Offset (s)
