EXPLAIN
TAG	PWR800_DISCHARGE
TITLE	LABEL	PWR Cyclic Charge Discharge (Cell) - Discharge Step	Test &Identifier
DATE	LABEL	13-7-2017	Date
TIME	LABEL	15:24:43	Time
NOTES	NOTES	2	&Notes...
	supercap test cell
	6M KOH
PSTAT	PSTAT	IFC5000-01520	Potentiostat
CAPACITY	QUANT	1.00000E-003	Capacity (A-hr)
CELLTYPE	SELECTOR	1	&Cell Type
WORKINGCONNECTION	SELECTOR	0	&Working Lead
MAXDISCHARGETIME	VARIABLEANDUNITS	1.00000E+002	s	1.00000E+002	second(s)	Max &Discharge Time
DISCHARGEMODE	MULTIPARAM	0	1.00000E-004	&Discharge Mode	Constant Current	Amp(s)
SAMPLETIME	QUANT	1.00000E-002	Sa&mple Period (s)
DISCHARGESTOPAT1	MULTIPARAM	3	0.00000E+000	Discharge Stop At &1	Voltage < Limit	V
DISCHARGESTOPAT2	MULTIPARAM	0	0.00000E+000	Discharge Stop At &2	None	N/A
AESBHCSELECTOR	TOGGLE	F	Save Both Half Cells
IRCOMP	TOGGLE	F	IR &Measure
EOC	QUANT	0	Open Circuit (V)
SEQUENCER	TOGGLE	TRUE	Run as Sequence
PSTATMODEL	IQUANT	53	Pstat Model
PSTATSECTION	LABEL	IFC5000-01520	Pstat Section
PSTATSERIALNO	LABEL	01520	Pstat Serial Number
CTRLMODE	IQUANT	0	Control Mode
ELECTROMETER	IQUANT	1	RE=0 or CS=1
IESTAB	IQUANT	0	I/E Stability
CASPEED	IQUANT	4	Control Amp Speed
CONVENTION	IQUANT	1	Current Convention
ICHRANGE	IQUANT	2	Ich Range
ICHRANGEMODE	TOGGLE	T	Ich Auto Range
ICHOFFSETENABLE	TOGGLE	F	Ich Offset Enable
ICHOFFSET	QUANT	0	Ich Offset (V)
ICHFILTER	IQUANT	1	Ich Filter
VCHRANGE	IQUANT	2	Vch Range
VCHRANGEMODE	TOGGLE	T	Vch Auto Range
VCHOFFSETENABLE	TOGGLE	F	Vch Offset Enable
VCHOFFSET	QUANT	0	Vch Offset (V)
VCHFILTER	IQUANT	1	Vch Filter
IERANGELOWERLIMIT	IQUANT	9	I/E Range Lower Limit
IERANGEMODE	TOGGLE	F	I/E AutoRange
IERANGE	IQUANT	9	I/E Range
ACHSELECT	IQUANT	1	Ach Select
ACHRANGE	IQUANT	2	Ach Range
ACHOFFSETENABLE	TOGGLE	F	Ach Offset Enable
ACHOFFSET	QUANT	0	Ach Offset (V)
ACHFILTER	IQUANT	1	Ach Filter
CABLEID	IQUANT	14	Cable ID
DCCALDATE	LABEL	5-7-2017	DC Calibration Date
ACCALDATE	LABEL	12/3/2015	AC Calibration Date
FRAMEWORKVERSION	QUANT	7.01	Framework Version
INSTRUMENTVERSION	LABEL	4.00	Instrument Version
CURVE	TABLE	89
	Pt	T	Vf	Im	Vu	Pwr	Sig	Ach	Temp	IERange	Over
	#	s	V	A	V	W	V	V	deg C	#	bits
	0	0.013333	8.49897E-001	-9.89728E-005	0.00000E+000	-8.41167E-005	-5.99601E-002	8.50204E-001	3.58000E+000	9	...........
	1	0.026667	8.36033E-001	-9.86686E-005	0.00000E+000	-8.24902E-005	-5.99601E-002	8.36342E-001	3.58000E+000	9	...........
	2	0.04	8.23067E-001	-9.88134E-005	0.00000E+000	-8.13301E-005	-5.99601E-002	8.23362E-001	3.58000E+000	9	...........
	3	0.053333	8.10625E-001	-9.90270E-005	0.00000E+000	-8.02738E-005	-5.99601E-002	8.10926E-001	3.58000E+000	9	...........
	4	0.066667	7.98633E-001	-9.80935E-005	0.00000E+000	-7.83407E-005	-5.99601E-002	7.98911E-001	3.58000E+000	9	...........
	5	0.08	7.86877E-001	-9.93323E-005	0.00000E+000	-7.81623E-005	-5.99601E-002	7.87177E-001	3.58000E+000	9	...........
	6	0.093333	7.75388E-001	-9.90583E-005	0.00000E+000	-7.68086E-005	-5.99601E-002	7.75680E-001	3.58000E+000	9	...........
	7	0.106667	7.64059E-001	-9.87145E-005	0.00000E+000	-7.54236E-005	-5.99601E-002	7.64324E-001	3.57932E+000	9	...........
	8	0.12	7.52835E-001	-9.92635E-005	0.00000E+000	-7.47290E-005	-5.99601E-002	7.53124E-001	3.57910E+000	9	...........
	9	0.133333	7.41711E-001	-9.82508E-005	0.00000E+000	-7.28737E-005	-5.99601E-002	7.42010E-001	3.57910E+000	9	...........
	10	0.146667	7.30676E-001	-9.88301E-005	0.00000E+000	-7.22128E-005	-5.99601E-002	7.30976E-001	3.57910E+000	9	...........
	11	0.16	7.19707E-001	-9.84946E-005	0.00000E+000	-7.08873E-005	-5.99601E-002	7.19989E-001	3.57910E+000	9	...........
	12	0.173333	7.08732E-001	-9.95302E-005	0.00000E+000	-7.05403E-005	-5.99601E-002	7.09015E-001	3.57910E+000	9	...........
	13	0.186667	6.97836E-001	-9.86332E-005	0.00000E+000	-6.88297E-005	-5.99601E-002	6.98108E-001	3.57910E+000	9	...........
	14	0.2	6.86970E-001	-9.92781E-005	0.00000E+000	-6.82011E-005	-5.99601E-002	6.87244E-001	3.57910E+000	9	...........
	15	0.213333	6.76121E-001	-9.87832E-005	0.00000E+000	-6.67894E-005	-5.99601E-002	6.76403E-001	3.57910E+000	9	...........
	16	0.226667	6.65279E-001	-9.82842E-005	0.00000E+000	-6.53863E-005	-5.99601E-002	6.65580E-001	3.57910E+000	9	...........
	17	0.24	6.54465E-001	-9.89968E-005	0.00000E+000	-6.47899E-005	-5.99601E-002	6.54758E-001	3.57910E+000	9	...........
	18	0.253333	6.43671E-001	-9.95886E-005	0.00000E+000	-6.41022E-005	-5.99601E-002	6.43943E-001	3.57910E+000	9	...........
	19	0.266667	6.32867E-001	-9.84957E-005	0.00000E+000	-6.23346E-005	-5.99601E-002	6.33159E-001	3.57910E+000	9	...........
	20	0.28	6.22129E-001	-9.91552E-005	0.00000E+000	-6.16873E-005	-5.99601E-002	6.22392E-001	3.57910E+000	9	...........
	21	0.293333	6.11331E-001	-9.84206E-005	0.00000E+000	-6.01676E-005	-5.99601E-002	6.11624E-001	3.57910E+000	9	...........
	22	0.306667	6.00585E-001	-9.78955E-005	0.00000E+000	-5.87946E-005	-5.99601E-002	6.00891E-001	3.57910E+000	9	...........
	23	0.32	5.89864E-001	-9.87134E-005	0.00000E+000	-5.82275E-005	-5.99601E-002	5.90156E-001	3.57910E+000	9	...........
	24	0.333333	5.79162E-001	-9.91072E-005	0.00000E+000	-5.73991E-005	-5.99601E-002	5.79438E-001	3.57910E+000	9	...........
	25	0.346667	5.68513E-001	-9.91010E-005	0.00000E+000	-5.63402E-005	-5.99601E-002	5.68771E-001	3.57910E+000	9	...........
	26	0.36	5.57830E-001	-9.83196E-005	0.00000E+000	-5.48456E-005	-5.99601E-002	5.58090E-001	3.57910E+000	9	...........
	27	0.373333	5.47222E-001	-9.88238E-005	0.00000E+000	-5.40786E-005	-5.99601E-002	5.47462E-001	3.57910E+000	9	...........
	28	0.386667	5.36616E-001	-9.89801E-005	0.00000E+000	-5.31143E-005	-5.99601E-002	5.36861E-001	3.57910E+000	9	...........
	29	0.4	5.26052E-001	-9.92396E-005	0.00000E+000	-5.22052E-005	-5.99601E-002	5.26294E-001	3.57910E+000	9	...........
	30	0.413333	5.15544E-001	-9.90645E-005	0.00000E+000	-5.10722E-005	-5.99601E-002	5.15763E-001	3.57910E+000	9	...........
	31	0.426667	5.05013E-001	-9.87540E-005	0.00000E+000	-4.98721E-005	-5.99601E-002	5.05280E-001	3.57910E+000	9	...........
	32	0.44	4.94600E-001	-9.92000E-005	0.00000E+000	-4.90644E-005	-5.99601E-002	4.94859E-001	3.57910E+000	9	...........
	33	0.453333	4.84399E-001	-9.89978E-005	0.00000E+000	-4.79545E-005	-5.99601E-002	4.84577E-001	3.57910E+000	9	...........
	34	0.466667	4.74231E-001	-9.87332E-005	0.00000E+000	-4.68224E-005	-5.99601E-002	4.74333E-001	3.57910E+000	9	...........
	35	0.48	4.63939E-001	-9.87124E-005	0.00000E+000	-4.57966E-005	-5.99601E-002	4.64037E-001	3.57910E+000	9	...........
	36	0.493333	4.53705E-001	-9.89666E-005	0.00000E+000	-4.49016E-005	-5.99601E-002	4.53801E-001	3.57910E+000	9	...........
	37	0.506667	4.43520E-001	-9.94302E-005	0.00000E+000	-4.40993E-005	-5.99601E-002	4.43612E-001	3.57910E+000	9	...........
	38	0.52	4.33396E-001	-9.86571E-005	0.00000E+000	-4.27576E-005	-5.99601E-002	4.33490E-001	3.57910E+000	9	...........
	39	0.533333	4.23329E-001	-9.84488E-005	0.00000E+000	-4.16763E-005	-5.99601E-002	4.23420E-001	3.57910E+000	9	...........
	40	0.546667	4.13321E-001	-9.92750E-005	0.00000E+000	-4.10325E-005	-5.99601E-002	4.13405E-001	3.57910E+000	9	...........
	41	0.56	4.03372E-001	-9.83696E-005	0.00000E+000	-3.96795E-005	-5.99601E-002	4.03454E-001	3.57910E+000	9	...........
	42	0.573333	3.93480E-001	-9.82519E-005	0.00000E+000	-3.86601E-005	-5.99601E-002	3.93558E-001	3.57910E+000	9	...........
	43	0.586667	3.83639E-001	-9.95302E-005	0.00000E+000	-3.81836E-005	-5.99601E-002	3.83712E-001	3.57910E+000	9	...........
	44	0.6	3.73860E-001	-9.94886E-005	0.00000E+000	-3.71947E-005	-5.99601E-002	3.73932E-001	3.57910E+000	9	...........
	45	0.613333	3.64131E-001	-9.86936E-005	0.00000E+000	-3.59374E-005	-5.99601E-002	3.64203E-001	3.57910E+000	9	...........
	46	0.626667	3.54464E-001	-9.76569E-005	0.00000E+000	-3.46159E-005	-5.99601E-002	3.54535E-001	3.57910E+000	9	...........
	47	0.64	3.44851E-001	-9.80977E-005	0.00000E+000	-3.38290E-005	-5.99601E-002	3.44920E-001	3.57910E+000	9	...........
	48	0.653333	3.35287E-001	-9.82748E-005	0.00000E+000	-3.29502E-005	-5.99601E-002	3.35354E-001	3.57910E+000	9	...........
	49	0.666667	3.25774E-001	-9.88822E-005	0.00000E+000	-3.22132E-005	-5.99601E-002	3.25840E-001	3.57910E+000	9	...........
	50	0.68	3.16318E-001	-9.89530E-005	0.00000E+000	-3.13006E-005	-5.99601E-002	3.16380E-001	3.57910E+000	9	...........
	51	0.693333	3.06901E-001	-9.82383E-005	0.00000E+000	-3.01495E-005	-5.99601E-002	3.06964E-001	3.57910E+000	9	...........
	52	0.706667	2.97533E-001	-9.88468E-005	0.00000E+000	-2.94101E-005	-5.99601E-002	2.97586E-001	3.57910E+000	9	...........
	53	0.72	2.88214E-001	-9.89353E-005	0.00000E+000	-2.85146E-005	-5.99601E-002	2.88269E-001	3.57910E+000	9	...........
	54	0.733333	2.78934E-001	-9.89072E-005	0.00000E+000	-2.75886E-005	-5.99601E-002	2.78994E-001	3.57910E+000	9	...........
	55	0.746667	2.69703E-001	-9.91322E-005	0.00000E+000	-2.67362E-005	-5.99601E-002	2.69762E-001	3.57910E+000	9	...........
	56	0.76	2.60520E-001	-9.87686E-005	0.00000E+000	-2.57312E-005	-5.99601E-002	2.60577E-001	3.57910E+000	9	...........
	57	0.773333	2.51384E-001	-9.92437E-005	0.00000E+000	-2.49483E-005	-5.99601E-002	2.51432E-001	3.57910E+000	9	...........
	58	0.786667	2.42288E-001	-9.88676E-005	0.00000E+000	-2.39544E-005	-5.99601E-002	2.42336E-001	3.57910E+000	9	...........
	59	0.8	2.33238E-001	-9.84873E-005	0.00000E+000	-2.29709E-005	-5.99601E-002	2.33282E-001	3.57910E+000	9	...........
	60	0.813333	2.24234E-001	-9.85248E-005	0.00000E+000	-2.20926E-005	-5.99601E-002	2.24271E-001	3.57910E+000	9	...........
	61	0.826667	2.15266E-001	-9.85196E-005	0.00000E+000	-2.12079E-005	-5.99601E-002	2.15308E-001	3.57910E+000	9	...........
	62	0.84	2.06357E-001	-9.84946E-005	0.00000E+000	-2.03251E-005	-5.99601E-002	2.06388E-001	3.57910E+000	9	...........
	63	0.853333	1.97480E-001	-9.88499E-005	0.00000E+000	-1.95208E-005	-5.99601E-002	1.97518E-001	3.57910E+000	9	...........
	64	0.866667	1.88664E-001	-9.88176E-005	0.00000E+000	-1.86433E-005	-5.99601E-002	1.88695E-001	3.57910E+000	9	...........
	65	0.88	1.79894E-001	-9.95167E-005	0.00000E+000	-1.79025E-005	-5.99601E-002	1.79927E-001	3.57910E+000	9	...........
	66	0.893333	1.71184E-001	-9.88364E-005	0.00000E+000	-1.69192E-005	-5.99601E-002	1.71214E-001	3.57910E+000	9	...........
	67	0.906667	1.62534E-001	-9.87801E-005	0.00000E+000	-1.60552E-005	-5.99601E-002	1.62559E-001	3.57910E+000	9	...........
	68	0.92	1.53942E-001	-9.95688E-005	0.00000E+000	-1.53279E-005	-5.99601E-002	1.53962E-001	3.57910E+000	9	...........
	69	0.933333	1.45413E-001	-9.94875E-005	0.00000E+000	-1.44668E-005	-5.99601E-002	1.45434E-001	3.57910E+000	9	...........
	70	0.946667	1.36945E-001	-9.95886E-005	0.00000E+000	-1.36382E-005	-5.99601E-002	1.36958E-001	3.57910E+000	9	...........
	71	0.96	1.28547E-001	-9.89749E-005	0.00000E+000	-1.27229E-005	-5.99601E-002	1.28559E-001	3.57910E+000	9	...........
	72	0.97333	1.20206E-001	-9.83904E-005	0.00000E+000	-1.18271E-005	-5.99601E-002	1.20223E-001	3.57910E+000	9	...........
	73	0.98667	1.11946E-001	-9.89864E-005	0.00000E+000	-1.10811E-005	-5.99601E-002	1.11961E-001	3.57910E+000	9	...........
	74	1	1.03751E-001	-9.87790E-005	0.00000E+000	-1.02484E-005	-5.99601E-002	1.03759E-001	3.57910E+000	9	...........
	75	1.01333	9.56254E-002	-9.89353E-005	0.00000E+000	-9.46073E-006	-5.99601E-002	9.56358E-002	3.57910E+000	9	...........
	76	1.02667	8.75696E-002	-9.86769E-005	0.00000E+000	-8.64110E-006	-5.99601E-002	8.75821E-002	3.57910E+000	9	...........
	77	1.04	7.95937E-002	-9.86269E-005	0.00000E+000	-7.85008E-006	-5.99601E-002	7.95954E-002	3.57910E+000	9	...........
	78	1.05333	7.16828E-002	-9.84342E-005	0.00000E+000	-7.05603E-006	-5.99601E-002	7.16781E-002	3.57910E+000	9	...........
	79	1.06667	6.38393E-002	-9.86311E-005	0.00000E+000	-6.29655E-006	-5.99601E-002	6.38370E-002	3.57910E+000	9	...........
	80	1.08	5.60675E-002	-9.82800E-005	0.00000E+000	-5.51031E-006	-5.99601E-002	5.60629E-002	3.57910E+000	9	...........
	81	1.09333	4.83809E-002	-9.93521E-005	0.00000E+000	-4.80674E-006	-5.99601E-002	4.83654E-002	3.57910E+000	9	...........
	82	1.10667	4.07602E-002	-9.88791E-005	0.00000E+000	-4.03033E-006	-5.99601E-002	4.07534E-002	3.57947E+000	9	...........
	83	1.12	3.31898E-002	-9.85998E-005	0.00000E+000	-3.27251E-006	-5.99601E-002	3.31766E-002	3.57960E+000	9	...........
	84	1.13333	2.56801E-002	-9.91635E-005	0.00000E+000	-2.54653E-006	-5.99601E-002	2.56626E-002	3.57960E+000	9	...........
	85	1.14667	1.82414E-002	-9.93469E-005	0.00000E+000	-1.81222E-006	-5.99601E-002	1.82168E-002	3.57960E+000	9	...........
	86	1.16	1.08646E-002	-9.92271E-005	0.00000E+000	-1.07806E-006	-5.99601E-002	1.08382E-002	3.57960E+000	9	...........
	87	1.17333	3.54647E-003	-9.91322E-005	0.00000E+000	-3.51570E-007	-5.99601E-002	3.51700E-003	3.57960E+000	9	...........
	88	1.175	-5.38428E-004	-1.01294E-004	0.00000E+000	5.45396E-008	-5.99601E-002	-5.78028E-004	3.57960E+000	9	...........
STARTTIMEOFFSET	QUANT	1027.623	Start Time Offset (s)
