EXPLAIN
TAG	PWR800_DISCHARGE
TITLE	LABEL	PWR Cyclic Charge Discharge (Cell) - Discharge Step	Test &Identifier
DATE	LABEL	13-7-2017	Date
TIME	LABEL	15:48:16	Time
NOTES	NOTES	2	&Notes...
	supercap test cell
	6M KOH
PSTAT	PSTAT	IFC5000-01520	Potentiostat
CAPACITY	QUANT	1.00000E-003	Capacity (A-hr)
CELLTYPE	SELECTOR	1	&Cell Type
WORKINGCONNECTION	SELECTOR	0	&Working Lead
MAXDISCHARGETIME	VARIABLEANDUNITS	1.00000E+002	s	1.00000E+002	second(s)	Max &Discharge Time
DISCHARGEMODE	MULTIPARAM	0	1.00000E-004	&Discharge Mode	Constant Current	Amp(s)
SAMPLETIME	QUANT	1.00000E-002	Sa&mple Period (s)
DISCHARGESTOPAT1	MULTIPARAM	3	0.00000E+000	Discharge Stop At &1	Voltage < Limit	V
DISCHARGESTOPAT2	MULTIPARAM	0	0.00000E+000	Discharge Stop At &2	None	N/A
AESBHCSELECTOR	TOGGLE	F	Save Both Half Cells
IRCOMP	TOGGLE	F	IR &Measure
EOC	QUANT	0	Open Circuit (V)
SEQUENCER	TOGGLE	TRUE	Run as Sequence
PSTATMODEL	IQUANT	53	Pstat Model
PSTATSECTION	LABEL	IFC5000-01520	Pstat Section
PSTATSERIALNO	LABEL	01520	Pstat Serial Number
CTRLMODE	IQUANT	0	Control Mode
ELECTROMETER	IQUANT	1	RE=0 or CS=1
IESTAB	IQUANT	0	I/E Stability
CASPEED	IQUANT	4	Control Amp Speed
CONVENTION	IQUANT	1	Current Convention
ICHRANGE	IQUANT	2	Ich Range
ICHRANGEMODE	TOGGLE	T	Ich Auto Range
ICHOFFSETENABLE	TOGGLE	F	Ich Offset Enable
ICHOFFSET	QUANT	0	Ich Offset (V)
ICHFILTER	IQUANT	1	Ich Filter
VCHRANGE	IQUANT	2	Vch Range
VCHRANGEMODE	TOGGLE	T	Vch Auto Range
VCHOFFSETENABLE	TOGGLE	F	Vch Offset Enable
VCHOFFSET	QUANT	0	Vch Offset (V)
VCHFILTER	IQUANT	1	Vch Filter
IERANGELOWERLIMIT	IQUANT	9	I/E Range Lower Limit
IERANGEMODE	TOGGLE	F	I/E AutoRange
IERANGE	IQUANT	9	I/E Range
ACHSELECT	IQUANT	1	Ach Select
ACHRANGE	IQUANT	2	Ach Range
ACHOFFSETENABLE	TOGGLE	F	Ach Offset Enable
ACHOFFSET	QUANT	0	Ach Offset (V)
ACHFILTER	IQUANT	1	Ach Filter
CABLEID	IQUANT	14	Cable ID
DCCALDATE	LABEL	5-7-2017	DC Calibration Date
ACCALDATE	LABEL	12/3/2015	AC Calibration Date
FRAMEWORKVERSION	QUANT	7.01	Framework Version
INSTRUMENTVERSION	LABEL	4.00	Instrument Version
CURVE	TABLE	86
	Pt	T	Vf	Im	Vu	Pwr	Sig	Ach	Temp	IERange	Over
	#	s	V	A	V	W	V	V	deg C	#	bits
	0	0.013333	8.46948E-001	-9.85446E-005	0.00000E+000	-8.34622E-005	-5.99601E-002	8.47242E-001	3.58000E+000	9	...........
	1	0.026667	8.32719E-001	-9.89426E-005	0.00000E+000	-8.23914E-005	-5.99601E-002	8.33031E-001	3.58000E+000	9	...........
	2	0.04	8.19376E-001	-9.88655E-005	0.00000E+000	-8.10080E-005	-5.99601E-002	8.19648E-001	3.58000E+000	9	...........
	3	0.053333	8.06526E-001	-9.90812E-005	0.00000E+000	-7.99115E-005	-5.99601E-002	8.06830E-001	3.58000E+000	9	...........
	4	0.066667	7.94120E-001	-9.86811E-005	0.00000E+000	-7.83646E-005	-5.99601E-002	7.94397E-001	3.58000E+000	9	...........
	5	0.08	7.81930E-001	-9.83477E-005	0.00000E+000	-7.69011E-005	-5.99601E-002	7.82225E-001	3.58000E+000	9	...........
	6	0.093333	7.69966E-001	-9.93875E-005	0.00000E+000	-7.65250E-005	-5.99601E-002	7.70282E-001	3.58000E+000	9	...........
	7	0.106667	7.58169E-001	-9.84050E-005	0.00000E+000	-7.46076E-005	-5.99601E-002	7.58450E-001	3.58000E+000	9	...........
	8	0.12	7.46467E-001	-9.94917E-005	0.00000E+000	-7.42673E-005	-5.99601E-002	7.46724E-001	3.58000E+000	9	...........
	9	0.133333	7.34838E-001	-9.82050E-005	0.00000E+000	-7.21647E-005	-5.99601E-002	7.35083E-001	3.58000E+000	9	...........
	10	0.146667	7.23307E-001	-9.84363E-005	0.00000E+000	-7.11997E-005	-5.99601E-002	7.23535E-001	3.58000E+000	9	...........
	11	0.16	7.11794E-001	-9.90822E-005	0.00000E+000	-7.05262E-005	-5.99601E-002	7.12016E-001	3.58000E+000	9	...........
	12	0.173333	7.00340E-001	-9.86759E-005	0.00000E+000	-6.91067E-005	-5.99601E-002	7.00555E-001	3.58000E+000	9	...........
	13	0.186667	6.88920E-001	-9.89280E-005	0.00000E+000	-6.81535E-005	-5.99601E-002	6.89152E-001	3.58000E+000	9	...........
	14	0.2	6.77548E-001	-9.93917E-005	0.00000E+000	-6.73426E-005	-5.99601E-002	6.77773E-001	3.58000E+000	9	...........
	15	0.213333	6.66169E-001	-9.98876E-005	0.00000E+000	-6.65420E-005	-5.99601E-002	6.66429E-001	3.58000E+000	9	...........
	16	0.226667	6.54838E-001	-9.91489E-005	0.00000E+000	-6.49265E-005	-5.99601E-002	6.55084E-001	3.58000E+000	9	...........
	17	0.24	6.43518E-001	-9.91906E-005	0.00000E+000	-6.38309E-005	-5.99601E-002	6.43788E-001	3.58000E+000	9	...........
	18	0.253333	6.32195E-001	-9.89958E-005	0.00000E+000	-6.25846E-005	-5.99601E-002	6.32471E-001	3.58000E+000	9	...........
	19	0.266667	6.20923E-001	-9.87895E-005	0.00000E+000	-6.13407E-005	-5.99601E-002	6.21196E-001	3.58000E+000	9	...........
	20	0.28	6.09629E-001	-9.93865E-005	0.00000E+000	-6.05889E-005	-5.99601E-002	6.09931E-001	3.58000E+000	9	...........
	21	0.293333	5.98420E-001	-9.91750E-005	0.00000E+000	-5.93483E-005	-5.99601E-002	5.98730E-001	3.58000E+000	9	...........
	22	0.306667	5.87218E-001	-9.87540E-005	0.00000E+000	-5.79902E-005	-5.99601E-002	5.87510E-001	3.58000E+000	9	...........
	23	0.32	5.76037E-001	-9.93677E-005	0.00000E+000	-5.72395E-005	-5.99601E-002	5.76325E-001	3.58000E+000	9	...........
	24	0.333333	5.64911E-001	-9.90364E-005	0.00000E+000	-5.59468E-005	-5.99601E-002	5.65191E-001	3.58000E+000	9	...........
	25	0.346667	5.53815E-001	-9.87040E-005	0.00000E+000	-5.46638E-005	-5.99601E-002	5.54086E-001	3.58000E+000	9	...........
	26	0.36	5.42757E-001	-9.90333E-005	0.00000E+000	-5.37510E-005	-5.99601E-002	5.43044E-001	3.57974E+000	9	...........
	27	0.373333	5.31730E-001	-9.85894E-005	0.00000E+000	-5.24230E-005	-5.99601E-002	5.31996E-001	3.57930E+000	9	...........
	28	0.386667	5.20781E-001	-9.84519E-005	0.00000E+000	-5.12719E-005	-5.99601E-002	5.21006E-001	3.57930E+000	9	...........
	29	0.4	5.09847E-001	-9.85134E-005	0.00000E+000	-5.02268E-005	-5.99601E-002	5.10071E-001	3.57930E+000	9	...........
	30	0.413333	4.98970E-001	-9.86311E-005	0.00000E+000	-4.92139E-005	-5.99601E-002	4.99174E-001	3.57930E+000	9	...........
	31	0.426667	4.88255E-001	-9.87228E-005	0.00000E+000	-4.82019E-005	-5.99601E-002	4.88440E-001	3.57930E+000	9	...........
	32	0.44	4.77837E-001	-9.92250E-005	0.00000E+000	-4.74133E-005	-5.99601E-002	4.77930E-001	3.57930E+000	9	...........
	33	0.453333	4.67165E-001	-9.91708E-005	0.00000E+000	-4.63292E-005	-5.99601E-002	4.67255E-001	3.57930E+000	9	...........
	34	0.466667	4.56556E-001	-9.94302E-005	0.00000E+000	-4.53955E-005	-5.99601E-002	4.56645E-001	3.57930E+000	9	...........
	35	0.48	4.46019E-001	-9.95948E-005	0.00000E+000	-4.44212E-005	-5.99601E-002	4.46111E-001	3.57930E+000	9	...........
	36	0.493333	4.35547E-001	-9.85998E-005	0.00000E+000	-4.29449E-005	-5.99601E-002	4.35637E-001	3.57930E+000	9	...........
	37	0.506667	4.25148E-001	-9.84644E-005	0.00000E+000	-4.18619E-005	-5.99601E-002	4.25232E-001	3.57930E+000	9	...........
	38	0.52	4.14811E-001	-9.89603E-005	0.00000E+000	-4.10499E-005	-5.99601E-002	4.14896E-001	3.57930E+000	9	...........
	39	0.533333	4.04553E-001	-9.86540E-005	0.00000E+000	-3.99108E-005	-5.99601E-002	4.04632E-001	3.57930E+000	9	...........
	40	0.546667	3.94360E-001	-9.92104E-005	0.00000E+000	-3.91246E-005	-5.99601E-002	3.94431E-001	3.57930E+000	9	...........
	41	0.56	3.84230E-001	-9.97428E-005	0.00000E+000	-3.83241E-005	-5.99601E-002	3.84305E-001	3.57930E+000	9	...........
	42	0.573333	3.74169E-001	-9.92312E-005	0.00000E+000	-3.71292E-005	-5.99601E-002	3.74237E-001	3.57930E+000	9	...........
	43	0.586667	3.64175E-001	-9.93833E-005	0.00000E+000	-3.61929E-005	-5.99601E-002	3.64246E-001	3.57930E+000	9	...........
	44	0.6	3.54251E-001	-9.89739E-005	0.00000E+000	-3.50616E-005	-5.99601E-002	3.54313E-001	3.57930E+000	9	...........
	45	0.613333	3.44393E-001	-9.95511E-005	0.00000E+000	-3.42847E-005	-5.99601E-002	3.44451E-001	3.57930E+000	9	...........
	46	0.626667	3.34591E-001	-9.87811E-005	0.00000E+000	-3.30512E-005	-5.99601E-002	3.34647E-001	3.57930E+000	9	...........
	47	0.64	3.24852E-001	-9.87374E-005	0.00000E+000	-3.20750E-005	-5.99601E-002	3.24911E-001	3.57930E+000	9	...........
	48	0.653333	3.15170E-001	-9.91500E-005	0.00000E+000	-3.12491E-005	-5.99601E-002	3.15229E-001	3.57930E+000	9	...........
	49	0.666667	3.05546E-001	-9.83717E-005	0.00000E+000	-3.00570E-005	-5.99601E-002	3.05603E-001	3.57930E+000	9	...........
	50	0.68	2.95968E-001	-9.85957E-005	0.00000E+000	-2.91812E-005	-5.99601E-002	2.96022E-001	3.57930E+000	9	...........
	51	0.693333	2.86456E-001	-9.77861E-005	0.00000E+000	-2.80114E-005	-5.99601E-002	2.86512E-001	3.57930E+000	9	...........
	52	0.706667	2.77000E-001	-9.79122E-005	0.00000E+000	-2.71217E-005	-5.99601E-002	2.77048E-001	3.57930E+000	9	...........
	53	0.72	2.67589E-001	-9.90999E-005	0.00000E+000	-2.65180E-005	-5.99601E-002	2.67634E-001	3.57930E+000	9	...........
	54	0.733333	2.58229E-001	-9.85707E-005	0.00000E+000	-2.54538E-005	-5.99601E-002	2.58279E-001	3.57930E+000	9	...........
	55	0.746667	2.48921E-001	-9.95688E-005	0.00000E+000	-2.47848E-005	-5.99601E-002	2.48968E-001	3.57930E+000	9	...........
	56	0.76	2.39668E-001	-9.85154E-005	0.00000E+000	-2.36110E-005	-5.99601E-002	2.39709E-001	3.57930E+000	9	...........
	57	0.773333	2.30467E-001	-9.86811E-005	0.00000E+000	-2.27428E-005	-5.99601E-002	2.30503E-001	3.57930E+000	9	...........
	58	0.786667	2.21312E-001	-9.88812E-005	0.00000E+000	-2.18835E-005	-5.99601E-002	2.21349E-001	3.57930E+000	9	...........
	59	0.8	2.12217E-001	-9.91187E-005	0.00000E+000	-2.10347E-005	-5.99601E-002	2.12253E-001	3.57930E+000	9	...........
	60	0.813333	2.03182E-001	-9.95844E-005	0.00000E+000	-2.02337E-005	-5.99601E-002	2.03209E-001	3.57930E+000	9	...........
	61	0.826667	1.94193E-001	-9.95532E-005	0.00000E+000	-1.93325E-005	-5.99601E-002	1.94223E-001	3.57930E+000	9	...........
	62	0.84	1.85273E-001	-9.89801E-005	0.00000E+000	-1.83383E-005	-5.99601E-002	1.85301E-001	3.57930E+000	9	...........
	63	0.853333	1.76409E-001	-9.81695E-005	0.00000E+000	-1.73180E-005	-5.99601E-002	1.76442E-001	3.57930E+000	9	...........
	64	0.866667	1.67624E-001	-9.98782E-005	0.00000E+000	-1.67420E-005	-5.99601E-002	1.67646E-001	3.57930E+000	9	...........
	65	0.88	1.58900E-001	-9.87217E-005	0.00000E+000	-1.56869E-005	-5.99601E-002	1.58920E-001	3.57930E+000	9	...........
	66	0.893333	1.50241E-001	-9.92594E-005	0.00000E+000	-1.49129E-005	-5.99601E-002	1.50264E-001	3.57930E+000	9	...........
	67	0.906667	1.41666E-001	-9.89218E-005	0.00000E+000	-1.40138E-005	-5.99601E-002	1.41682E-001	3.57930E+000	9	...........
	68	0.92	1.33155E-001	-9.96626E-005	0.00000E+000	-1.32705E-005	-5.99601E-002	1.33169E-001	3.57930E+000	9	...........
	69	0.933333	1.24722E-001	-9.99501E-005	0.00000E+000	-1.24659E-005	-5.99601E-002	1.24730E-001	3.57930E+000	9	...........
	70	0.946667	1.16360E-001	-9.85217E-005	0.00000E+000	-1.14640E-005	-5.99601E-002	1.16372E-001	3.57930E+000	9	...........
	71	0.96	1.08072E-001	-9.85915E-005	0.00000E+000	-1.06550E-005	-5.99601E-002	1.08084E-001	3.57930E+000	9	...........
	72	0.97333	9.98635E-002	-9.85967E-005	0.00000E+000	-9.84621E-006	-5.99601E-002	9.98718E-002	3.57930E+000	9	...........
	73	0.98667	9.17276E-002	-9.84852E-005	0.00000E+000	-9.03382E-006	-5.99601E-002	9.17333E-002	3.57930E+000	9	...........
	74	1	8.36652E-002	-9.90624E-005	0.00000E+000	-8.28808E-006	-5.99601E-002	8.36717E-002	3.57930E+000	9	...........
	75	1.01333	7.56837E-002	-9.91531E-005	0.00000E+000	-7.50427E-006	-5.99601E-002	7.56856E-002	3.57930E+000	9	...........
	76	1.02667	6.77727E-002	-9.86457E-005	0.00000E+000	-6.68549E-006	-5.99601E-002	6.77673E-002	3.57930E+000	9	...........
	77	1.04	5.99296E-002	-1.00041E-004	0.00000E+000	-5.99540E-006	-5.99601E-002	5.99291E-002	3.57930E+000	9	...........
	78	1.05333	5.21655E-002	-9.91645E-005	0.00000E+000	-5.17297E-006	-5.99601E-002	5.21597E-002	3.57930E+000	9	...........
	79	1.06667	4.45085E-002	-9.91562E-005	0.00000E+000	-4.41329E-006	-5.99601E-002	4.44937E-002	3.57930E+000	9	...........
	80	1.08	3.68815E-002	-9.87290E-005	0.00000E+000	-3.64127E-006	-5.99601E-002	3.68714E-002	3.57930E+000	9	...........
	81	1.09333	2.93171E-002	-9.89437E-005	0.00000E+000	-2.90074E-006	-5.99601E-002	2.93010E-002	3.57930E+000	9	...........
	82	1.10667	2.18281E-002	-9.82737E-005	0.00000E+000	-2.14513E-006	-5.99601E-002	2.18045E-002	3.57930E+000	9	...........
	83	1.12	1.44035E-002	-9.92187E-005	0.00000E+000	-1.42910E-006	-5.99601E-002	1.43745E-002	3.57930E+000	9	...........
	84	1.13333	7.04362E-003	-9.98355E-005	0.00000E+000	-7.03203E-007	-5.99601E-002	7.01238E-003	3.57930E+000	9	...........
	85	1.14167	1.11281E-003	-1.00036E-004	0.00000E+000	-1.11321E-007	-5.99601E-002	1.08263E-003	3.57930E+000	9	...........
STARTTIMEOFFSET	QUANT	2089.13	Start Time Offset (s)
