EXPLAIN
TAG	PWR800_DISCHARGE
TITLE	LABEL	PWR Cyclic Charge Discharge (Cell) - Discharge Step	Test &Identifier
DATE	LABEL	13-7-2017	Date
TIME	LABEL	15:27:48	Time
NOTES	NOTES	2	&Notes...
	supercap test cell
	6M KOH
PSTAT	PSTAT	IFC5000-01520	Potentiostat
CAPACITY	QUANT	1.00000E-003	Capacity (A-hr)
CELLTYPE	SELECTOR	1	&Cell Type
WORKINGCONNECTION	SELECTOR	0	&Working Lead
MAXDISCHARGETIME	VARIABLEANDUNITS	1.00000E+002	s	1.00000E+002	second(s)	Max &Discharge Time
DISCHARGEMODE	MULTIPARAM	0	1.00000E-004	&Discharge Mode	Constant Current	Amp(s)
SAMPLETIME	QUANT	1.00000E-002	Sa&mple Period (s)
DISCHARGESTOPAT1	MULTIPARAM	3	0.00000E+000	Discharge Stop At &1	Voltage < Limit	V
DISCHARGESTOPAT2	MULTIPARAM	0	0.00000E+000	Discharge Stop At &2	None	N/A
AESBHCSELECTOR	TOGGLE	F	Save Both Half Cells
IRCOMP	TOGGLE	F	IR &Measure
EOC	QUANT	0	Open Circuit (V)
SEQUENCER	TOGGLE	TRUE	Run as Sequence
PSTATMODEL	IQUANT	53	Pstat Model
PSTATSECTION	LABEL	IFC5000-01520	Pstat Section
PSTATSERIALNO	LABEL	01520	Pstat Serial Number
CTRLMODE	IQUANT	0	Control Mode
ELECTROMETER	IQUANT	1	RE=0 or CS=1
IESTAB	IQUANT	0	I/E Stability
CASPEED	IQUANT	4	Control Amp Speed
CONVENTION	IQUANT	1	Current Convention
ICHRANGE	IQUANT	2	Ich Range
ICHRANGEMODE	TOGGLE	T	Ich Auto Range
ICHOFFSETENABLE	TOGGLE	F	Ich Offset Enable
ICHOFFSET	QUANT	0	Ich Offset (V)
ICHFILTER	IQUANT	1	Ich Filter
VCHRANGE	IQUANT	2	Vch Range
VCHRANGEMODE	TOGGLE	T	Vch Auto Range
VCHOFFSETENABLE	TOGGLE	F	Vch Offset Enable
VCHOFFSET	QUANT	0	Vch Offset (V)
VCHFILTER	IQUANT	1	Vch Filter
IERANGELOWERLIMIT	IQUANT	9	I/E Range Lower Limit
IERANGEMODE	TOGGLE	F	I/E AutoRange
IERANGE	IQUANT	9	I/E Range
ACHSELECT	IQUANT	1	Ach Select
ACHRANGE	IQUANT	2	Ach Range
ACHOFFSETENABLE	TOGGLE	F	Ach Offset Enable
ACHOFFSET	QUANT	0	Ach Offset (V)
ACHFILTER	IQUANT	1	Ach Filter
CABLEID	IQUANT	14	Cable ID
DCCALDATE	LABEL	5-7-2017	DC Calibration Date
ACCALDATE	LABEL	12/3/2015	AC Calibration Date
FRAMEWORKVERSION	QUANT	7.01	Framework Version
INSTRUMENTVERSION	LABEL	4.00	Instrument Version
CURVE	TABLE	88
	Pt	T	Vf	Im	Vu	Pwr	Sig	Ach	Temp	IERange	Over
	#	s	V	A	V	W	V	V	deg C	#	bits
	0	0.013333	8.48801E-001	-9.86280E-005	0.00000E+000	-8.37156E-005	-5.99601E-002	8.49169E-001	3.58000E+000	9	...........
	1	0.026667	8.34870E-001	-9.81070E-005	0.00000E+000	-8.19066E-005	-5.99601E-002	8.35230E-001	3.58000E+000	9	...........
	2	0.04	8.21821E-001	-9.81539E-005	0.00000E+000	-8.06650E-005	-5.99601E-002	8.22168E-001	3.58000E+000	9	...........
	3	0.053333	8.09312E-001	-9.82873E-005	0.00000E+000	-7.95451E-005	-5.99601E-002	8.09642E-001	3.58000E+000	9	...........
	4	0.066667	7.97245E-001	-9.89676E-005	0.00000E+000	-7.89014E-005	-5.99601E-002	7.97551E-001	3.58000E+000	9	...........
	5	0.08	7.85415E-001	-9.91823E-005	0.00000E+000	-7.78993E-005	-5.99601E-002	7.85711E-001	3.58000E+000	9	...........
	6	0.093333	7.73815E-001	-9.92708E-005	0.00000E+000	-7.68172E-005	-5.99601E-002	7.74114E-001	3.58000E+000	9	...........
	7	0.106667	7.62389E-001	-9.91906E-005	0.00000E+000	-7.56219E-005	-5.99601E-002	7.62677E-001	3.58000E+000	9	...........
	8	0.12	7.51090E-001	-9.93865E-005	0.00000E+000	-7.46482E-005	-5.99601E-002	7.51376E-001	3.58000E+000	9	...........
	9	0.133333	7.39861E-001	-9.85863E-005	0.00000E+000	-7.29402E-005	-5.99601E-002	7.40140E-001	3.58000E+000	9	...........
	10	0.146667	7.28742E-001	-9.93229E-005	0.00000E+000	-7.23808E-005	-5.99601E-002	7.29006E-001	3.58000E+000	9	...........
	11	0.16	7.17660E-001	-9.98897E-005	0.00000E+000	-7.16869E-005	-5.99601E-002	7.17919E-001	3.57963E+000	9	...........
	12	0.173333	7.06615E-001	-9.80758E-005	0.00000E+000	-6.93018E-005	-5.99601E-002	7.06861E-001	3.57850E+000	9	...........
	13	0.186667	6.95639E-001	-9.88645E-005	0.00000E+000	-6.87739E-005	-5.99601E-002	6.95888E-001	3.57850E+000	9	...........
	14	0.2	6.84679E-001	-9.89249E-005	0.00000E+000	-6.77319E-005	-5.99601E-002	6.84927E-001	3.57850E+000	9	...........
	15	0.213333	6.73740E-001	-9.86947E-005	0.00000E+000	-6.64946E-005	-5.99601E-002	6.74019E-001	3.57850E+000	9	...........
	16	0.226667	6.62799E-001	-9.86144E-005	0.00000E+000	-6.53615E-005	-5.99601E-002	6.63075E-001	3.57850E+000	9	...........
	17	0.24	6.51895E-001	-9.96553E-005	0.00000E+000	-6.49648E-005	-5.99601E-002	6.52172E-001	3.57850E+000	9	...........
	18	0.253333	6.41028E-001	-9.84509E-005	0.00000E+000	-6.31098E-005	-5.99601E-002	6.41296E-001	3.57850E+000	9	...........
	19	0.266667	6.30172E-001	-9.89593E-005	0.00000E+000	-6.23614E-005	-5.99601E-002	6.30374E-001	3.57850E+000	9	...........
	20	0.28	6.19330E-001	-9.81727E-005	0.00000E+000	-6.08013E-005	-5.99601E-002	6.19554E-001	3.57850E+000	9	...........
	21	0.293333	6.08434E-001	-9.84238E-005	0.00000E+000	-5.98843E-005	-5.99601E-002	6.08721E-001	3.57850E+000	9	...........
	22	0.306667	5.97636E-001	-9.90437E-005	0.00000E+000	-5.91921E-005	-5.99601E-002	5.97923E-001	3.57850E+000	9	...........
	23	0.32	5.86840E-001	-9.94261E-005	0.00000E+000	-5.83471E-005	-5.99601E-002	5.87123E-001	3.57850E+000	9	...........
	24	0.333333	5.76047E-001	-9.87197E-005	0.00000E+000	-5.68671E-005	-5.99601E-002	5.76321E-001	3.57850E+000	9	...........
	25	0.346667	5.65303E-001	-9.84509E-005	0.00000E+000	-5.56545E-005	-5.99601E-002	5.65580E-001	3.57850E+000	9	...........
	26	0.36	5.54566E-001	-9.90718E-005	0.00000E+000	-5.49419E-005	-5.99601E-002	5.54822E-001	3.57850E+000	9	...........
	27	0.373333	5.43891E-001	-9.85352E-005	0.00000E+000	-5.35925E-005	-5.99601E-002	5.44141E-001	3.57850E+000	9	...........
	28	0.386667	5.33233E-001	-9.82737E-005	0.00000E+000	-5.24028E-005	-5.99601E-002	5.33474E-001	3.57850E+000	9	...........
	29	0.4	5.22615E-001	-9.92135E-005	0.00000E+000	-5.18504E-005	-5.99601E-002	5.22859E-001	3.57850E+000	9	...........
	30	0.413333	5.12026E-001	-9.84415E-005	0.00000E+000	-5.04046E-005	-5.99601E-002	5.12284E-001	3.57850E+000	9	...........
	31	0.426667	5.01483E-001	-9.86634E-005	0.00000E+000	-4.94780E-005	-5.99601E-002	5.01719E-001	3.57850E+000	9	...........
	32	0.44	4.91032E-001	-9.91260E-005	0.00000E+000	-4.86740E-005	-5.99601E-002	4.91231E-001	3.57850E+000	9	...........
	33	0.453333	4.80894E-001	-9.87655E-005	0.00000E+000	-4.74957E-005	-5.99601E-002	4.80981E-001	3.57850E+000	9	...........
	34	0.466667	4.70559E-001	-9.80549E-005	0.00000E+000	-4.61407E-005	-5.99601E-002	4.70656E-001	3.57850E+000	9	...........
	35	0.48	4.60226E-001	-1.00002E-004	0.00000E+000	-4.60237E-005	-5.99601E-002	4.60318E-001	3.57850E+000	9	...........
	36	0.493333	4.49949E-001	-9.88405E-005	0.00000E+000	-4.44732E-005	-5.99601E-002	4.50048E-001	3.57850E+000	9	...........
	37	0.506667	4.39729E-001	-9.88978E-005	0.00000E+000	-4.34882E-005	-5.99601E-002	4.39825E-001	3.57850E+000	9	...........
	38	0.52	4.29570E-001	-9.86978E-005	0.00000E+000	-4.23976E-005	-5.99601E-002	4.29662E-001	3.57850E+000	9	...........
	39	0.533333	4.19468E-001	-9.88634E-005	0.00000E+000	-4.14701E-005	-5.99601E-002	4.19558E-001	3.57850E+000	9	...........
	40	0.546667	4.09433E-001	-9.83342E-005	0.00000E+000	-4.02612E-005	-5.99601E-002	4.09519E-001	3.57850E+000	9	...........
	41	0.56	3.99458E-001	-9.91468E-005	0.00000E+000	-3.96050E-005	-5.99601E-002	3.99535E-001	3.57850E+000	9	...........
	42	0.573333	3.89534E-001	-9.91052E-005	0.00000E+000	-3.86048E-005	-5.99601E-002	3.89608E-001	3.57850E+000	9	...........
	43	0.586667	3.79675E-001	-9.86280E-005	0.00000E+000	-3.74465E-005	-5.99601E-002	3.79752E-001	3.57850E+000	9	...........
	44	0.6	3.69872E-001	-9.95875E-005	0.00000E+000	-3.68347E-005	-5.99601E-002	3.69950E-001	3.57850E+000	9	...........
	45	0.613333	3.60133E-001	-9.90614E-005	0.00000E+000	-3.56752E-005	-5.99601E-002	3.60198E-001	3.57850E+000	9	...........
	46	0.626667	3.50444E-001	-9.89853E-005	0.00000E+000	-3.46888E-005	-5.99601E-002	3.50507E-001	3.57850E+000	9	...........
	47	0.64	3.40809E-001	-9.94646E-005	0.00000E+000	-3.38984E-005	-5.99601E-002	3.40871E-001	3.57850E+000	9	...........
	48	0.653333	3.31231E-001	-9.88332E-005	0.00000E+000	-3.27366E-005	-5.99601E-002	3.31291E-001	3.57850E+000	9	...........
	49	0.666667	3.21706E-001	-9.88572E-005	0.00000E+000	-3.18029E-005	-5.99601E-002	3.21763E-001	3.57850E+000	9	...........
	50	0.68	3.12225E-001	-9.92583E-005	0.00000E+000	-3.09910E-005	-5.99601E-002	3.12288E-001	3.57850E+000	9	...........
	51	0.693333	3.02797E-001	-9.86874E-005	0.00000E+000	-2.98822E-005	-5.99601E-002	3.02857E-001	3.57850E+000	9	...........
	52	0.706667	2.93422E-001	-9.84581E-005	0.00000E+000	-2.88898E-005	-5.99601E-002	2.93474E-001	3.57850E+000	9	...........
	53	0.72	2.84090E-001	-9.84415E-005	0.00000E+000	-2.79662E-005	-5.99601E-002	2.84142E-001	3.57850E+000	9	...........
	54	0.733333	2.74806E-001	-9.90937E-005	0.00000E+000	-2.72315E-005	-5.99601E-002	2.74857E-001	3.57850E+000	9	...........
	55	0.746667	2.65566E-001	-9.78611E-005	0.00000E+000	-2.59886E-005	-5.99601E-002	2.65619E-001	3.57850E+000	9	...........
	56	0.76	2.56366E-001	-9.86092E-005	0.00000E+000	-2.52801E-005	-5.99601E-002	2.56417E-001	3.57850E+000	9	...........
	57	0.773333	2.47220E-001	-9.83852E-005	0.00000E+000	-2.43228E-005	-5.99601E-002	2.47263E-001	3.57850E+000	9	...........
	58	0.786667	2.38114E-001	-9.93719E-005	0.00000E+000	-2.36619E-005	-5.99601E-002	2.38158E-001	3.57850E+000	9	...........
	59	0.8	2.29061E-001	-9.82216E-005	0.00000E+000	-2.24988E-005	-5.99601E-002	2.29099E-001	3.57850E+000	9	...........
	60	0.813333	2.20047E-001	-9.90760E-005	0.00000E+000	-2.18013E-005	-5.99601E-002	2.20093E-001	3.57850E+000	9	...........
	61	0.826667	2.11084E-001	-9.85540E-005	0.00000E+000	-2.08032E-005	-5.99601E-002	2.11121E-001	3.57850E+000	9	...........
	62	0.84	2.02168E-001	-9.89833E-005	0.00000E+000	-2.00113E-005	-5.99601E-002	2.02204E-001	3.57850E+000	9	...........
	63	0.853333	1.93301E-001	-9.84342E-005	0.00000E+000	-1.90275E-005	-5.99601E-002	1.93334E-001	3.57850E+000	9	...........
	64	0.866667	1.84488E-001	-9.86894E-005	0.00000E+000	-1.82070E-005	-5.99601E-002	1.84521E-001	3.57850E+000	9	...........
	65	0.88	1.75727E-001	-9.89051E-005	0.00000E+000	-1.73803E-005	-5.99601E-002	1.75759E-001	3.57850E+000	9	...........
	66	0.893333	1.67031E-001	-9.91729E-005	0.00000E+000	-1.65650E-005	-5.99601E-002	1.67056E-001	3.57850E+000	9	...........
	67	0.906667	1.58389E-001	-9.93375E-005	0.00000E+000	-1.57340E-005	-5.99601E-002	1.58415E-001	3.57850E+000	9	...........
	68	0.92	1.49811E-001	-9.83915E-005	0.00000E+000	-1.47401E-005	-5.99601E-002	1.49832E-001	3.57850E+000	9	...........
	69	0.933333	1.41292E-001	-9.83112E-005	0.00000E+000	-1.38905E-005	-5.99601E-002	1.41312E-001	3.57850E+000	9	...........
	70	0.946667	1.32843E-001	-9.86467E-005	0.00000E+000	-1.31045E-005	-5.99601E-002	1.32863E-001	3.57850E+000	9	...........
	71	0.96	1.24468E-001	-9.85884E-005	0.00000E+000	-1.22711E-005	-5.99601E-002	1.24483E-001	3.57850E+000	9	...........
	72	0.97333	1.16157E-001	-9.83654E-005	0.00000E+000	-1.14258E-005	-5.99601E-002	1.16174E-001	3.57850E+000	9	...........
	73	0.98667	1.07924E-001	-9.82789E-005	0.00000E+000	-1.06066E-005	-5.99601E-002	1.07936E-001	3.57850E+000	9	...........
	74	1	9.97529E-002	-9.78268E-005	0.00000E+000	-9.75851E-006	-5.99601E-002	9.97684E-002	3.57850E+000	9	...........
	75	1.01333	9.16607E-002	-9.90781E-005	0.00000E+000	-9.08157E-006	-5.99601E-002	9.16729E-002	3.57850E+000	9	...........
	76	1.02667	8.36434E-002	-9.85530E-005	0.00000E+000	-8.24331E-006	-5.99601E-002	8.36497E-002	3.57850E+000	9	...........
	77	1.04	7.56950E-002	-9.92375E-005	0.00000E+000	-7.51178E-006	-5.99601E-002	7.56962E-002	3.57850E+000	9	...........
	78	1.05333	6.78181E-002	-9.85728E-005	0.00000E+000	-6.68502E-006	-5.99601E-002	6.78215E-002	3.57850E+000	9	...........
	79	1.06667	6.00041E-002	-9.91260E-005	0.00000E+000	-5.94797E-006	-5.99601E-002	6.00045E-002	3.57850E+000	9	...........
	80	1.08	5.22683E-002	-9.92291E-005	0.00000E+000	-5.18654E-006	-5.99601E-002	5.22641E-002	3.57850E+000	9	...........
	81	1.09333	4.46277E-002	-9.91510E-005	0.00000E+000	-4.42489E-006	-5.99601E-002	4.46220E-002	3.57850E+000	9	...........
	82	1.10667	3.70279E-002	-9.89655E-005	0.00000E+000	-3.66448E-006	-5.99601E-002	3.70182E-002	3.57850E+000	9	...........
	83	1.12	2.94880E-002	-9.86259E-005	0.00000E+000	-2.90828E-006	-5.99601E-002	2.94733E-002	3.57850E+000	9	...........
	84	1.13333	2.20140E-002	-9.87332E-005	0.00000E+000	-2.17351E-006	-5.99601E-002	2.19889E-002	3.57850E+000	9	...........
	85	1.14667	1.45980E-002	-9.93750E-005	0.00000E+000	-1.45068E-006	-5.99601E-002	1.45768E-002	3.57850E+000	9	...........
	86	1.16	7.25610E-003	-9.88572E-005	0.00000E+000	-7.17318E-007	-5.99601E-002	7.22554E-003	3.57850E+000	9	...........
	87	1.16833	1.33484E-003	-9.77684E-005	0.00000E+000	-1.30505E-007	-5.99601E-002	1.29835E-003	3.57850E+000	9	...........
STARTTIMEOFFSET	QUANT	1166.898	Start Time Offset (s)
