EXPLAIN
TAG	PWR800_DISCHARGE
TITLE	LABEL	PWR Cyclic Charge Discharge (Cell) - Discharge Step	Test &Identifier
DATE	LABEL	13-7-2017	Date
TIME	LABEL	15:49:31	Time
NOTES	NOTES	2	&Notes...
	supercap test cell
	6M KOH
PSTAT	PSTAT	IFC5000-01520	Potentiostat
CAPACITY	QUANT	1.00000E-003	Capacity (A-hr)
CELLTYPE	SELECTOR	1	&Cell Type
WORKINGCONNECTION	SELECTOR	0	&Working Lead
MAXDISCHARGETIME	VARIABLEANDUNITS	1.00000E+002	s	1.00000E+002	second(s)	Max &Discharge Time
DISCHARGEMODE	MULTIPARAM	0	1.00000E-004	&Discharge Mode	Constant Current	Amp(s)
SAMPLETIME	QUANT	1.00000E-002	Sa&mple Period (s)
DISCHARGESTOPAT1	MULTIPARAM	3	0.00000E+000	Discharge Stop At &1	Voltage < Limit	V
DISCHARGESTOPAT2	MULTIPARAM	0	0.00000E+000	Discharge Stop At &2	None	N/A
AESBHCSELECTOR	TOGGLE	F	Save Both Half Cells
IRCOMP	TOGGLE	F	IR &Measure
EOC	QUANT	0	Open Circuit (V)
SEQUENCER	TOGGLE	TRUE	Run as Sequence
PSTATMODEL	IQUANT	53	Pstat Model
PSTATSECTION	LABEL	IFC5000-01520	Pstat Section
PSTATSERIALNO	LABEL	01520	Pstat Serial Number
CTRLMODE	IQUANT	0	Control Mode
ELECTROMETER	IQUANT	1	RE=0 or CS=1
IESTAB	IQUANT	0	I/E Stability
CASPEED	IQUANT	4	Control Amp Speed
CONVENTION	IQUANT	1	Current Convention
ICHRANGE	IQUANT	2	Ich Range
ICHRANGEMODE	TOGGLE	T	Ich Auto Range
ICHOFFSETENABLE	TOGGLE	F	Ich Offset Enable
ICHOFFSET	QUANT	0	Ich Offset (V)
ICHFILTER	IQUANT	1	Ich Filter
VCHRANGE	IQUANT	2	Vch Range
VCHRANGEMODE	TOGGLE	T	Vch Auto Range
VCHOFFSETENABLE	TOGGLE	F	Vch Offset Enable
VCHOFFSET	QUANT	0	Vch Offset (V)
VCHFILTER	IQUANT	1	Vch Filter
IERANGELOWERLIMIT	IQUANT	9	I/E Range Lower Limit
IERANGEMODE	TOGGLE	F	I/E AutoRange
IERANGE	IQUANT	9	I/E Range
ACHSELECT	IQUANT	1	Ach Select
ACHRANGE	IQUANT	2	Ach Range
ACHOFFSETENABLE	TOGGLE	F	Ach Offset Enable
ACHOFFSET	QUANT	0	Ach Offset (V)
ACHFILTER	IQUANT	1	Ach Filter
CABLEID	IQUANT	14	Cable ID
DCCALDATE	LABEL	5-7-2017	DC Calibration Date
ACCALDATE	LABEL	12/3/2015	AC Calibration Date
FRAMEWORKVERSION	QUANT	7.01	Framework Version
INSTRUMENTVERSION	LABEL	4.00	Instrument Version
CURVE	TABLE	86
	Pt	T	Vf	Im	Vu	Pwr	Sig	Ach	Temp	IERange	Over
	#	s	V	A	V	W	V	V	deg C	#	bits
	0	0.013333	8.46569E-001	-9.84675E-005	0.00000E+000	-8.33596E-005	-5.99601E-002	8.46892E-001	3.57990E+000	9	...........
	1	0.026667	8.32294E-001	-9.85196E-005	0.00000E+000	-8.19973E-005	-5.99601E-002	8.32616E-001	3.57990E+000	9	...........
	2	0.04	8.18885E-001	-9.89510E-005	0.00000E+000	-8.10295E-005	-5.99601E-002	8.19223E-001	3.57990E+000	9	...........
	3	0.053333	8.06051E-001	-9.84769E-005	0.00000E+000	-7.93774E-005	-5.99601E-002	8.06345E-001	3.57990E+000	9	...........
	4	0.066667	7.93555E-001	-9.87165E-005	0.00000E+000	-7.83370E-005	-5.99601E-002	7.93876E-001	3.57990E+000	9	...........
	5	0.08	7.81391E-001	-9.84686E-005	0.00000E+000	-7.69425E-005	-5.99601E-002	7.81671E-001	3.57990E+000	9	...........
	6	0.093333	7.69397E-001	-9.83894E-005	0.00000E+000	-7.57005E-005	-5.99601E-002	7.69714E-001	3.57990E+000	9	...........
	7	0.106667	7.57560E-001	-9.86613E-005	0.00000E+000	-7.47419E-005	-5.99601E-002	7.57856E-001	3.57990E+000	9	...........
	8	0.12	7.45815E-001	-9.93260E-005	0.00000E+000	-7.40788E-005	-5.99601E-002	7.46134E-001	3.57990E+000	9	...........
	9	0.133333	7.34170E-001	-9.94834E-005	0.00000E+000	-7.30377E-005	-5.99601E-002	7.34488E-001	3.57990E+000	9	...........
	10	0.146667	7.22631E-001	-9.90718E-005	0.00000E+000	-7.15924E-005	-5.99601E-002	7.22936E-001	3.57990E+000	9	...........
	11	0.16	7.11085E-001	-9.81852E-005	0.00000E+000	-6.98181E-005	-5.99601E-002	7.11395E-001	3.57990E+000	9	...........
	12	0.173333	6.99644E-001	-9.85550E-005	0.00000E+000	-6.89534E-005	-5.99601E-002	6.99904E-001	3.57990E+000	9	...........
	13	0.186667	6.88190E-001	-9.83508E-005	0.00000E+000	-6.76840E-005	-5.99601E-002	6.88475E-001	3.57990E+000	9	...........
	14	0.2	6.76799E-001	-9.87801E-005	0.00000E+000	-6.68543E-005	-5.99601E-002	6.77072E-001	3.57990E+000	9	...........
	15	0.213333	6.65397E-001	-9.95803E-005	0.00000E+000	-6.62604E-005	-5.99601E-002	6.65669E-001	3.57990E+000	9	...........
	16	0.226667	6.54058E-001	-9.90479E-005	0.00000E+000	-6.47831E-005	-5.99601E-002	6.54288E-001	3.57990E+000	9	...........
	17	0.24	6.42721E-001	-9.82050E-005	0.00000E+000	-6.31184E-005	-5.99601E-002	6.42976E-001	3.57990E+000	9	...........
	18	0.253333	6.31407E-001	-9.84957E-005	0.00000E+000	-6.21909E-005	-5.99601E-002	6.31644E-001	3.57990E+000	9	...........
	19	0.266667	6.20131E-001	-9.92500E-005	0.00000E+000	-6.15480E-005	-5.99601E-002	6.20354E-001	3.57990E+000	9	...........
	20	0.28	6.08788E-001	-9.83206E-005	0.00000E+000	-5.98564E-005	-5.99601E-002	6.09072E-001	3.57990E+000	9	...........
	21	0.293333	5.97567E-001	-9.86749E-005	0.00000E+000	-5.89649E-005	-5.99601E-002	5.97838E-001	3.57990E+000	9	...........
	22	0.306667	5.86374E-001	-9.81362E-005	0.00000E+000	-5.75446E-005	-5.99601E-002	5.86613E-001	3.57990E+000	9	...........
	23	0.32	5.75186E-001	-9.94834E-005	0.00000E+000	-5.72215E-005	-5.99601E-002	5.75421E-001	3.57990E+000	9	...........
	24	0.333333	5.64029E-001	-9.77820E-005	0.00000E+000	-5.51518E-005	-5.99601E-002	5.64276E-001	3.57990E+000	9	...........
	25	0.346667	5.52896E-001	-9.85009E-005	0.00000E+000	-5.44607E-005	-5.99601E-002	5.53139E-001	3.57990E+000	9	...........
	26	0.36	5.41838E-001	-9.85603E-005	0.00000E+000	-5.34037E-005	-5.99601E-002	5.42081E-001	3.57990E+000	9	...........
	27	0.373333	5.30806E-001	-9.85217E-005	0.00000E+000	-5.22959E-005	-5.99601E-002	5.31045E-001	3.57990E+000	9	...........
	28	0.386667	5.19830E-001	-9.87488E-005	0.00000E+000	-5.13326E-005	-5.99601E-002	5.20067E-001	3.57990E+000	9	...........
	29	0.4	5.08884E-001	-9.88478E-005	0.00000E+000	-5.03021E-005	-5.99601E-002	5.09139E-001	3.57990E+000	9	...........
	30	0.413333	4.97994E-001	-9.97022E-005	0.00000E+000	-4.96511E-005	-5.99601E-002	4.98248E-001	3.57990E+000	9	...........
	31	0.426667	4.87273E-001	-9.83925E-005	0.00000E+000	-4.79440E-005	-5.99601E-002	4.87472E-001	3.57990E+000	9	...........
	32	0.44	4.76821E-001	-9.92864E-005	0.00000E+000	-4.73418E-005	-5.99601E-002	4.76914E-001	3.57990E+000	9	...........
	33	0.453333	4.66141E-001	-9.92896E-005	0.00000E+000	-4.62830E-005	-5.99601E-002	4.66233E-001	3.57990E+000	9	...........
	34	0.466667	4.55525E-001	-9.92031E-005	0.00000E+000	-4.51895E-005	-5.99601E-002	4.55615E-001	3.57990E+000	9	...........
	35	0.48	4.44972E-001	-9.86957E-005	0.00000E+000	-4.39169E-005	-5.99601E-002	4.45067E-001	3.57990E+000	9	...........
	36	0.493333	4.34493E-001	-9.92021E-005	0.00000E+000	-4.31026E-005	-5.99601E-002	4.34589E-001	3.57990E+000	9	...........
	37	0.506667	4.24084E-001	-9.89864E-005	0.00000E+000	-4.19786E-005	-5.99601E-002	4.24173E-001	3.57990E+000	9	...........
	38	0.52	4.13752E-001	-9.83196E-005	0.00000E+000	-4.06800E-005	-5.99601E-002	4.13833E-001	3.57990E+000	9	...........
	39	0.533333	4.03489E-001	-9.88520E-005	0.00000E+000	-3.98857E-005	-5.99601E-002	4.03567E-001	3.57990E+000	9	...........
	40	0.546667	3.93295E-001	-9.88989E-005	0.00000E+000	-3.88964E-005	-5.99601E-002	3.93366E-001	3.57990E+000	9	...........
	41	0.56	3.83170E-001	-9.91375E-005	0.00000E+000	-3.79865E-005	-5.99601E-002	3.83238E-001	3.57990E+000	9	...........
	42	0.573333	3.73114E-001	-9.85738E-005	0.00000E+000	-3.67792E-005	-5.99601E-002	3.73181E-001	3.57990E+000	9	...........
	43	0.586667	3.63119E-001	-9.88509E-005	0.00000E+000	-3.58947E-005	-5.99601E-002	3.63181E-001	3.57990E+000	9	...........
	44	0.6	3.53187E-001	-9.88124E-005	0.00000E+000	-3.48993E-005	-5.99601E-002	3.53250E-001	3.57990E+000	9	...........
	45	0.613333	3.43315E-001	-9.90604E-005	0.00000E+000	-3.40089E-005	-5.99601E-002	3.43379E-001	3.57990E+000	9	...........
	46	0.626667	3.33512E-001	-9.83446E-005	0.00000E+000	-3.27991E-005	-5.99601E-002	3.33568E-001	3.57990E+000	9	...........
	47	0.64	3.23768E-001	-9.81331E-005	0.00000E+000	-3.17724E-005	-5.99601E-002	3.23825E-001	3.57990E+000	9	...........
	48	0.653333	3.14079E-001	-9.91562E-005	0.00000E+000	-3.11429E-005	-5.99601E-002	3.14140E-001	3.57990E+000	9	...........
	49	0.666667	3.04444E-001	-9.88582E-005	0.00000E+000	-3.00968E-005	-5.99601E-002	3.04498E-001	3.57990E+000	9	...........
	50	0.68	2.94868E-001	-9.88280E-005	0.00000E+000	-2.91412E-005	-5.99601E-002	2.94925E-001	3.57990E+000	9	...........
	51	0.693333	2.85345E-001	-9.91906E-005	0.00000E+000	-2.83035E-005	-5.99601E-002	2.85399E-001	3.57990E+000	9	...........
	52	0.706667	2.75881E-001	-9.89457E-005	0.00000E+000	-2.72972E-005	-5.99601E-002	2.75930E-001	3.57990E+000	9	...........
	53	0.72	2.66465E-001	-9.87374E-005	0.00000E+000	-2.63100E-005	-5.99601E-002	2.66514E-001	3.57990E+000	9	...........
	54	0.733333	2.57098E-001	-9.85550E-005	0.00000E+000	-2.53383E-005	-5.99601E-002	2.57148E-001	3.57990E+000	9	...........
	55	0.746667	2.47784E-001	-9.92635E-005	0.00000E+000	-2.45959E-005	-5.99601E-002	2.47837E-001	3.57990E+000	9	...........
	56	0.76	2.38532E-001	-9.96886E-005	0.00000E+000	-2.37789E-005	-5.99601E-002	2.38573E-001	3.57990E+000	9	...........
	57	0.773333	2.29331E-001	-9.84321E-005	0.00000E+000	-2.25736E-005	-5.99601E-002	2.29371E-001	3.57990E+000	9	...........
	58	0.786667	2.20179E-001	-9.90468E-005	0.00000E+000	-2.18080E-005	-5.99601E-002	2.20223E-001	3.57990E+000	9	...........
	59	0.8	2.11088E-001	-9.94146E-005	0.00000E+000	-2.09852E-005	-5.99601E-002	2.11123E-001	3.57990E+000	9	...........
	60	0.813333	2.02047E-001	-9.87426E-005	0.00000E+000	-1.99506E-005	-5.99601E-002	2.02081E-001	3.57999E+000	9	...........
	61	0.826667	1.93064E-001	-9.97480E-005	0.00000E+000	-1.92578E-005	-5.99601E-002	1.93096E-001	3.58000E+000	9	...........
	62	0.84	1.84149E-001	-9.92719E-005	0.00000E+000	-1.82808E-005	-5.99601E-002	1.84180E-001	3.58000E+000	9	...........
	63	0.853333	1.75289E-001	-9.90062E-005	0.00000E+000	-1.73547E-005	-5.99601E-002	1.75315E-001	3.58000E+000	9	...........
	64	0.866667	1.66496E-001	-9.83342E-005	0.00000E+000	-1.63723E-005	-5.99601E-002	1.66525E-001	3.58000E+000	9	...........
	65	0.88	1.57775E-001	-9.79226E-005	0.00000E+000	-1.54497E-005	-5.99601E-002	1.57798E-001	3.58000E+000	9	...........
	66	0.893333	1.49126E-001	-9.90374E-005	0.00000E+000	-1.47691E-005	-5.99601E-002	1.49140E-001	3.58000E+000	9	...........
	67	0.906667	1.40544E-001	-9.87822E-005	0.00000E+000	-1.38832E-005	-5.99601E-002	1.40553E-001	3.58000E+000	9	...........
	68	0.92	1.32037E-001	-9.89885E-005	0.00000E+000	-1.30702E-005	-5.99601E-002	1.32045E-001	3.58000E+000	9	...........
	69	0.933333	1.23601E-001	-9.87384E-005	0.00000E+000	-1.22042E-005	-5.99601E-002	1.23607E-001	3.58000E+000	9	...........
	70	0.946667	1.15244E-001	-9.93177E-005	0.00000E+000	-1.14458E-005	-5.99601E-002	1.15255E-001	3.58000E+000	9	...........
	71	0.96	1.06967E-001	-9.92448E-005	0.00000E+000	-1.06159E-005	-5.99601E-002	1.06977E-001	3.58000E+000	9	...........
	72	0.97333	9.87606E-002	-9.81466E-005	0.00000E+000	-9.69302E-006	-5.99601E-002	9.87719E-002	3.58000E+000	9	...........
	73	0.98667	9.06360E-002	-9.93344E-005	0.00000E+000	-9.00327E-006	-5.99601E-002	9.06398E-002	3.58000E+000	9	...........
	74	1	8.25801E-002	-9.89614E-005	0.00000E+000	-8.17224E-006	-5.99601E-002	8.25865E-002	3.58000E+000	9	...........
	75	1.01333	7.46032E-002	-9.97813E-005	0.00000E+000	-7.44401E-006	-5.99601E-002	7.46103E-002	3.58000E+000	9	...........
	76	1.02667	6.67020E-002	-9.86446E-005	0.00000E+000	-6.57980E-006	-5.99601E-002	6.66993E-002	3.58000E+000	9	...........
	77	1.04	5.88599E-002	-9.88541E-005	0.00000E+000	-5.81854E-006	-5.99601E-002	5.88640E-002	3.58000E+000	9	...........
	78	1.05333	5.11039E-002	-9.73371E-005	0.00000E+000	-4.97430E-006	-5.99601E-002	5.10913E-002	3.58000E+000	9	...........
	79	1.06667	4.34448E-002	-9.91718E-005	0.00000E+000	-4.30851E-006	-5.99601E-002	4.34369E-002	3.58000E+000	9	...........
	80	1.08	3.58244E-002	-9.86780E-005	0.00000E+000	-3.53508E-006	-5.99601E-002	3.58097E-002	3.58000E+000	9	...........
	81	1.09333	2.82670E-002	-9.94469E-005	0.00000E+000	-2.81106E-006	-5.99601E-002	2.82493E-002	3.58000E+000	9	...........
	82	1.10667	2.07820E-002	-9.95355E-005	0.00000E+000	-2.06854E-006	-5.99601E-002	2.07580E-002	3.58000E+000	9	...........
	83	1.12	1.33636E-002	-9.94823E-005	0.00000E+000	-1.32944E-006	-5.99601E-002	1.33307E-002	3.58000E+000	9	...........
	84	1.13333	6.00815E-003	-9.86269E-005	0.00000E+000	-5.92565E-007	-5.99601E-002	5.97648E-003	3.58000E+000	9	...........
	85	1.14	5.34304E-004	-9.82935E-005	0.00000E+000	-5.25187E-008	-5.99601E-002	4.94373E-004	3.58000E+000	9	...........
STARTTIMEOFFSET	QUANT	2145.102	Start Time Offset (s)
