EXPLAIN
TAG	PWR800_DISCHARGE
TITLE	LABEL	PWR Cyclic Charge Discharge (Cell) - Discharge Step	Test &Identifier
DATE	LABEL	13-7-2017	Date
TIME	LABEL	15:30:33	Time
NOTES	NOTES	2	&Notes...
	supercap test cell
	6M KOH
PSTAT	PSTAT	IFC5000-01520	Potentiostat
CAPACITY	QUANT	1.00000E-003	Capacity (A-hr)
CELLTYPE	SELECTOR	1	&Cell Type
WORKINGCONNECTION	SELECTOR	0	&Working Lead
MAXDISCHARGETIME	VARIABLEANDUNITS	1.00000E+002	s	1.00000E+002	second(s)	Max &Discharge Time
DISCHARGEMODE	MULTIPARAM	0	1.00000E-004	&Discharge Mode	Constant Current	Amp(s)
SAMPLETIME	QUANT	1.00000E-002	Sa&mple Period (s)
DISCHARGESTOPAT1	MULTIPARAM	3	0.00000E+000	Discharge Stop At &1	Voltage < Limit	V
DISCHARGESTOPAT2	MULTIPARAM	0	0.00000E+000	Discharge Stop At &2	None	N/A
AESBHCSELECTOR	TOGGLE	F	Save Both Half Cells
IRCOMP	TOGGLE	F	IR &Measure
EOC	QUANT	0	Open Circuit (V)
SEQUENCER	TOGGLE	TRUE	Run as Sequence
PSTATMODEL	IQUANT	53	Pstat Model
PSTATSECTION	LABEL	IFC5000-01520	Pstat Section
PSTATSERIALNO	LABEL	01520	Pstat Serial Number
CTRLMODE	IQUANT	0	Control Mode
ELECTROMETER	IQUANT	1	RE=0 or CS=1
IESTAB	IQUANT	0	I/E Stability
CASPEED	IQUANT	4	Control Amp Speed
CONVENTION	IQUANT	1	Current Convention
ICHRANGE	IQUANT	2	Ich Range
ICHRANGEMODE	TOGGLE	T	Ich Auto Range
ICHOFFSETENABLE	TOGGLE	F	Ich Offset Enable
ICHOFFSET	QUANT	0	Ich Offset (V)
ICHFILTER	IQUANT	1	Ich Filter
VCHRANGE	IQUANT	2	Vch Range
VCHRANGEMODE	TOGGLE	T	Vch Auto Range
VCHOFFSETENABLE	TOGGLE	F	Vch Offset Enable
VCHOFFSET	QUANT	0	Vch Offset (V)
VCHFILTER	IQUANT	1	Vch Filter
IERANGELOWERLIMIT	IQUANT	9	I/E Range Lower Limit
IERANGEMODE	TOGGLE	F	I/E AutoRange
IERANGE	IQUANT	9	I/E Range
ACHSELECT	IQUANT	1	Ach Select
ACHRANGE	IQUANT	2	Ach Range
ACHOFFSETENABLE	TOGGLE	F	Ach Offset Enable
ACHOFFSET	QUANT	0	Ach Offset (V)
ACHFILTER	IQUANT	1	Ach Filter
CABLEID	IQUANT	14	Cable ID
DCCALDATE	LABEL	5-7-2017	DC Calibration Date
ACCALDATE	LABEL	12/3/2015	AC Calibration Date
FRAMEWORKVERSION	QUANT	7.01	Framework Version
INSTRUMENTVERSION	LABEL	4.00	Instrument Version
CURVE	TABLE	88
	Pt	T	Vf	Im	Vu	Pwr	Sig	Ach	Temp	IERange	Over
	#	s	V	A	V	W	V	V	deg C	#	bits
	0	0.013333	8.48335E-001	-9.87020E-005	0.00000E+000	-8.37323E-005	-5.99601E-002	8.48593E-001	3.57910E+000	9	...........
	1	0.026667	8.34320E-001	-9.84665E-005	0.00000E+000	-8.21525E-005	-5.99601E-002	8.34625E-001	3.57910E+000	9	...........
	2	0.04	8.21189E-001	-9.93979E-005	0.00000E+000	-8.16245E-005	-5.99601E-002	8.21517E-001	3.57910E+000	9	...........
	3	0.053333	8.08612E-001	-9.96844E-005	0.00000E+000	-8.06060E-005	-5.99601E-002	8.08905E-001	3.57910E+000	9	...........
	4	0.066667	7.96442E-001	-9.79580E-005	0.00000E+000	-7.80179E-005	-5.99601E-002	7.96770E-001	3.57910E+000	9	...........
	5	0.08	7.84568E-001	-9.86915E-005	0.00000E+000	-7.74302E-005	-5.99601E-002	7.84854E-001	3.57910E+000	9	...........
	6	0.093333	7.72918E-001	-9.92187E-005	0.00000E+000	-7.66880E-005	-5.99601E-002	7.73186E-001	3.57910E+000	9	...........
	7	0.106667	7.61393E-001	-9.87384E-005	0.00000E+000	-7.51787E-005	-5.99601E-002	7.61676E-001	3.57910E+000	9	...........
	8	0.12	7.50052E-001	-9.86353E-005	0.00000E+000	-7.39816E-005	-5.99601E-002	7.50294E-001	3.57910E+000	9	...........
	9	0.133333	7.38763E-001	-9.93021E-005	0.00000E+000	-7.33607E-005	-5.99601E-002	7.39019E-001	3.57910E+000	9	...........
	10	0.146667	7.27568E-001	-9.84717E-005	0.00000E+000	-7.16448E-005	-5.99601E-002	7.27803E-001	3.57910E+000	9	...........
	11	0.16	7.16406E-001	-9.85884E-005	0.00000E+000	-7.06293E-005	-5.99601E-002	7.16663E-001	3.57910E+000	9	...........
	12	0.173333	7.05316E-001	-9.85915E-005	0.00000E+000	-6.95382E-005	-5.99601E-002	7.05558E-001	3.57910E+000	9	...........
	13	0.186667	6.94247E-001	-9.86415E-005	0.00000E+000	-6.84816E-005	-5.99601E-002	6.94522E-001	3.57910E+000	9	...........
	14	0.2	6.83216E-001	-9.86155E-005	0.00000E+000	-6.73757E-005	-5.99601E-002	6.83472E-001	3.57910E+000	9	...........
	15	0.213333	6.72190E-001	-9.89603E-005	0.00000E+000	-6.65201E-005	-5.99601E-002	6.72478E-001	3.57910E+000	9	...........
	16	0.226667	6.61223E-001	-9.88228E-005	0.00000E+000	-6.53439E-005	-5.99601E-002	6.61488E-001	3.57910E+000	9	...........
	17	0.24	6.50248E-001	-9.90906E-005	0.00000E+000	-6.44334E-005	-5.99601E-002	6.50511E-001	3.57910E+000	9	...........
	18	0.253333	6.39290E-001	-9.81029E-005	0.00000E+000	-6.27162E-005	-5.99601E-002	6.39561E-001	3.57910E+000	9	...........
	19	0.266667	6.28359E-001	-9.91458E-005	0.00000E+000	-6.22991E-005	-5.99601E-002	6.28626E-001	3.57910E+000	9	...........
	20	0.28	6.17435E-001	-9.89728E-005	0.00000E+000	-6.11093E-005	-5.99601E-002	6.17722E-001	3.57910E+000	9	...........
	21	0.293333	6.06507E-001	-9.87457E-005	0.00000E+000	-5.98899E-005	-5.99601E-002	6.06825E-001	3.57910E+000	9	...........
	22	0.306667	5.95659E-001	-9.91197E-005	0.00000E+000	-5.90416E-005	-5.99601E-002	5.95965E-001	3.57910E+000	9	...........
	23	0.32	5.84770E-001	-9.87999E-005	0.00000E+000	-5.77752E-005	-5.99601E-002	5.85078E-001	3.57910E+000	9	...........
	24	0.333333	5.73959E-001	-9.90416E-005	0.00000E+000	-5.68458E-005	-5.99601E-002	5.74253E-001	3.57910E+000	9	...........
	25	0.346667	5.63175E-001	-9.88561E-005	0.00000E+000	-5.56733E-005	-5.99601E-002	5.63455E-001	3.57910E+000	9	...........
	26	0.36	5.52396E-001	-9.96501E-005	0.00000E+000	-5.50463E-005	-5.99601E-002	5.52672E-001	3.57910E+000	9	...........
	27	0.373333	5.41635E-001	-9.83102E-005	0.00000E+000	-5.32483E-005	-5.99601E-002	5.41929E-001	3.57910E+000	9	...........
	28	0.386667	5.30940E-001	-9.85207E-005	0.00000E+000	-5.23086E-005	-5.99601E-002	5.31206E-001	3.57910E+000	9	...........
	29	0.4	5.20285E-001	-9.86863E-005	0.00000E+000	-5.13450E-005	-5.99601E-002	5.20551E-001	3.57910E+000	9	...........
	30	0.413333	5.09636E-001	-9.92114E-005	0.00000E+000	-5.05617E-005	-5.99601E-002	5.09918E-001	3.57910E+000	9	...........
	31	0.426667	4.99048E-001	-9.83446E-005	0.00000E+000	-4.90787E-005	-5.99601E-002	4.99323E-001	3.57910E+000	9	...........
	32	0.44	4.88589E-001	-9.89134E-005	0.00000E+000	-4.83280E-005	-5.99601E-002	4.88825E-001	3.57910E+000	9	...........
	33	0.453333	4.78443E-001	-9.91447E-005	0.00000E+000	-4.74351E-005	-5.99601E-002	4.78553E-001	3.57910E+000	9	...........
	34	0.466667	4.68032E-001	-9.93333E-005	0.00000E+000	-4.64912E-005	-5.99601E-002	4.68127E-001	3.57910E+000	9	...........
	35	0.48	4.57669E-001	-9.80518E-005	0.00000E+000	-4.48753E-005	-5.99601E-002	4.57768E-001	3.57910E+000	9	...........
	36	0.493333	4.47366E-001	-9.95282E-005	0.00000E+000	-4.45255E-005	-5.99601E-002	4.47462E-001	3.57910E+000	9	...........
	37	0.506667	4.37128E-001	-9.83675E-005	0.00000E+000	-4.29992E-005	-5.99601E-002	4.37223E-001	3.57910E+000	9	...........
	38	0.52	4.26941E-001	-9.86832E-005	0.00000E+000	-4.21319E-005	-5.99601E-002	4.27033E-001	3.57910E+000	9	...........
	39	0.533333	4.16829E-001	-9.92250E-005	0.00000E+000	-4.13598E-005	-5.99601E-002	4.16917E-001	3.57910E+000	9	...........
	40	0.546667	4.06775E-001	-9.90729E-005	0.00000E+000	-4.03004E-005	-5.99601E-002	4.06856E-001	3.57910E+000	9	...........
	41	0.56	3.96780E-001	-9.86415E-005	0.00000E+000	-3.91390E-005	-5.99601E-002	3.96854E-001	3.57910E+000	9	...........
	42	0.573333	3.86847E-001	-9.81300E-005	0.00000E+000	-3.79613E-005	-5.99601E-002	3.86918E-001	3.57910E+000	9	...........
	43	0.586667	3.76967E-001	-9.88259E-005	0.00000E+000	-3.72541E-005	-5.99601E-002	3.77038E-001	3.57910E+000	9	...........
	44	0.6	3.67149E-001	-9.92458E-005	0.00000E+000	-3.64380E-005	-5.99601E-002	3.67223E-001	3.57910E+000	9	...........
	45	0.613333	3.57393E-001	-9.88634E-005	0.00000E+000	-3.53331E-005	-5.99601E-002	3.57460E-001	3.57910E+000	9	...........
	46	0.626667	3.47692E-001	-9.94500E-005	0.00000E+000	-3.45779E-005	-5.99601E-002	3.47756E-001	3.57910E+000	9	...........
	47	0.64	3.38045E-001	-9.92416E-005	0.00000E+000	-3.35482E-005	-5.99601E-002	3.38105E-001	3.57910E+000	9	...........
	48	0.653333	3.28460E-001	-9.95553E-005	0.00000E+000	-3.27000E-005	-5.99601E-002	3.28521E-001	3.57910E+000	9	...........
	49	0.666667	3.18927E-001	-9.81456E-005	0.00000E+000	-3.13012E-005	-5.99601E-002	3.18985E-001	3.57910E+000	9	...........
	50	0.68	3.09436E-001	-9.87770E-005	0.00000E+000	-3.05652E-005	-5.99601E-002	3.09500E-001	3.57910E+000	9	...........
	51	0.693333	3.00002E-001	-9.85873E-005	0.00000E+000	-2.95764E-005	-5.99601E-002	3.00059E-001	3.57910E+000	9	...........
	52	0.706667	2.90612E-001	-9.91645E-005	0.00000E+000	-2.88184E-005	-5.99601E-002	2.90668E-001	3.57910E+000	9	...........
	53	0.72	2.81277E-001	-9.88999E-005	0.00000E+000	-2.78182E-005	-5.99601E-002	2.81330E-001	3.57910E+000	9	...........
	54	0.733333	2.71980E-001	-9.89114E-005	0.00000E+000	-2.69020E-005	-5.99601E-002	2.72031E-001	3.57910E+000	9	...........
	55	0.746667	2.62739E-001	-9.87311E-005	0.00000E+000	-2.59405E-005	-5.99601E-002	2.62786E-001	3.57910E+000	9	...........
	56	0.76	2.53532E-001	-9.92177E-005	0.00000E+000	-2.51549E-005	-5.99601E-002	2.53581E-001	3.57910E+000	9	...........
	57	0.773333	2.44380E-001	-9.87624E-005	0.00000E+000	-2.41355E-005	-5.99601E-002	2.44418E-001	3.57910E+000	9	...........
	58	0.786667	2.35278E-001	-9.80977E-005	0.00000E+000	-2.30802E-005	-5.99601E-002	2.35311E-001	3.57910E+000	9	...........
	59	0.8	2.26217E-001	-9.89864E-005	0.00000E+000	-2.23924E-005	-5.99601E-002	2.26250E-001	3.57910E+000	9	...........
	60	0.813333	2.17206E-001	-9.87593E-005	0.00000E+000	-2.14511E-005	-5.99601E-002	2.17233E-001	3.57999E+000	9	...........
	61	0.826667	2.08240E-001	-9.87290E-005	0.00000E+000	-2.05593E-005	-5.99601E-002	2.08269E-001	3.58000E+000	9	...........
	62	0.84	1.99326E-001	-9.83383E-005	0.00000E+000	-1.96014E-005	-5.99601E-002	1.99349E-001	3.58000E+000	9	...........
	63	0.853333	1.90464E-001	-9.89885E-005	0.00000E+000	-1.88537E-005	-5.99601E-002	1.90487E-001	3.58000E+000	9	...........
	64	0.866667	1.81660E-001	-9.89166E-005	0.00000E+000	-1.79692E-005	-5.99601E-002	1.81682E-001	3.58000E+000	9	...........
	65	0.88	1.72907E-001	-9.83477E-005	0.00000E+000	-1.70050E-005	-5.99601E-002	1.72936E-001	3.58000E+000	9	...........
	66	0.893333	1.64216E-001	-9.85446E-005	0.00000E+000	-1.61826E-005	-5.99601E-002	1.64243E-001	3.58000E+000	9	...........
	67	0.906667	1.55596E-001	-9.91666E-005	0.00000E+000	-1.54300E-005	-5.99601E-002	1.55616E-001	3.58000E+000	9	...........
	68	0.92	1.47027E-001	-9.89895E-005	0.00000E+000	-1.45541E-005	-5.99601E-002	1.47046E-001	3.58000E+000	9	...........
	69	0.933333	1.38530E-001	-9.96521E-005	0.00000E+000	-1.38048E-005	-5.99601E-002	1.38543E-001	3.58000E+000	9	...........
	70	0.946667	1.30103E-001	-9.94323E-005	0.00000E+000	-1.29365E-005	-5.99601E-002	1.30115E-001	3.58000E+000	9	...........
	71	0.96	1.21748E-001	-9.85748E-005	0.00000E+000	-1.20013E-005	-5.99601E-002	1.21761E-001	3.58000E+000	9	...........
	72	0.97333	1.13462E-001	-9.90822E-005	0.00000E+000	-1.12420E-005	-5.99601E-002	1.13470E-001	3.58000E+000	9	...........
	73	0.98667	1.05248E-001	-9.91218E-005	0.00000E+000	-1.04323E-005	-5.99601E-002	1.05259E-001	3.58000E+000	9	...........
	74	1	9.71073E-002	-9.89176E-005	0.00000E+000	-9.60562E-006	-5.99601E-002	9.71115E-002	3.58000E+000	9	...........
	75	1.01333	8.90341E-002	-9.81498E-005	0.00000E+000	-8.73867E-006	-5.99601E-002	8.90467E-002	3.58000E+000	9	...........
	76	1.02667	8.10388E-002	-9.84456E-005	0.00000E+000	-7.97792E-006	-5.99601E-002	8.10428E-002	3.58000E+000	9	...........
	77	1.04	7.31192E-002	-9.87936E-005	0.00000E+000	-7.22371E-006	-5.99601E-002	7.31104E-002	3.58000E+000	9	...........
	78	1.05333	6.52583E-002	-9.93854E-005	0.00000E+000	-6.48572E-006	-5.99601E-002	6.52573E-002	3.58000E+000	9	...........
	79	1.06667	5.74722E-002	-9.94177E-005	0.00000E+000	-5.71375E-006	-5.99601E-002	5.74679E-002	3.58000E+000	9	...........
	80	1.08	4.97628E-002	-9.92271E-005	0.00000E+000	-4.93782E-006	-5.99601E-002	4.97542E-002	3.58000E+000	9	...........
	81	1.09333	4.21409E-002	-9.87019E-005	0.00000E+000	-4.15939E-006	-5.99601E-002	4.21340E-002	3.58000E+000	9	...........
	82	1.10667	3.45573E-002	-9.87749E-005	0.00000E+000	-3.41340E-006	-5.99601E-002	3.45427E-002	3.58000E+000	9	...........
	83	1.12	2.70394E-002	-9.86290E-005	0.00000E+000	-2.66687E-006	-5.99601E-002	2.70208E-002	3.58000E+000	9	...........
	84	1.13333	1.95833E-002	-9.89114E-005	0.00000E+000	-1.93701E-006	-5.99601E-002	1.95631E-002	3.58000E+000	9	...........
	85	1.14667	1.22002E-002	-9.90458E-005	0.00000E+000	-1.20838E-006	-5.99601E-002	1.21719E-002	3.58000E+000	9	...........
	86	1.16	4.87759E-003	-9.87468E-005	0.00000E+000	-4.81646E-007	-5.99601E-002	4.84544E-003	3.58000E+000	9	...........
	87	1.16333	3.31681E-004	-9.85561E-005	0.00000E+000	-3.26892E-008	-5.99601E-002	2.98133E-004	3.58000E+000	9	...........
STARTTIMEOFFSET	QUANT	1291.118	Start Time Offset (s)
