EXPLAIN
TAG	PWR800_DISCHARGE
TITLE	LABEL	PWR Cyclic Charge Discharge (Cell) - Discharge Step	Test &Identifier
DATE	LABEL	13-7-2017	Date
TIME	LABEL	15:44:19	Time
NOTES	NOTES	2	&Notes...
	supercap test cell
	6M KOH
PSTAT	PSTAT	IFC5000-01520	Potentiostat
CAPACITY	QUANT	1.00000E-003	Capacity (A-hr)
CELLTYPE	SELECTOR	1	&Cell Type
WORKINGCONNECTION	SELECTOR	0	&Working Lead
MAXDISCHARGETIME	VARIABLEANDUNITS	1.00000E+002	s	1.00000E+002	second(s)	Max &Discharge Time
DISCHARGEMODE	MULTIPARAM	0	1.00000E-004	&Discharge Mode	Constant Current	Amp(s)
SAMPLETIME	QUANT	1.00000E-002	Sa&mple Period (s)
DISCHARGESTOPAT1	MULTIPARAM	3	0.00000E+000	Discharge Stop At &1	Voltage < Limit	V
DISCHARGESTOPAT2	MULTIPARAM	0	0.00000E+000	Discharge Stop At &2	None	N/A
AESBHCSELECTOR	TOGGLE	F	Save Both Half Cells
IRCOMP	TOGGLE	F	IR &Measure
EOC	QUANT	0	Open Circuit (V)
SEQUENCER	TOGGLE	TRUE	Run as Sequence
PSTATMODEL	IQUANT	53	Pstat Model
PSTATSECTION	LABEL	IFC5000-01520	Pstat Section
PSTATSERIALNO	LABEL	01520	Pstat Serial Number
CTRLMODE	IQUANT	0	Control Mode
ELECTROMETER	IQUANT	1	RE=0 or CS=1
IESTAB	IQUANT	0	I/E Stability
CASPEED	IQUANT	4	Control Amp Speed
CONVENTION	IQUANT	1	Current Convention
ICHRANGE	IQUANT	2	Ich Range
ICHRANGEMODE	TOGGLE	T	Ich Auto Range
ICHOFFSETENABLE	TOGGLE	F	Ich Offset Enable
ICHOFFSET	QUANT	0	Ich Offset (V)
ICHFILTER	IQUANT	1	Ich Filter
VCHRANGE	IQUANT	2	Vch Range
VCHRANGEMODE	TOGGLE	T	Vch Auto Range
VCHOFFSETENABLE	TOGGLE	F	Vch Offset Enable
VCHOFFSET	QUANT	0	Vch Offset (V)
VCHFILTER	IQUANT	1	Vch Filter
IERANGELOWERLIMIT	IQUANT	9	I/E Range Lower Limit
IERANGEMODE	TOGGLE	F	I/E AutoRange
IERANGE	IQUANT	9	I/E Range
ACHSELECT	IQUANT	1	Ach Select
ACHRANGE	IQUANT	2	Ach Range
ACHOFFSETENABLE	TOGGLE	F	Ach Offset Enable
ACHOFFSET	QUANT	0	Ach Offset (V)
ACHFILTER	IQUANT	1	Ach Filter
CABLEID	IQUANT	14	Cable ID
DCCALDATE	LABEL	5-7-2017	DC Calibration Date
ACCALDATE	LABEL	12/3/2015	AC Calibration Date
FRAMEWORKVERSION	QUANT	7.01	Framework Version
INSTRUMENTVERSION	LABEL	4.00	Instrument Version
CURVE	TABLE	86
	Pt	T	Vf	Im	Vu	Pwr	Sig	Ach	Temp	IERange	Over
	#	s	V	A	V	W	V	V	deg C	#	bits
	0	0.013333	8.45641E-001	-9.89999E-005	0.00000E+000	-8.37184E-005	-5.99601E-002	8.45972E-001	3.57950E+000	9	...........
	1	0.026667	8.31340E-001	-9.85905E-005	0.00000E+000	-8.19622E-005	-5.99601E-002	8.31660E-001	3.57950E+000	9	...........
	2	0.04	8.17916E-001	-9.86957E-005	0.00000E+000	-8.07248E-005	-5.99601E-002	8.18197E-001	3.57950E+000	9	...........
	3	0.053333	8.05030E-001	-9.91187E-005	0.00000E+000	-7.97935E-005	-5.99601E-002	8.05300E-001	3.57950E+000	9	...........
	4	0.066667	7.92571E-001	-9.78070E-005	0.00000E+000	-7.75189E-005	-5.99601E-002	7.92829E-001	3.57950E+000	9	...........
	5	0.08	7.80384E-001	-9.91072E-005	0.00000E+000	-7.73417E-005	-5.99601E-002	7.80625E-001	3.57950E+000	9	...........
	6	0.093333	7.68408E-001	-9.86665E-005	0.00000E+000	-7.58161E-005	-5.99601E-002	7.68665E-001	3.57950E+000	9	...........
	7	0.106667	7.56597E-001	-9.80403E-005	0.00000E+000	-7.41771E-005	-5.99601E-002	7.56848E-001	3.57950E+000	9	...........
	8	0.12	7.44909E-001	-9.81185E-005	0.00000E+000	-7.30894E-005	-5.99601E-002	7.45163E-001	3.57950E+000	9	...........
	9	0.133333	7.33302E-001	-9.89582E-005	0.00000E+000	-7.25663E-005	-5.99601E-002	7.33549E-001	3.57950E+000	9	...........
	10	0.146667	7.21809E-001	-9.87582E-005	0.00000E+000	-7.12846E-005	-5.99601E-002	7.22059E-001	3.57950E+000	9	...........
	11	0.16	7.10304E-001	-9.87040E-005	0.00000E+000	-7.01099E-005	-5.99601E-002	7.10585E-001	3.57950E+000	9	...........
	12	0.173333	6.98928E-001	-9.85936E-005	0.00000E+000	-6.89099E-005	-5.99601E-002	6.99174E-001	3.57950E+000	9	...........
	13	0.186667	6.87542E-001	-9.87363E-005	0.00000E+000	-6.78854E-005	-5.99601E-002	6.87813E-001	3.57950E+000	9	...........
	14	0.2	6.76216E-001	-9.97063E-005	0.00000E+000	-6.74230E-005	-5.99601E-002	6.76485E-001	3.57950E+000	9	...........
	15	0.213333	6.64881E-001	-9.89364E-005	0.00000E+000	-6.57809E-005	-5.99601E-002	6.65170E-001	3.57950E+000	9	...........
	16	0.226667	6.53588E-001	-9.89833E-005	0.00000E+000	-6.46943E-005	-5.99601E-002	6.53867E-001	3.57950E+000	9	...........
	17	0.24	6.42338E-001	-9.91239E-005	0.00000E+000	-6.36710E-005	-5.99601E-002	6.42592E-001	3.57950E+000	9	...........
	18	0.253333	6.31081E-001	-9.91927E-005	0.00000E+000	-6.25986E-005	-5.99601E-002	6.31358E-001	3.57950E+000	9	...........
	19	0.266667	6.19882E-001	-9.85832E-005	0.00000E+000	-6.11099E-005	-5.99601E-002	6.20122E-001	3.57950E+000	9	...........
	20	0.28	6.08619E-001	-9.85425E-005	0.00000E+000	-5.99748E-005	-5.99601E-002	6.08933E-001	3.57950E+000	9	...........
	21	0.293333	5.97465E-001	-9.88874E-005	0.00000E+000	-5.90817E-005	-5.99601E-002	5.97750E-001	3.57950E+000	9	...........
	22	0.306667	5.86337E-001	-9.87655E-005	0.00000E+000	-5.79099E-005	-5.99601E-002	5.86615E-001	3.57950E+000	9	...........
	23	0.32	5.75222E-001	-9.86707E-005	0.00000E+000	-5.67575E-005	-5.99601E-002	5.75518E-001	3.57950E+000	9	...........
	24	0.333333	5.64146E-001	-9.91020E-005	0.00000E+000	-5.59080E-005	-5.99601E-002	5.64436E-001	3.57950E+000	9	...........
	25	0.346667	5.53086E-001	-9.84696E-005	0.00000E+000	-5.44621E-005	-5.99601E-002	5.53372E-001	3.57950E+000	9	...........
	26	0.36	5.42086E-001	-9.86259E-005	0.00000E+000	-5.34637E-005	-5.99601E-002	5.42359E-001	3.57950E+000	9	...........
	27	0.373333	5.31119E-001	-9.82175E-005	0.00000E+000	-5.21652E-005	-5.99601E-002	5.31399E-001	3.57950E+000	9	...........
	28	0.386667	5.20242E-001	-9.88343E-005	0.00000E+000	-5.14178E-005	-5.99601E-002	5.20470E-001	3.57950E+000	9	...........
	29	0.4	5.09360E-001	-9.90781E-005	0.00000E+000	-5.04664E-005	-5.99601E-002	5.09611E-001	3.57950E+000	9	...........
	30	0.413333	4.98546E-001	-9.89353E-005	0.00000E+000	-4.93238E-005	-5.99601E-002	4.98790E-001	3.57950E+000	9	...........
	31	0.426667	4.87875E-001	-9.94646E-005	0.00000E+000	-4.85262E-005	-5.99601E-002	4.88059E-001	3.57950E+000	9	...........
	32	0.44	4.77500E-001	-9.92010E-005	0.00000E+000	-4.73685E-005	-5.99601E-002	4.77592E-001	3.57950E+000	9	...........
	33	0.453333	4.66875E-001	-9.86499E-005	0.00000E+000	-4.60572E-005	-5.99601E-002	4.66966E-001	3.57950E+000	9	...........
	34	0.466667	4.56318E-001	-9.82394E-005	0.00000E+000	-4.48284E-005	-5.99601E-002	4.56413E-001	3.57950E+000	9	...........
	35	0.48	4.45833E-001	-9.90551E-005	0.00000E+000	-4.41621E-005	-5.99601E-002	4.45920E-001	3.57950E+000	9	...........
	36	0.493333	4.35413E-001	-9.97553E-005	0.00000E+000	-4.34348E-005	-5.99601E-002	4.35501E-001	3.57950E+000	9	...........
	37	0.506667	4.25058E-001	-9.86040E-005	0.00000E+000	-4.19125E-005	-5.99601E-002	4.25147E-001	3.57950E+000	9	...........
	38	0.52	4.14777E-001	-9.92937E-005	0.00000E+000	-4.11847E-005	-5.99601E-002	4.14861E-001	3.57950E+000	9	...........
	39	0.533333	4.04559E-001	-9.96146E-005	0.00000E+000	-4.03000E-005	-5.99601E-002	4.04642E-001	3.57950E+000	9	...........
	40	0.546667	3.94412E-001	-9.97032E-005	0.00000E+000	-3.93241E-005	-5.99601E-002	3.94488E-001	3.57950E+000	9	...........
	41	0.56	3.84332E-001	-9.90551E-005	0.00000E+000	-3.80701E-005	-5.99601E-002	3.84403E-001	3.57950E+000	9	...........
	42	0.573333	3.74318E-001	-9.83811E-005	0.00000E+000	-3.68258E-005	-5.99601E-002	3.74383E-001	3.57950E+000	9	...........
	43	0.586667	3.64362E-001	-9.84081E-005	0.00000E+000	-3.58562E-005	-5.99601E-002	3.64432E-001	3.57950E+000	9	...........
	44	0.6	3.54478E-001	-9.95771E-005	0.00000E+000	-3.52979E-005	-5.99601E-002	3.54540E-001	3.57950E+000	9	...........
	45	0.613333	3.44652E-001	-9.88395E-005	0.00000E+000	-3.40652E-005	-5.99601E-002	3.44715E-001	3.57950E+000	9	...........
	46	0.626667	3.34878E-001	-9.85571E-005	0.00000E+000	-3.30046E-005	-5.99601E-002	3.34948E-001	3.57950E+000	9	...........
	47	0.64	3.25177E-001	-9.86373E-005	0.00000E+000	-3.20746E-005	-5.99601E-002	3.25241E-001	3.57950E+000	9	...........
	48	0.653333	3.15525E-001	-9.87582E-005	0.00000E+000	-3.11607E-005	-5.99601E-002	3.15586E-001	3.57950E+000	9	...........
	49	0.666667	3.05932E-001	-9.86738E-005	0.00000E+000	-3.01874E-005	-5.99601E-002	3.05986E-001	3.57950E+000	9	...........
	50	0.68	2.96390E-001	-9.95907E-005	0.00000E+000	-2.95177E-005	-5.99601E-002	2.96447E-001	3.57950E+000	9	...........
	51	0.693333	2.86902E-001	-9.87207E-005	0.00000E+000	-2.83232E-005	-5.99601E-002	2.86963E-001	3.57950E+000	9	...........
	52	0.706667	2.77469E-001	-9.79935E-005	0.00000E+000	-2.71901E-005	-5.99601E-002	2.77524E-001	3.57950E+000	9	...........
	53	0.72	2.68085E-001	-9.91135E-005	0.00000E+000	-2.65709E-005	-5.99601E-002	2.68143E-001	3.57950E+000	9	...........
	54	0.733333	2.58755E-001	-9.87447E-005	0.00000E+000	-2.55507E-005	-5.99601E-002	2.58808E-001	3.57950E+000	9	...........
	55	0.746667	2.49478E-001	-9.96230E-005	0.00000E+000	-2.48538E-005	-5.99601E-002	2.49528E-001	3.57950E+000	9	...........
	56	0.76	2.40258E-001	-9.87499E-005	0.00000E+000	-2.37254E-005	-5.99601E-002	2.40293E-001	3.57950E+000	9	...........
	57	0.773333	2.31075E-001	-9.77080E-005	0.00000E+000	-2.25779E-005	-5.99601E-002	2.31111E-001	3.57950E+000	9	...........
	58	0.786667	2.21943E-001	-9.86196E-005	0.00000E+000	-2.18880E-005	-5.99601E-002	2.21979E-001	3.57950E+000	9	...........
	59	0.8	2.12866E-001	-9.89739E-005	0.00000E+000	-2.10682E-005	-5.99601E-002	2.12906E-001	3.57963E+000	9	...........
	60	0.813333	2.03849E-001	-9.88509E-005	0.00000E+000	-2.01507E-005	-5.99601E-002	2.03880E-001	3.57990E+000	9	...........
	61	0.826667	1.94883E-001	-9.85384E-005	0.00000E+000	-1.92035E-005	-5.99601E-002	1.94915E-001	3.57990E+000	9	...........
	62	0.84	1.85980E-001	-9.82904E-005	0.00000E+000	-1.82801E-005	-5.99601E-002	1.86009E-001	3.57990E+000	9	...........
	63	0.853333	1.77134E-001	-9.87697E-005	0.00000E+000	-1.74954E-005	-5.99601E-002	1.77165E-001	3.57990E+000	9	...........
	64	0.866667	1.68353E-001	-9.89906E-005	0.00000E+000	-1.66654E-005	-5.99601E-002	1.68382E-001	3.57990E+000	9	...........
	65	0.88	1.59645E-001	-9.85498E-005	0.00000E+000	-1.57330E-005	-5.99601E-002	1.59665E-001	3.57990E+000	9	...........
	66	0.893333	1.50999E-001	-9.84144E-005	0.00000E+000	-1.48605E-005	-5.99601E-002	1.51019E-001	3.57990E+000	9	...........
	67	0.906667	1.42422E-001	-9.93656E-005	0.00000E+000	-1.41518E-005	-5.99601E-002	1.42438E-001	3.57990E+000	9	...........
	68	0.92	1.33923E-001	-9.90510E-005	0.00000E+000	-1.32652E-005	-5.99601E-002	1.33938E-001	3.57990E+000	9	...........
	69	0.933333	1.25497E-001	-9.76569E-005	0.00000E+000	-1.22556E-005	-5.99601E-002	1.25508E-001	3.57990E+000	9	...........
	70	0.946667	1.17144E-001	-9.97157E-005	0.00000E+000	-1.16811E-005	-5.99601E-002	1.17154E-001	3.57990E+000	9	...........
	71	0.96	1.08871E-001	-9.85592E-005	0.00000E+000	-1.07302E-005	-5.99601E-002	1.08879E-001	3.57990E+000	9	...........
	72	0.97333	1.00667E-001	-9.81925E-005	0.00000E+000	-9.88475E-006	-5.99601E-002	1.00674E-001	3.57990E+000	9	...........
	73	0.98667	9.25362E-002	-9.84977E-005	0.00000E+000	-9.11460E-006	-5.99601E-002	9.25462E-002	3.57990E+000	9	...........
	74	1	8.44865E-002	-9.90281E-005	0.00000E+000	-8.36653E-006	-5.99601E-002	8.44868E-002	3.57990E+000	9	...........
	75	1.01333	7.65100E-002	-9.93146E-005	0.00000E+000	-7.59856E-006	-5.99601E-002	7.65052E-002	3.57990E+000	9	...........
	76	1.02667	6.86044E-002	-9.90343E-005	0.00000E+000	-6.79419E-006	-5.99601E-002	6.86021E-002	3.57990E+000	9	...........
	77	1.04	6.07712E-002	-9.89572E-005	0.00000E+000	-6.01374E-006	-5.99601E-002	6.07647E-002	3.57990E+000	9	...........
	78	1.05333	5.30072E-002	-9.85123E-005	0.00000E+000	-5.22186E-006	-5.99601E-002	5.30002E-002	3.57990E+000	9	...........
	79	1.06667	4.53480E-002	-9.87645E-005	0.00000E+000	-4.47877E-006	-5.99601E-002	4.53356E-002	3.57990E+000	9	...........
	80	1.08	3.77249E-002	-9.99501E-005	0.00000E+000	-3.77060E-006	-5.99601E-002	3.77136E-002	3.57990E+000	9	...........
	81	1.09333	3.01712E-002	-9.93000E-005	0.00000E+000	-2.99600E-006	-5.99601E-002	3.01548E-002	3.57990E+000	9	...........
	82	1.10667	2.26791E-002	-9.86603E-005	0.00000E+000	-2.23752E-006	-5.99601E-002	2.26635E-002	3.57990E+000	9	...........
	83	1.12	1.52548E-002	-9.87395E-005	0.00000E+000	-1.50625E-006	-5.99601E-002	1.52268E-002	3.57990E+000	9	...........
	84	1.13333	7.89410E-003	-9.89947E-005	0.00000E+000	-7.81475E-007	-5.99601E-002	7.86400E-003	3.57990E+000	9	...........
	85	1.14333	1.50638E-003	-9.86478E-005	0.00000E+000	-1.48601E-007	-5.99601E-002	1.47644E-003	3.57990E+000	9	...........
STARTTIMEOFFSET	QUANT	1911.645	Start Time Offset (s)
