EXPLAIN
TAG	PWR800_DISCHARGE
TITLE	LABEL	PWR Cyclic Charge Discharge (Cell) - Discharge Step	Test &Identifier
DATE	LABEL	13-7-2017	Date
TIME	LABEL	15:53:23	Time
NOTES	NOTES	2	&Notes...
	supercap test cell
	6M KOH
PSTAT	PSTAT	IFC5000-01520	Potentiostat
CAPACITY	QUANT	1.00000E-003	Capacity (A-hr)
CELLTYPE	SELECTOR	1	&Cell Type
WORKINGCONNECTION	SELECTOR	0	&Working Lead
MAXDISCHARGETIME	VARIABLEANDUNITS	1.00000E+002	s	1.00000E+002	second(s)	Max &Discharge Time
DISCHARGEMODE	MULTIPARAM	0	1.00000E-004	&Discharge Mode	Constant Current	Amp(s)
SAMPLETIME	QUANT	1.00000E-002	Sa&mple Period (s)
DISCHARGESTOPAT1	MULTIPARAM	3	0.00000E+000	Discharge Stop At &1	Voltage < Limit	V
DISCHARGESTOPAT2	MULTIPARAM	0	0.00000E+000	Discharge Stop At &2	None	N/A
AESBHCSELECTOR	TOGGLE	F	Save Both Half Cells
IRCOMP	TOGGLE	F	IR &Measure
EOC	QUANT	0	Open Circuit (V)
SEQUENCER	TOGGLE	TRUE	Run as Sequence
PSTATMODEL	IQUANT	53	Pstat Model
PSTATSECTION	LABEL	IFC5000-01520	Pstat Section
PSTATSERIALNO	LABEL	01520	Pstat Serial Number
CTRLMODE	IQUANT	0	Control Mode
ELECTROMETER	IQUANT	1	RE=0 or CS=1
IESTAB	IQUANT	0	I/E Stability
CASPEED	IQUANT	4	Control Amp Speed
CONVENTION	IQUANT	1	Current Convention
ICHRANGE	IQUANT	2	Ich Range
ICHRANGEMODE	TOGGLE	T	Ich Auto Range
ICHOFFSETENABLE	TOGGLE	F	Ich Offset Enable
ICHOFFSET	QUANT	0	Ich Offset (V)
ICHFILTER	IQUANT	1	Ich Filter
VCHRANGE	IQUANT	2	Vch Range
VCHRANGEMODE	TOGGLE	T	Vch Auto Range
VCHOFFSETENABLE	TOGGLE	F	Vch Offset Enable
VCHOFFSET	QUANT	0	Vch Offset (V)
VCHFILTER	IQUANT	1	Vch Filter
IERANGELOWERLIMIT	IQUANT	9	I/E Range Lower Limit
IERANGEMODE	TOGGLE	F	I/E AutoRange
IERANGE	IQUANT	9	I/E Range
ACHSELECT	IQUANT	1	Ach Select
ACHRANGE	IQUANT	2	Ach Range
ACHOFFSETENABLE	TOGGLE	F	Ach Offset Enable
ACHOFFSET	QUANT	0	Ach Offset (V)
ACHFILTER	IQUANT	1	Ach Filter
CABLEID	IQUANT	14	Cable ID
DCCALDATE	LABEL	5-7-2017	DC Calibration Date
ACCALDATE	LABEL	12/3/2015	AC Calibration Date
FRAMEWORKVERSION	QUANT	7.01	Framework Version
INSTRUMENTVERSION	LABEL	4.00	Instrument Version
CURVE	TABLE	85
	Pt	T	Vf	Im	Vu	Pwr	Sig	Ach	Temp	IERange	Over
	#	s	V	A	V	W	V	V	deg C	#	bits
	0	0.013333	8.45929E-001	-9.86728E-005	0.00000E+000	-8.34702E-005	-5.99601E-002	8.46259E-001	3.58000E+000	9	...........
	1	0.026667	8.31586E-001	-9.85509E-005	0.00000E+000	-8.19536E-005	-5.99601E-002	8.31918E-001	3.58000E+000	9	...........
	2	0.04	8.18101E-001	-9.81341E-005	0.00000E+000	-8.02836E-005	-5.99601E-002	8.18418E-001	3.58000E+000	9	...........
	3	0.053333	8.05183E-001	-9.87290E-005	0.00000E+000	-7.94949E-005	-5.99601E-002	8.05478E-001	3.58000E+000	9	...........
	4	0.066667	7.92628E-001	-9.91718E-005	0.00000E+000	-7.86064E-005	-5.99601E-002	7.92920E-001	3.58000E+000	9	...........
	5	0.08	7.80351E-001	-9.90801E-005	0.00000E+000	-7.73173E-005	-5.99601E-002	7.80646E-001	3.58000E+000	9	...........
	6	0.093333	7.68294E-001	-9.96615E-005	0.00000E+000	-7.65694E-005	-5.99601E-002	7.68559E-001	3.58000E+000	9	...........
	7	0.106667	7.56373E-001	-9.89239E-005	0.00000E+000	-7.48234E-005	-5.99601E-002	7.56642E-001	3.58000E+000	9	...........
	8	0.12	7.44580E-001	-9.84321E-005	0.00000E+000	-7.32906E-005	-5.99601E-002	7.44854E-001	3.58000E+000	9	...........
	9	0.133333	7.32865E-001	-9.90041E-005	0.00000E+000	-7.25566E-005	-5.99601E-002	7.33138E-001	3.58000E+000	9	...........
	10	0.146667	7.21245E-001	-9.90197E-005	0.00000E+000	-7.14175E-005	-5.99601E-002	7.21488E-001	3.58000E+000	9	...........
	11	0.16	7.09621E-001	-9.90093E-005	0.00000E+000	-7.02591E-005	-5.99601E-002	7.09896E-001	3.58000E+000	9	...........
	12	0.173333	6.98097E-001	-1.00110E-004	0.00000E+000	-6.98862E-005	-5.99601E-002	6.98318E-001	3.58000E+000	9	...........
	13	0.186667	6.86603E-001	-9.96303E-005	0.00000E+000	-6.84064E-005	-5.99601E-002	6.86779E-001	3.58000E+000	9	...........
	14	0.2	6.75130E-001	-9.90697E-005	0.00000E+000	-6.68849E-005	-5.99601E-002	6.75300E-001	3.58000E+000	9	...........
	15	0.213333	6.63664E-001	-9.86144E-005	0.00000E+000	-6.54469E-005	-5.99601E-002	6.63854E-001	3.58000E+000	9	...........
	16	0.226667	6.52241E-001	-9.97261E-005	0.00000E+000	-6.50455E-005	-5.99601E-002	6.52426E-001	3.57850E+000	9	...........
	17	0.24	6.40832E-001	-9.82758E-005	0.00000E+000	-6.29783E-005	-5.99601E-002	6.41032E-001	3.57850E+000	9	...........
	18	0.253333	6.29442E-001	-9.83904E-005	0.00000E+000	-6.19310E-005	-5.99601E-002	6.29654E-001	3.57850E+000	9	...........
	19	0.266667	6.18089E-001	-9.91260E-005	0.00000E+000	-6.12686E-005	-5.99601E-002	6.18322E-001	3.57850E+000	9	...........
	20	0.28	6.06713E-001	-9.93854E-005	0.00000E+000	-6.02984E-005	-5.99601E-002	6.06984E-001	3.57850E+000	9	...........
	21	0.293333	5.95426E-001	-9.92291E-005	0.00000E+000	-5.90837E-005	-5.99601E-002	5.95705E-001	3.57850E+000	9	...........
	22	0.306667	5.84159E-001	-9.86832E-005	0.00000E+000	-5.76466E-005	-5.99601E-002	5.84423E-001	3.57850E+000	9	...........
	23	0.32	5.72933E-001	-9.88697E-005	0.00000E+000	-5.66457E-005	-5.99601E-002	5.73190E-001	3.57850E+000	9	...........
	24	0.333333	5.61713E-001	-9.93781E-005	0.00000E+000	-5.58220E-005	-5.99601E-002	5.61979E-001	3.57850E+000	9	...........
	25	0.346667	5.50537E-001	-9.85217E-005	0.00000E+000	-5.42399E-005	-5.99601E-002	5.50801E-001	3.57850E+000	9	...........
	26	0.36	5.39432E-001	-9.82946E-005	0.00000E+000	-5.30232E-005	-5.99601E-002	5.39686E-001	3.57850E+000	9	...........
	27	0.373333	5.28337E-001	-9.93698E-005	0.00000E+000	-5.25007E-005	-5.99601E-002	5.28576E-001	3.57850E+000	9	...........
	28	0.386667	5.17330E-001	-9.83883E-005	0.00000E+000	-5.08993E-005	-5.99601E-002	5.17525E-001	3.57850E+000	9	...........
	29	0.4	5.06315E-001	-9.84894E-005	0.00000E+000	-4.98666E-005	-5.99601E-002	5.06525E-001	3.57850E+000	9	...........
	30	0.413333	4.95451E-001	-9.87332E-005	0.00000E+000	-4.89174E-005	-5.99601E-002	4.95616E-001	3.57850E+000	9	...........
	31	0.426667	4.84776E-001	-9.92000E-005	0.00000E+000	-4.80897E-005	-5.99601E-002	4.84903E-001	3.57850E+000	9	...........
	32	0.44	4.74178E-001	-9.90322E-005	0.00000E+000	-4.69589E-005	-5.99601E-002	4.74263E-001	3.57850E+000	9	...........
	33	0.453333	4.63456E-001	-9.90760E-005	0.00000E+000	-4.59174E-005	-5.99601E-002	4.63546E-001	3.57850E+000	9	...........
	34	0.466667	4.52808E-001	-9.87770E-005	0.00000E+000	-4.47270E-005	-5.99601E-002	4.52901E-001	3.57850E+000	9	...........
	35	0.48	4.42234E-001	-9.84884E-005	0.00000E+000	-4.35549E-005	-5.99601E-002	4.42323E-001	3.57850E+000	9	...........
	36	0.493333	4.31728E-001	-9.93760E-005	0.00000E+000	-4.29034E-005	-5.99601E-002	4.31807E-001	3.57850E+000	9	...........
	37	0.506667	4.21299E-001	-9.89322E-005	0.00000E+000	-4.16800E-005	-5.99601E-002	4.21375E-001	3.57850E+000	9	...........
	38	0.52	4.10940E-001	-9.89332E-005	0.00000E+000	-4.06556E-005	-5.99601E-002	4.11004E-001	3.57850E+000	9	...........
	39	0.533333	4.00645E-001	-9.94521E-005	0.00000E+000	-3.98450E-005	-5.99601E-002	4.00710E-001	3.57850E+000	9	...........
	40	0.546667	3.90428E-001	-9.83081E-005	0.00000E+000	-3.83822E-005	-5.99601E-002	3.90493E-001	3.57850E+000	9	...........
	41	0.56	3.80274E-001	-9.87999E-005	0.00000E+000	-3.75710E-005	-5.99601E-002	3.80342E-001	3.57850E+000	9	...........
	42	0.573333	3.70198E-001	-9.88020E-005	0.00000E+000	-3.65763E-005	-5.99601E-002	3.70258E-001	3.57850E+000	9	...........
	43	0.586667	3.60172E-001	-9.96584E-005	0.00000E+000	-3.58942E-005	-5.99601E-002	3.60242E-001	3.57850E+000	9	...........
	44	0.6	3.50227E-001	-9.83748E-005	0.00000E+000	-3.44535E-005	-5.99601E-002	3.50293E-001	3.57850E+000	9	...........
	45	0.613333	3.40347E-001	-9.89624E-005	0.00000E+000	-3.36816E-005	-5.99601E-002	3.40404E-001	3.57850E+000	9	...........
	46	0.626667	3.30524E-001	-9.91500E-005	0.00000E+000	-3.27715E-005	-5.99601E-002	3.30581E-001	3.57850E+000	9	...........
	47	0.64	3.20760E-001	-9.82779E-005	0.00000E+000	-3.15236E-005	-5.99601E-002	3.20818E-001	3.57850E+000	9	...........
	48	0.653333	3.11055E-001	-9.88530E-005	0.00000E+000	-3.07487E-005	-5.99601E-002	3.11111E-001	3.57850E+000	9	...........
	49	0.666667	3.01408E-001	-9.94396E-005	0.00000E+000	-2.99719E-005	-5.99601E-002	3.01463E-001	3.57850E+000	9	...........
	50	0.68	2.91818E-001	-9.93146E-005	0.00000E+000	-2.89818E-005	-5.99601E-002	2.91874E-001	3.57850E+000	9	...........
	51	0.693333	2.82288E-001	-9.85061E-005	0.00000E+000	-2.78071E-005	-5.99601E-002	2.82337E-001	3.57850E+000	9	...........
	52	0.706667	2.72808E-001	-9.83123E-005	0.00000E+000	-2.68204E-005	-5.99601E-002	2.72855E-001	3.57850E+000	9	...........
	53	0.72	2.63382E-001	-9.89978E-005	0.00000E+000	-2.60742E-005	-5.99601E-002	2.63427E-001	3.57850E+000	9	...........
	54	0.733333	2.54009E-001	-9.82091E-005	0.00000E+000	-2.49460E-005	-5.99601E-002	2.54050E-001	3.57850E+000	9	...........
	55	0.746667	2.44690E-001	-9.86603E-005	0.00000E+000	-2.41412E-005	-5.99601E-002	2.44725E-001	3.57850E+000	9	...........
	56	0.76	2.35417E-001	-9.91854E-005	0.00000E+000	-2.33500E-005	-5.99601E-002	2.35453E-001	3.57850E+000	9	...........
	57	0.773333	2.26201E-001	-9.80331E-005	0.00000E+000	-2.21752E-005	-5.99601E-002	2.26233E-001	3.57850E+000	9	...........
	58	0.786667	2.17034E-001	-9.98209E-005	0.00000E+000	-2.16645E-005	-5.99601E-002	2.17074E-001	3.57850E+000	9	...........
	59	0.8	2.07935E-001	-9.78090E-005	0.00000E+000	-2.03379E-005	-5.99601E-002	2.07962E-001	3.57850E+000	9	...........
	60	0.813333	1.98882E-001	-9.89499E-005	0.00000E+000	-1.96794E-005	-5.99601E-002	1.98918E-001	3.57850E+000	9	...........
	61	0.826667	1.89898E-001	-9.93906E-005	0.00000E+000	-1.88741E-005	-5.99601E-002	1.89927E-001	3.57850E+000	9	...........
	62	0.84	1.80973E-001	-1.00029E-004	0.00000E+000	-1.81026E-005	-5.99601E-002	1.80998E-001	3.57850E+000	9	...........
	63	0.853333	1.72116E-001	-9.86947E-005	0.00000E+000	-1.69870E-005	-5.99601E-002	1.72143E-001	3.57850E+000	9	...........
	64	0.866667	1.63327E-001	-9.85842E-005	0.00000E+000	-1.61015E-005	-5.99601E-002	1.63351E-001	3.57850E+000	9	...........
	65	0.88	1.54607E-001	-9.91656E-005	0.00000E+000	-1.53317E-005	-5.99601E-002	1.54626E-001	3.57850E+000	9	...........
	66	0.893333	1.45961E-001	-9.87863E-005	0.00000E+000	-1.44190E-005	-5.99601E-002	1.45982E-001	3.57850E+000	9	...........
	67	0.906667	1.37382E-001	-9.91531E-005	0.00000E+000	-1.36218E-005	-5.99601E-002	1.37400E-001	3.57850E+000	9	...........
	68	0.92	1.28879E-001	-9.97688E-005	0.00000E+000	-1.28581E-005	-5.99601E-002	1.28890E-001	3.57850E+000	9	...........
	69	0.933333	1.20455E-001	-9.96886E-005	0.00000E+000	-1.20080E-005	-5.99601E-002	1.20470E-001	3.57850E+000	9	...........
	70	0.946667	1.12107E-001	-9.98616E-005	0.00000E+000	-1.11951E-005	-5.99601E-002	1.12115E-001	3.57850E+000	9	...........
	71	0.96	1.03832E-001	-9.85352E-005	0.00000E+000	-1.02311E-005	-5.99601E-002	1.03847E-001	3.57850E+000	9	...........
	72	0.97333	9.56358E-002	-9.78601E-005	0.00000E+000	-9.35893E-006	-5.99601E-002	9.56406E-002	3.57850E+000	9	...........
	73	0.98667	8.75179E-002	-9.95157E-005	0.00000E+000	-8.70940E-006	-5.99601E-002	8.75207E-002	3.57850E+000	9	...........
	74	1	7.94746E-002	-1.00159E-004	0.00000E+000	-7.96006E-006	-5.99601E-002	7.94744E-002	3.57850E+000	9	...........
	75	1.01333	7.15028E-002	-9.87332E-005	0.00000E+000	-7.05970E-006	-5.99601E-002	7.15036E-002	3.57850E+000	9	...........
	76	1.02667	6.36061E-002	-9.90031E-005	0.00000E+000	-6.29719E-006	-5.99601E-002	6.36053E-002	3.57850E+000	9	...........
	77	1.04	5.57739E-002	-9.95271E-005	0.00000E+000	-5.55102E-006	-5.99601E-002	5.57733E-002	3.57850E+000	9	...........
	78	1.05333	4.80380E-002	-9.92677E-005	0.00000E+000	-4.76863E-006	-5.99601E-002	4.80345E-002	3.57850E+000	9	...........
	79	1.06667	4.03726E-002	-9.88905E-005	0.00000E+000	-3.99247E-006	-5.99601E-002	4.03632E-002	3.57850E+000	9	...........
	80	1.08	3.27561E-002	-9.90645E-005	0.00000E+000	-3.24497E-006	-5.99601E-002	3.27412E-002	3.57850E+000	9	...........
	81	1.09333	2.52052E-002	-9.90322E-005	0.00000E+000	-2.49613E-006	-5.99601E-002	2.51885E-002	3.57850E+000	9	...........
	82	1.10667	1.77239E-002	-9.84144E-005	0.00000E+000	-1.74429E-006	-5.99601E-002	1.77028E-002	3.57850E+000	9	...........
	83	1.12	1.03114E-002	-9.89374E-005	0.00000E+000	-1.02018E-006	-5.99601E-002	1.02843E-002	3.57850E+000	9	...........
	84	1.13333	2.96839E-003	-9.82206E-005	0.00000E+000	-2.91557E-007	-5.99601E-002	2.93500E-003	3.57850E+000	9	...........
STARTTIMEOFFSET	QUANT	2319.379	Start Time Offset (s)
