EXPLAIN
TAG	PWR800_DISCHARGE
TITLE	LABEL	PWR Cyclic Charge Discharge (Cell) - Discharge Step	Test &Identifier
DATE	LABEL	13-7-2017	Date
TIME	LABEL	15:51:44	Time
NOTES	NOTES	2	&Notes...
	supercap test cell
	6M KOH
PSTAT	PSTAT	IFC5000-01520	Potentiostat
CAPACITY	QUANT	1.00000E-003	Capacity (A-hr)
CELLTYPE	SELECTOR	1	&Cell Type
WORKINGCONNECTION	SELECTOR	0	&Working Lead
MAXDISCHARGETIME	VARIABLEANDUNITS	1.00000E+002	s	1.00000E+002	second(s)	Max &Discharge Time
DISCHARGEMODE	MULTIPARAM	0	1.00000E-004	&Discharge Mode	Constant Current	Amp(s)
SAMPLETIME	QUANT	1.00000E-002	Sa&mple Period (s)
DISCHARGESTOPAT1	MULTIPARAM	3	0.00000E+000	Discharge Stop At &1	Voltage < Limit	V
DISCHARGESTOPAT2	MULTIPARAM	0	0.00000E+000	Discharge Stop At &2	None	N/A
AESBHCSELECTOR	TOGGLE	F	Save Both Half Cells
IRCOMP	TOGGLE	F	IR &Measure
EOC	QUANT	0	Open Circuit (V)
SEQUENCER	TOGGLE	TRUE	Run as Sequence
PSTATMODEL	IQUANT	53	Pstat Model
PSTATSECTION	LABEL	IFC5000-01520	Pstat Section
PSTATSERIALNO	LABEL	01520	Pstat Serial Number
CTRLMODE	IQUANT	0	Control Mode
ELECTROMETER	IQUANT	1	RE=0 or CS=1
IESTAB	IQUANT	0	I/E Stability
CASPEED	IQUANT	4	Control Amp Speed
CONVENTION	IQUANT	1	Current Convention
ICHRANGE	IQUANT	2	Ich Range
ICHRANGEMODE	TOGGLE	T	Ich Auto Range
ICHOFFSETENABLE	TOGGLE	F	Ich Offset Enable
ICHOFFSET	QUANT	0	Ich Offset (V)
ICHFILTER	IQUANT	1	Ich Filter
VCHRANGE	IQUANT	2	Vch Range
VCHRANGEMODE	TOGGLE	T	Vch Auto Range
VCHOFFSETENABLE	TOGGLE	F	Vch Offset Enable
VCHOFFSET	QUANT	0	Vch Offset (V)
VCHFILTER	IQUANT	1	Vch Filter
IERANGELOWERLIMIT	IQUANT	9	I/E Range Lower Limit
IERANGEMODE	TOGGLE	F	I/E AutoRange
IERANGE	IQUANT	9	I/E Range
ACHSELECT	IQUANT	1	Ach Select
ACHRANGE	IQUANT	2	Ach Range
ACHOFFSETENABLE	TOGGLE	F	Ach Offset Enable
ACHOFFSET	QUANT	0	Ach Offset (V)
ACHFILTER	IQUANT	1	Ach Filter
CABLEID	IQUANT	14	Cable ID
DCCALDATE	LABEL	5-7-2017	DC Calibration Date
ACCALDATE	LABEL	12/3/2015	AC Calibration Date
FRAMEWORKVERSION	QUANT	7.01	Framework Version
INSTRUMENTVERSION	LABEL	4.00	Instrument Version
CURVE	TABLE	86
	Pt	T	Vf	Im	Vu	Pwr	Sig	Ach	Temp	IERange	Over
	#	s	V	A	V	W	V	V	deg C	#	bits
	0	0.013333	8.46049E-001	-9.90864E-005	0.00000E+000	-8.38320E-005	-5.99601E-002	8.46408E-001	3.57930E+000	9	...........
	1	0.026667	8.31768E-001	-9.92156E-005	0.00000E+000	-8.25243E-005	-5.99601E-002	8.32108E-001	3.57930E+000	9	...........
	2	0.04	8.18316E-001	-9.86426E-005	0.00000E+000	-8.07208E-005	-5.99601E-002	8.18628E-001	3.57930E+000	9	...........
	3	0.053333	8.05392E-001	-9.82789E-005	0.00000E+000	-7.91530E-005	-5.99601E-002	8.05730E-001	3.57930E+000	9	...........
	4	0.066667	7.92899E-001	-9.79570E-005	0.00000E+000	-7.76701E-005	-5.99601E-002	7.93202E-001	3.57930E+000	9	...........
	5	0.08	7.80650E-001	-9.82883E-005	0.00000E+000	-7.67288E-005	-5.99601E-002	7.80964E-001	3.57930E+000	9	...........
	6	0.093333	7.68623E-001	-9.93677E-005	0.00000E+000	-7.63763E-005	-5.99601E-002	7.68949E-001	3.57930E+000	9	...........
	7	0.106667	7.56745E-001	-9.90635E-005	0.00000E+000	-7.49658E-005	-5.99601E-002	7.57050E-001	3.57930E+000	9	...........
	8	0.12	7.44977E-001	-9.87853E-005	0.00000E+000	-7.35928E-005	-5.99601E-002	7.45261E-001	3.57930E+000	9	...........
	9	0.133333	7.33280E-001	-9.93656E-005	0.00000E+000	-7.28628E-005	-5.99601E-002	7.33596E-001	3.57930E+000	9	...........
	10	0.146667	7.21716E-001	-9.85259E-005	0.00000E+000	-7.11077E-005	-5.99601E-002	7.21981E-001	3.57930E+000	9	...........
	11	0.16	7.10106E-001	-9.92750E-005	0.00000E+000	-7.04958E-005	-5.99601E-002	7.10393E-001	3.57930E+000	9	...........
	12	0.173333	6.98601E-001	-9.84040E-005	0.00000E+000	-6.87451E-005	-5.99601E-002	6.98892E-001	3.57930E+000	9	...........
	13	0.186667	6.87108E-001	-9.81185E-005	0.00000E+000	-6.74180E-005	-5.99601E-002	6.87403E-001	3.57930E+000	9	...........
	14	0.2	6.75667E-001	-9.97251E-005	0.00000E+000	-6.73810E-005	-5.99601E-002	6.75962E-001	3.57930E+000	9	...........
	15	0.213333	6.64234E-001	-9.81393E-005	0.00000E+000	-6.51875E-005	-5.99601E-002	6.64555E-001	3.57930E+000	9	...........
	16	0.226667	6.52861E-001	-9.83362E-005	0.00000E+000	-6.42000E-005	-5.99601E-002	6.53142E-001	3.57930E+000	9	...........
	17	0.24	6.41474E-001	-9.82133E-005	0.00000E+000	-6.30012E-005	-5.99601E-002	6.41751E-001	3.57930E+000	9	...........
	18	0.253333	6.30109E-001	-1.00078E-004	0.00000E+000	-6.30603E-005	-5.99601E-002	6.30386E-001	3.57930E+000	9	...........
	19	0.266667	6.18806E-001	-9.81049E-005	0.00000E+000	-6.07080E-005	-5.99601E-002	6.19058E-001	3.57930E+000	9	...........
	20	0.28	6.07442E-001	-9.89655E-005	0.00000E+000	-6.01158E-005	-5.99601E-002	6.07725E-001	3.57930E+000	9	...........
	21	0.293333	5.96188E-001	-9.87134E-005	0.00000E+000	-5.88518E-005	-5.99601E-002	5.96466E-001	3.57930E+000	9	...........
	22	0.306667	5.84919E-001	-9.96386E-005	0.00000E+000	-5.82805E-005	-5.99601E-002	5.85191E-001	3.57930E+000	9	...........
	23	0.32	5.73720E-001	-9.87322E-005	0.00000E+000	-5.66446E-005	-5.99601E-002	5.73968E-001	3.57930E+000	9	...........
	24	0.333333	5.62499E-001	-9.88853E-005	0.00000E+000	-5.56229E-005	-5.99601E-002	5.62790E-001	3.57930E+000	9	...........
	25	0.346667	5.51361E-001	-9.78611E-005	0.00000E+000	-5.39569E-005	-5.99601E-002	5.51640E-001	3.57930E+000	9	...........
	26	0.36	5.40282E-001	-9.82685E-005	0.00000E+000	-5.30928E-005	-5.99601E-002	5.40545E-001	3.57930E+000	9	...........
	27	0.373333	5.29181E-001	-9.81477E-005	0.00000E+000	-5.19379E-005	-5.99601E-002	5.29456E-001	3.57930E+000	9	...........
	28	0.386667	5.18218E-001	-9.73121E-005	0.00000E+000	-5.04289E-005	-5.99601E-002	5.18457E-001	3.57930E+000	9	...........
	29	0.4	5.07224E-001	-9.91072E-005	0.00000E+000	-5.02696E-005	-5.99601E-002	5.07513E-001	3.57930E+000	9	...........
	30	0.413333	4.96344E-001	-9.89780E-005	0.00000E+000	-4.91271E-005	-5.99601E-002	4.96599E-001	3.57930E+000	9	...........
	31	0.426667	4.85666E-001	-9.87134E-005	0.00000E+000	-4.79417E-005	-5.99601E-002	4.85859E-001	3.57930E+000	9	...........
	32	0.44	4.75116E-001	-9.89197E-005	0.00000E+000	-4.69983E-005	-5.99601E-002	4.75215E-001	3.57930E+000	9	...........
	33	0.453333	4.64410E-001	-9.87582E-005	0.00000E+000	-4.58643E-005	-5.99601E-002	4.64506E-001	3.57930E+000	9	...........
	34	0.466667	4.53769E-001	-9.87686E-005	0.00000E+000	-4.48182E-005	-5.99601E-002	4.53858E-001	3.57930E+000	9	...........
	35	0.48	4.43200E-001	-9.76955E-005	0.00000E+000	-4.32987E-005	-5.99601E-002	4.43295E-001	3.57930E+000	9	...........
	36	0.493333	4.32706E-001	-9.86978E-005	0.00000E+000	-4.27071E-005	-5.99601E-002	4.32792E-001	3.57930E+000	9	...........
	37	0.506667	4.22271E-001	-9.88593E-005	0.00000E+000	-4.17454E-005	-5.99601E-002	4.22360E-001	3.57930E+000	9	...........
	38	0.52	4.11921E-001	-9.91625E-005	0.00000E+000	-4.08471E-005	-5.99601E-002	4.12005E-001	3.57920E+000	9	...........
	39	0.533333	4.01643E-001	-9.94438E-005	0.00000E+000	-3.99409E-005	-5.99601E-002	4.01714E-001	3.57920E+000	9	...........
	40	0.546667	3.91426E-001	-9.77809E-005	0.00000E+000	-3.82740E-005	-5.99601E-002	3.91499E-001	3.57920E+000	9	...........
	41	0.56	3.81285E-001	-9.82477E-005	0.00000E+000	-3.74603E-005	-5.99601E-002	3.81354E-001	3.57920E+000	9	...........
	42	0.573333	3.71213E-001	-9.89489E-005	0.00000E+000	-3.67311E-005	-5.99601E-002	3.71281E-001	3.57920E+000	9	...........
	43	0.586667	3.61198E-001	-1.00182E-004	0.00000E+000	-3.61857E-005	-5.99601E-002	3.61272E-001	3.57920E+000	9	...........
	44	0.6	3.51262E-001	-9.89260E-005	0.00000E+000	-3.47489E-005	-5.99601E-002	3.51329E-001	3.57920E+000	9	...........
	45	0.613333	3.41382E-001	-9.79455E-005	0.00000E+000	-3.34369E-005	-5.99601E-002	3.41447E-001	3.57920E+000	9	...........
	46	0.626667	3.31568E-001	-9.82331E-005	0.00000E+000	-3.25709E-005	-5.99601E-002	3.31625E-001	3.57920E+000	9	...........
	47	0.64	3.21808E-001	-9.89103E-005	0.00000E+000	-3.18302E-005	-5.99601E-002	3.21870E-001	3.57920E+000	9	...........
	48	0.653333	3.12106E-001	-9.84227E-005	0.00000E+000	-3.07184E-005	-5.99601E-002	3.12170E-001	3.57920E+000	9	...........
	49	0.666667	3.02467E-001	-1.00022E-004	0.00000E+000	-3.02533E-005	-5.99601E-002	3.02522E-001	3.57920E+000	9	...........
	50	0.68	2.92879E-001	-9.88426E-005	0.00000E+000	-2.89490E-005	-5.99601E-002	2.92936E-001	3.57920E+000	9	...........
	51	0.693333	2.83353E-001	-9.87634E-005	0.00000E+000	-2.79849E-005	-5.99601E-002	2.83405E-001	3.57920E+000	9	...........
	52	0.706667	2.73870E-001	-9.93958E-005	0.00000E+000	-2.72216E-005	-5.99601E-002	2.73925E-001	3.57920E+000	9	...........
	53	0.72	2.64445E-001	-9.96365E-005	0.00000E+000	-2.63484E-005	-5.99601E-002	2.64495E-001	3.57920E+000	9	...........
	54	0.733333	2.55077E-001	-9.89582E-005	0.00000E+000	-2.52420E-005	-5.99601E-002	2.55115E-001	3.57920E+000	9	...........
	55	0.746667	2.45759E-001	-9.89166E-005	0.00000E+000	-2.43096E-005	-5.99601E-002	2.45799E-001	3.57920E+000	9	...........
	56	0.76	2.36491E-001	-9.90447E-005	0.00000E+000	-2.34232E-005	-5.99601E-002	2.36527E-001	3.57920E+000	9	...........
	57	0.773333	2.27275E-001	-9.95605E-005	0.00000E+000	-2.26276E-005	-5.99601E-002	2.27312E-001	3.57920E+000	9	...........
	58	0.786667	2.18124E-001	-9.87988E-005	0.00000E+000	-2.15504E-005	-5.99601E-002	2.18156E-001	3.57920E+000	9	...........
	59	0.8	2.09019E-001	-9.89405E-005	0.00000E+000	-2.06805E-005	-5.99601E-002	2.09048E-001	3.57920E+000	9	...........
	60	0.813333	1.99971E-001	-9.82508E-005	0.00000E+000	-1.96474E-005	-5.99601E-002	2.00005E-001	3.57920E+000	9	...........
	61	0.826667	1.90987E-001	-9.78549E-005	0.00000E+000	-1.86891E-005	-5.99601E-002	1.91017E-001	3.57920E+000	9	...........
	62	0.84	1.82057E-001	-9.90354E-005	0.00000E+000	-1.80301E-005	-5.99601E-002	1.82088E-001	3.57920E+000	9	...........
	63	0.853333	1.73193E-001	-9.89676E-005	0.00000E+000	-1.71405E-005	-5.99601E-002	1.73220E-001	3.57920E+000	9	...........
	64	0.866667	1.64398E-001	-9.83925E-005	0.00000E+000	-1.61755E-005	-5.99601E-002	1.64422E-001	3.57920E+000	9	...........
	65	0.88	1.55672E-001	-9.89114E-005	0.00000E+000	-1.53977E-005	-5.99601E-002	1.55688E-001	3.57920E+000	9	...........
	66	0.893333	1.47017E-001	-9.81456E-005	0.00000E+000	-1.44291E-005	-5.99601E-002	1.47031E-001	3.57920E+000	9	...........
	67	0.906667	1.38430E-001	-9.85238E-005	0.00000E+000	-1.36386E-005	-5.99601E-002	1.38445E-001	3.57920E+000	9	...........
	68	0.92	1.29918E-001	-9.79580E-005	0.00000E+000	-1.27265E-005	-5.99601E-002	1.29934E-001	3.57920E+000	9	...........
	69	0.933333	1.21487E-001	-9.92854E-005	0.00000E+000	-1.20619E-005	-5.99601E-002	1.21496E-001	3.57920E+000	9	...........
	70	0.946667	1.13122E-001	-9.85113E-005	0.00000E+000	-1.11438E-005	-5.99601E-002	1.13134E-001	3.57920E+000	9	...........
	71	0.96	1.04842E-001	-9.89312E-005	0.00000E+000	-1.03722E-005	-5.99601E-002	1.04855E-001	3.57920E+000	9	...........
	72	0.97333	9.66387E-002	-9.82914E-005	0.00000E+000	-9.49876E-006	-5.99601E-002	9.66493E-002	3.57920E+000	9	...........
	73	0.98667	8.85130E-002	-9.90260E-005	0.00000E+000	-8.76508E-006	-5.99601E-002	8.85133E-002	3.57920E+000	9	...........
	74	1	8.04614E-002	-9.83498E-005	0.00000E+000	-7.91336E-006	-5.99601E-002	8.04572E-002	3.57920E+000	9	...........
	75	1.01333	7.24808E-002	-9.86696E-005	0.00000E+000	-7.15165E-006	-5.99601E-002	7.24789E-002	3.57920E+000	9	...........
	76	1.02667	6.45776E-002	-9.81331E-005	0.00000E+000	-6.33720E-006	-5.99601E-002	6.45725E-002	3.57920E+000	9	...........
	77	1.04	5.67459E-002	-9.85769E-005	0.00000E+000	-5.59384E-006	-5.99601E-002	5.67384E-002	3.57920E+000	9	...........
	78	1.05333	4.90007E-002	-9.84488E-005	0.00000E+000	-4.82405E-006	-5.99601E-002	4.89886E-002	3.57920E+000	9	...........
	79	1.06667	4.13292E-002	-9.87853E-005	0.00000E+000	-4.08271E-006	-5.99601E-002	4.13223E-002	3.57920E+000	9	...........
	80	1.08	3.37081E-002	-9.89114E-005	0.00000E+000	-3.33412E-006	-5.99601E-002	3.36952E-002	3.57920E+000	9	...........
	81	1.09333	2.61502E-002	-9.99116E-005	0.00000E+000	-2.61270E-006	-5.99601E-002	2.61348E-002	3.57920E+000	9	...........
	82	1.10667	1.86679E-002	-9.93927E-005	0.00000E+000	-1.85545E-006	-5.99601E-002	1.86461E-002	3.57920E+000	9	...........
	83	1.12	1.12512E-002	-9.94271E-005	0.00000E+000	-1.11868E-006	-5.99601E-002	1.12223E-002	3.57920E+000	9	...........
	84	1.13333	3.90094E-003	-9.91833E-005	0.00000E+000	-3.86908E-007	-5.99601E-002	3.86553E-003	3.57920E+000	9	...........
	85	1.135	-2.02357E-004	-1.00411E-004	0.00000E+000	2.03188E-008	-5.99601E-002	-2.51370E-004	3.57920E+000	9	...........
STARTTIMEOFFSET	QUANT	2245.13	Start Time Offset (s)
