EXPLAIN
TAG	PWR800_DISCHARGE
TITLE	LABEL	PWR Cyclic Charge Discharge (Cell) - Discharge Step	Test &Identifier
DATE	LABEL	13-7-2017	Date
TIME	LABEL	15:34:58	Time
NOTES	NOTES	2	&Notes...
	supercap test cell
	6M KOH
PSTAT	PSTAT	IFC5000-01520	Potentiostat
CAPACITY	QUANT	1.00000E-003	Capacity (A-hr)
CELLTYPE	SELECTOR	1	&Cell Type
WORKINGCONNECTION	SELECTOR	0	&Working Lead
MAXDISCHARGETIME	VARIABLEANDUNITS	1.00000E+002	s	1.00000E+002	second(s)	Max &Discharge Time
DISCHARGEMODE	MULTIPARAM	0	1.00000E-004	&Discharge Mode	Constant Current	Amp(s)
SAMPLETIME	QUANT	1.00000E-002	Sa&mple Period (s)
DISCHARGESTOPAT1	MULTIPARAM	3	0.00000E+000	Discharge Stop At &1	Voltage < Limit	V
DISCHARGESTOPAT2	MULTIPARAM	0	0.00000E+000	Discharge Stop At &2	None	N/A
AESBHCSELECTOR	TOGGLE	F	Save Both Half Cells
IRCOMP	TOGGLE	F	IR &Measure
EOC	QUANT	0	Open Circuit (V)
SEQUENCER	TOGGLE	TRUE	Run as Sequence
PSTATMODEL	IQUANT	53	Pstat Model
PSTATSECTION	LABEL	IFC5000-01520	Pstat Section
PSTATSERIALNO	LABEL	01520	Pstat Serial Number
CTRLMODE	IQUANT	0	Control Mode
ELECTROMETER	IQUANT	1	RE=0 or CS=1
IESTAB	IQUANT	0	I/E Stability
CASPEED	IQUANT	4	Control Amp Speed
CONVENTION	IQUANT	1	Current Convention
ICHRANGE	IQUANT	2	Ich Range
ICHRANGEMODE	TOGGLE	T	Ich Auto Range
ICHOFFSETENABLE	TOGGLE	F	Ich Offset Enable
ICHOFFSET	QUANT	0	Ich Offset (V)
ICHFILTER	IQUANT	1	Ich Filter
VCHRANGE	IQUANT	2	Vch Range
VCHRANGEMODE	TOGGLE	T	Vch Auto Range
VCHOFFSETENABLE	TOGGLE	F	Vch Offset Enable
VCHOFFSET	QUANT	0	Vch Offset (V)
VCHFILTER	IQUANT	1	Vch Filter
IERANGELOWERLIMIT	IQUANT	9	I/E Range Lower Limit
IERANGEMODE	TOGGLE	F	I/E AutoRange
IERANGE	IQUANT	9	I/E Range
ACHSELECT	IQUANT	1	Ach Select
ACHRANGE	IQUANT	2	Ach Range
ACHOFFSETENABLE	TOGGLE	F	Ach Offset Enable
ACHOFFSET	QUANT	0	Ach Offset (V)
ACHFILTER	IQUANT	1	Ach Filter
CABLEID	IQUANT	14	Cable ID
DCCALDATE	LABEL	5-7-2017	DC Calibration Date
ACCALDATE	LABEL	12/3/2015	AC Calibration Date
FRAMEWORKVERSION	QUANT	7.01	Framework Version
INSTRUMENTVERSION	LABEL	4.00	Instrument Version
CURVE	TABLE	87
	Pt	T	Vf	Im	Vu	Pwr	Sig	Ach	Temp	IERange	Over
	#	s	V	A	V	W	V	V	deg C	#	bits
	0	0.013333	8.48599E-001	-9.91458E-005	0.00000E+000	-8.41350E-005	-5.99601E-002	8.48949E-001	3.58210E+000	9	...........
	1	0.026667	8.34467E-001	-9.87645E-005	0.00000E+000	-8.24157E-005	-5.99601E-002	8.34821E-001	3.58210E+000	9	...........
	2	0.04	8.21227E-001	-9.86978E-005	0.00000E+000	-8.10533E-005	-5.99601E-002	8.21552E-001	3.58210E+000	9	...........
	3	0.053333	8.08508E-001	-9.91958E-005	0.00000E+000	-8.02006E-005	-5.99601E-002	8.08817E-001	3.58030E+000	9	...........
	4	0.066667	7.96238E-001	-9.87384E-005	0.00000E+000	-7.86193E-005	-5.99601E-002	7.96532E-001	3.57850E+000	9	...........
	5	0.08	7.84232E-001	-9.91031E-005	0.00000E+000	-7.77199E-005	-5.99601E-002	7.84515E-001	3.57850E+000	9	...........
	6	0.093333	7.72452E-001	-9.90947E-005	0.00000E+000	-7.65459E-005	-5.99601E-002	7.72756E-001	3.57850E+000	9	...........
	7	0.106667	7.60835E-001	-9.85821E-005	0.00000E+000	-7.50048E-005	-5.99601E-002	7.61124E-001	3.57850E+000	9	...........
	8	0.12	7.49335E-001	-9.87332E-005	0.00000E+000	-7.39842E-005	-5.99601E-002	7.49625E-001	3.57850E+000	9	...........
	9	0.133333	7.37935E-001	-9.88228E-005	0.00000E+000	-7.29248E-005	-5.99601E-002	7.38223E-001	3.57850E+000	9	...........
	10	0.146667	7.26626E-001	-9.90333E-005	0.00000E+000	-7.19602E-005	-5.99601E-002	7.26899E-001	3.57850E+000	9	...........
	11	0.16	7.15347E-001	-9.81643E-005	0.00000E+000	-7.02216E-005	-5.99601E-002	7.15653E-001	3.57850E+000	9	...........
	12	0.173333	7.04134E-001	-9.83852E-005	0.00000E+000	-6.92764E-005	-5.99601E-002	7.04417E-001	3.57850E+000	9	...........
	13	0.186667	6.92939E-001	-9.84217E-005	0.00000E+000	-6.82002E-005	-5.99601E-002	6.93252E-001	3.57850E+000	9	...........
	14	0.2	6.81805E-001	-9.82560E-005	0.00000E+000	-6.69914E-005	-5.99601E-002	6.82083E-001	3.57850E+000	9	...........
	15	0.213333	6.70682E-001	-9.81300E-005	0.00000E+000	-6.58140E-005	-5.99601E-002	6.70964E-001	3.57850E+000	9	...........
	16	0.226667	6.59563E-001	-9.83165E-005	0.00000E+000	-6.48459E-005	-5.99601E-002	6.59832E-001	3.57850E+000	9	...........
	17	0.24	6.48465E-001	-9.91948E-005	0.00000E+000	-6.43243E-005	-5.99601E-002	6.48771E-001	3.57850E+000	9	...........
	18	0.253333	6.37394E-001	-9.92000E-005	0.00000E+000	-6.32295E-005	-5.99601E-002	6.37664E-001	3.57850E+000	9	...........
	19	0.266667	6.26358E-001	-9.92739E-005	0.00000E+000	-6.21810E-005	-5.99601E-002	6.26608E-001	3.57850E+000	9	...........
	20	0.28	6.15320E-001	-9.91489E-005	0.00000E+000	-6.10083E-005	-5.99601E-002	6.15561E-001	3.57850E+000	9	...........
	21	0.293333	6.04285E-001	-9.85780E-005	0.00000E+000	-5.95692E-005	-5.99601E-002	6.04537E-001	3.57850E+000	9	...........
	22	0.306667	5.93348E-001	-9.85707E-005	0.00000E+000	-5.84867E-005	-5.99601E-002	5.93587E-001	3.57850E+000	9	...........
	23	0.32	5.82354E-001	-9.89760E-005	0.00000E+000	-5.76391E-005	-5.99601E-002	5.82607E-001	3.57850E+000	9	...........
	24	0.333333	5.71443E-001	-9.87676E-005	0.00000E+000	-5.64400E-005	-5.99601E-002	5.71688E-001	3.57850E+000	9	...........
	25	0.346667	5.60532E-001	-9.81279E-005	0.00000E+000	-5.50038E-005	-5.99601E-002	5.60791E-001	3.57850E+000	9	...........
	26	0.36	5.49676E-001	-9.94386E-005	0.00000E+000	-5.46590E-005	-5.99601E-002	5.49915E-001	3.57850E+000	9	...........
	27	0.373333	5.38852E-001	-9.93260E-005	0.00000E+000	-5.35220E-005	-5.99601E-002	5.39089E-001	3.57850E+000	9	...........
	28	0.386667	5.28037E-001	-9.91447E-005	0.00000E+000	-5.23521E-005	-5.99601E-002	5.28296E-001	3.57850E+000	9	...........
	29	0.4	5.17335E-001	-9.88270E-005	0.00000E+000	-5.11267E-005	-5.99601E-002	5.17546E-001	3.57850E+000	9	...........
	30	0.413333	5.06596E-001	-9.86478E-005	0.00000E+000	-4.99746E-005	-5.99601E-002	5.06846E-001	3.57850E+000	9	...........
	31	0.426667	4.95977E-001	-9.93396E-005	0.00000E+000	-4.92702E-005	-5.99601E-002	4.96203E-001	3.57850E+000	9	...........
	32	0.44	4.85517E-001	-9.89489E-005	0.00000E+000	-4.80413E-005	-5.99601E-002	4.85694E-001	3.57850E+000	9	...........
	33	0.453333	4.75193E-001	-9.85915E-005	0.00000E+000	-4.68500E-005	-5.99601E-002	4.75291E-001	3.57850E+000	9	...........
	34	0.466667	4.64716E-001	-9.94167E-005	0.00000E+000	-4.62005E-005	-5.99601E-002	4.64810E-001	3.57850E+000	9	...........
	35	0.48	4.54297E-001	-9.91145E-005	0.00000E+000	-4.50274E-005	-5.99601E-002	4.54388E-001	3.57850E+000	9	...........
	36	0.493333	4.43936E-001	-9.87738E-005	0.00000E+000	-4.38493E-005	-5.99601E-002	4.44029E-001	3.57850E+000	9	...........
	37	0.506667	4.33637E-001	-9.84019E-005	0.00000E+000	-4.26707E-005	-5.99601E-002	4.33735E-001	3.57850E+000	9	...........
	38	0.52	4.23408E-001	-9.97022E-005	0.00000E+000	-4.22147E-005	-5.99601E-002	4.23495E-001	3.57850E+000	9	...........
	39	0.533333	4.13243E-001	-9.93958E-005	0.00000E+000	-4.10747E-005	-5.99601E-002	4.13325E-001	3.57850E+000	9	...........
	40	0.546667	4.03138E-001	-9.87978E-005	0.00000E+000	-3.98292E-005	-5.99601E-002	4.03213E-001	3.57850E+000	9	...........
	41	0.56	3.93104E-001	-9.80456E-005	0.00000E+000	-3.85421E-005	-5.99601E-002	3.93170E-001	3.57850E+000	9	...........
	42	0.573333	3.83123E-001	-9.90072E-005	0.00000E+000	-3.79320E-005	-5.99601E-002	3.83189E-001	3.57850E+000	9	...........
	43	0.586667	3.73203E-001	-9.85092E-005	0.00000E+000	-3.67639E-005	-5.99601E-002	3.73277E-001	3.57850E+000	9	...........
	44	0.6	3.63347E-001	-9.97147E-005	0.00000E+000	-3.62311E-005	-5.99601E-002	3.63416E-001	3.57850E+000	9	...........
	45	0.613333	3.53556E-001	-9.85238E-005	0.00000E+000	-3.48337E-005	-5.99601E-002	3.53616E-001	3.57850E+000	9	...........
	46	0.626667	3.43820E-001	-9.85707E-005	0.00000E+000	-3.38906E-005	-5.99601E-002	3.43885E-001	3.57850E+000	9	...........
	47	0.64	3.34151E-001	-9.86624E-005	0.00000E+000	-3.29681E-005	-5.99601E-002	3.34213E-001	3.57850E+000	9	...........
	48	0.653333	3.24532E-001	-9.96990E-005	0.00000E+000	-3.23555E-005	-5.99601E-002	3.24595E-001	3.57850E+000	9	...........
	49	0.666667	3.14961E-001	-9.97084E-005	0.00000E+000	-3.14043E-005	-5.99601E-002	3.15018E-001	3.57850E+000	9	...........
	50	0.68	3.05441E-001	-9.87645E-005	0.00000E+000	-3.01667E-005	-5.99601E-002	3.05502E-001	3.57850E+000	9	...........
	51	0.693333	2.95984E-001	-9.85863E-005	0.00000E+000	-2.91800E-005	-5.99601E-002	2.96031E-001	3.57850E+000	9	...........
	52	0.706667	2.86567E-001	-9.90458E-005	0.00000E+000	-2.83832E-005	-5.99601E-002	2.86619E-001	3.57850E+000	9	...........
	53	0.72	2.77207E-001	-9.84946E-005	0.00000E+000	-2.73034E-005	-5.99601E-002	2.77259E-001	3.57850E+000	9	...........
	54	0.733333	2.67893E-001	-9.89239E-005	0.00000E+000	-2.65010E-005	-5.99601E-002	2.67941E-001	3.57850E+000	9	...........
	55	0.746667	2.58622E-001	-9.82633E-005	0.00000E+000	-2.54130E-005	-5.99601E-002	2.58671E-001	3.57850E+000	9	...........
	56	0.76	2.49403E-001	-9.87343E-005	0.00000E+000	-2.46246E-005	-5.99601E-002	2.49445E-001	3.57850E+000	9	...........
	57	0.773333	2.40234E-001	-9.86519E-005	0.00000E+000	-2.36995E-005	-5.99601E-002	2.40272E-001	3.57850E+000	9	...........
	58	0.786667	2.31102E-001	-9.95177E-005	0.00000E+000	-2.29988E-005	-5.99601E-002	2.31142E-001	3.57850E+000	9	...........
	59	0.8	2.22024E-001	-9.87759E-005	0.00000E+000	-2.19306E-005	-5.99601E-002	2.22064E-001	3.57850E+000	9	...........
	60	0.813333	2.12995E-001	-9.90447E-005	0.00000E+000	-2.10960E-005	-5.99601E-002	2.13035E-001	3.57850E+000	9	...........
	61	0.826667	2.04018E-001	-9.84811E-005	0.00000E+000	-2.00920E-005	-5.99601E-002	2.04061E-001	3.57850E+000	9	...........
	62	0.84	1.95098E-001	-9.86259E-005	0.00000E+000	-1.92417E-005	-5.99601E-002	1.95135E-001	3.57850E+000	9	...........
	63	0.853333	1.86229E-001	-9.91364E-005	0.00000E+000	-1.84621E-005	-5.99601E-002	1.86264E-001	3.57850E+000	9	...........
	64	0.866667	1.77421E-001	-9.87145E-005	0.00000E+000	-1.75140E-005	-5.99601E-002	1.77452E-001	3.57850E+000	9	...........
	65	0.88	1.68673E-001	-9.94438E-005	0.00000E+000	-1.67734E-005	-5.99601E-002	1.68695E-001	3.57850E+000	9	...........
	66	0.893333	1.59991E-001	-9.87176E-005	0.00000E+000	-1.57940E-005	-5.99601E-002	1.60011E-001	3.57850E+000	9	...........
	67	0.906667	1.51370E-001	-9.80674E-005	0.00000E+000	-1.48445E-005	-5.99601E-002	1.51384E-001	3.57850E+000	9	...........
	68	0.92	1.42813E-001	-9.93583E-005	0.00000E+000	-1.41896E-005	-5.99601E-002	1.42827E-001	3.57850E+000	9	...........
	69	0.933333	1.34334E-001	-9.91031E-005	0.00000E+000	-1.33129E-005	-5.99601E-002	1.34341E-001	3.57850E+000	9	...........
	70	0.946667	1.25914E-001	-9.88426E-005	0.00000E+000	-1.24457E-005	-5.99601E-002	1.25928E-001	3.57850E+000	9	...........
	71	0.96	1.17572E-001	-9.79799E-005	0.00000E+000	-1.15197E-005	-5.99601E-002	1.17586E-001	3.57850E+000	9	...........
	72	0.97333	1.09303E-001	-9.85603E-005	0.00000E+000	-1.07730E-005	-5.99601E-002	1.09318E-001	3.57850E+000	9	...........
	73	0.98667	1.01108E-001	-9.87530E-005	0.00000E+000	-9.98470E-006	-5.99601E-002	1.01117E-001	3.57850E+000	9	...........
	74	1	9.29921E-002	-9.93031E-005	0.00000E+000	-9.23441E-006	-5.99601E-002	9.29954E-002	3.57850E+000	9	...........
	75	1.01333	8.49409E-002	-9.90187E-005	0.00000E+000	-8.41074E-006	-5.99601E-002	8.49477E-002	3.57850E+000	9	...........
	76	1.02667	7.69753E-002	-9.87572E-005	0.00000E+000	-7.60187E-006	-5.99601E-002	7.69784E-002	3.57850E+000	9	...........
	77	1.04	6.90734E-002	-9.86686E-005	0.00000E+000	-6.81537E-006	-5.99601E-002	6.90714E-002	3.57850E+000	9	...........
	78	1.05333	6.12380E-002	-9.92969E-005	0.00000E+000	-6.08074E-006	-5.99601E-002	6.12366E-002	3.57850E+000	9	...........
	79	1.06667	5.34771E-002	-9.91635E-005	0.00000E+000	-5.30298E-006	-5.99601E-002	5.34703E-002	3.57850E+000	9	...........
	80	1.08	4.58130E-002	-9.90031E-005	0.00000E+000	-4.53562E-006	-5.99601E-002	4.58075E-002	3.57850E+000	9	...........
	81	1.09333	3.82066E-002	-9.95740E-005	0.00000E+000	-3.80439E-006	-5.99601E-002	3.81898E-002	3.57850E+000	9	...........
	82	1.10667	3.06442E-002	-9.91843E-005	0.00000E+000	-3.03943E-006	-5.99601E-002	3.06302E-002	3.57850E+000	9	...........
	83	1.12	2.31561E-002	-9.86436E-005	0.00000E+000	-2.28420E-006	-5.99601E-002	2.31363E-002	3.57850E+000	9	...........
	84	1.13333	1.57343E-002	-9.86822E-005	0.00000E+000	-1.55269E-006	-5.99601E-002	1.57090E-002	3.57850E+000	9	...........
	85	1.14667	8.37640E-003	-9.86207E-005	0.00000E+000	-8.26086E-007	-5.99601E-002	8.34326E-003	3.57850E+000	9	...........
	86	1.15667	1.98857E-003	-9.82810E-005	0.00000E+000	-1.95439E-007	-5.99601E-002	1.95288E-003	3.57850E+000	9	...........
STARTTIMEOFFSET	QUANT	1490.691	Start Time Offset (s)
