EXPLAIN
TAG	PWR800_DISCHARGE
TITLE	LABEL	PWR Cyclic Charge Discharge (Cell) - Discharge Step	Test &Identifier
DATE	LABEL	13-7-2017	Date
TIME	LABEL	15:23:58	Time
NOTES	NOTES	2	&Notes...
	supercap test cell
	6M KOH
PSTAT	PSTAT	IFC5000-01520	Potentiostat
CAPACITY	QUANT	1.00000E-003	Capacity (A-hr)
CELLTYPE	SELECTOR	1	&Cell Type
WORKINGCONNECTION	SELECTOR	0	&Working Lead
MAXDISCHARGETIME	VARIABLEANDUNITS	1.00000E+002	s	1.00000E+002	second(s)	Max &Discharge Time
DISCHARGEMODE	MULTIPARAM	0	1.00000E-004	&Discharge Mode	Constant Current	Amp(s)
SAMPLETIME	QUANT	1.00000E-002	Sa&mple Period (s)
DISCHARGESTOPAT1	MULTIPARAM	3	0.00000E+000	Discharge Stop At &1	Voltage < Limit	V
DISCHARGESTOPAT2	MULTIPARAM	0	0.00000E+000	Discharge Stop At &2	None	N/A
AESBHCSELECTOR	TOGGLE	F	Save Both Half Cells
IRCOMP	TOGGLE	F	IR &Measure
EOC	QUANT	0	Open Circuit (V)
SEQUENCER	TOGGLE	TRUE	Run as Sequence
PSTATMODEL	IQUANT	53	Pstat Model
PSTATSECTION	LABEL	IFC5000-01520	Pstat Section
PSTATSERIALNO	LABEL	01520	Pstat Serial Number
CTRLMODE	IQUANT	0	Control Mode
ELECTROMETER	IQUANT	1	RE=0 or CS=1
IESTAB	IQUANT	0	I/E Stability
CASPEED	IQUANT	4	Control Amp Speed
CONVENTION	IQUANT	1	Current Convention
ICHRANGE	IQUANT	2	Ich Range
ICHRANGEMODE	TOGGLE	T	Ich Auto Range
ICHOFFSETENABLE	TOGGLE	F	Ich Offset Enable
ICHOFFSET	QUANT	0	Ich Offset (V)
ICHFILTER	IQUANT	1	Ich Filter
VCHRANGE	IQUANT	2	Vch Range
VCHRANGEMODE	TOGGLE	T	Vch Auto Range
VCHOFFSETENABLE	TOGGLE	F	Vch Offset Enable
VCHOFFSET	QUANT	0	Vch Offset (V)
VCHFILTER	IQUANT	1	Vch Filter
IERANGELOWERLIMIT	IQUANT	9	I/E Range Lower Limit
IERANGEMODE	TOGGLE	F	I/E AutoRange
IERANGE	IQUANT	9	I/E Range
ACHSELECT	IQUANT	1	Ach Select
ACHRANGE	IQUANT	2	Ach Range
ACHOFFSETENABLE	TOGGLE	F	Ach Offset Enable
ACHOFFSET	QUANT	0	Ach Offset (V)
ACHFILTER	IQUANT	1	Ach Filter
CABLEID	IQUANT	14	Cable ID
DCCALDATE	LABEL	5-7-2017	DC Calibration Date
ACCALDATE	LABEL	12/3/2015	AC Calibration Date
FRAMEWORKVERSION	QUANT	7.01	Framework Version
INSTRUMENTVERSION	LABEL	4.00	Instrument Version
CURVE	TABLE	89
	Pt	T	Vf	Im	Vu	Pwr	Sig	Ach	Temp	IERange	Over
	#	s	V	A	V	W	V	V	deg C	#	bits
	0	0.013333	8.50289E-001	-9.95427E-005	0.00000E+000	-8.46401E-005	-5.99601E-002	8.50636E-001	3.57900E+000	9	...........
	1	0.026667	8.36464E-001	-9.87634E-005	0.00000E+000	-8.26121E-005	-5.99601E-002	8.36843E-001	3.57900E+000	9	...........
	2	0.04	8.23530E-001	-9.87832E-005	0.00000E+000	-8.13509E-005	-5.99601E-002	8.23858E-001	3.57900E+000	9	...........
	3	0.053333	8.11134E-001	-9.85238E-005	0.00000E+000	-7.99160E-005	-5.99601E-002	8.11443E-001	3.57900E+000	9	...........
	4	0.066667	7.99166E-001	-9.86915E-005	0.00000E+000	-7.88709E-005	-5.99601E-002	7.99475E-001	3.57900E+000	9	...........
	5	0.08	7.87460E-001	-9.88874E-005	0.00000E+000	-7.78699E-005	-5.99601E-002	7.87747E-001	3.57900E+000	9	...........
	6	0.093333	7.75976E-001	-9.96292E-005	0.00000E+000	-7.73099E-005	-5.99601E-002	7.76290E-001	3.57900E+000	9	...........
	7	0.106667	7.64655E-001	-9.86707E-005	0.00000E+000	-7.54491E-005	-5.99601E-002	7.64944E-001	3.57900E+000	9	...........
	8	0.12	7.53464E-001	-9.93771E-005	0.00000E+000	-7.48770E-005	-5.99601E-002	7.53751E-001	3.57900E+000	9	...........
	9	0.133333	7.42377E-001	-9.88395E-005	0.00000E+000	-7.33762E-005	-5.99601E-002	7.42648E-001	3.57900E+000	9	...........
	10	0.146667	7.31323E-001	-9.90385E-005	0.00000E+000	-7.24291E-005	-5.99601E-002	7.31619E-001	3.57900E+000	9	...........
	11	0.16	7.20373E-001	-9.86967E-005	0.00000E+000	-7.10984E-005	-5.99601E-002	7.20650E-001	3.57900E+000	9	...........
	12	0.173333	7.09421E-001	-9.86436E-005	0.00000E+000	-6.99799E-005	-5.99601E-002	7.09716E-001	3.57900E+000	9	...........
	13	0.186667	6.98560E-001	-9.95511E-005	0.00000E+000	-6.95424E-005	-5.99601E-002	6.98860E-001	3.57900E+000	9	...........
	14	0.2	6.87706E-001	-9.94052E-005	0.00000E+000	-6.83615E-005	-5.99601E-002	6.87967E-001	3.57900E+000	9	...........
	15	0.213333	6.76877E-001	-9.91135E-005	0.00000E+000	-6.70876E-005	-5.99601E-002	6.77147E-001	3.57900E+000	9	...........
	16	0.226667	6.66053E-001	-9.86707E-005	0.00000E+000	-6.57199E-005	-5.99601E-002	6.66328E-001	3.57900E+000	9	...........
	17	0.24	6.55264E-001	-9.93135E-005	0.00000E+000	-6.50765E-005	-5.99601E-002	6.55543E-001	3.57900E+000	9	...........
	18	0.253333	6.44481E-001	-9.94292E-005	0.00000E+000	-6.40802E-005	-5.99601E-002	6.44748E-001	3.57900E+000	9	...........
	19	0.266667	6.33673E-001	-9.87186E-005	0.00000E+000	-6.25553E-005	-5.99601E-002	6.33968E-001	3.57900E+000	9	...........
	20	0.28	6.22927E-001	-9.93073E-005	0.00000E+000	-6.18612E-005	-5.99601E-002	6.23201E-001	3.57900E+000	9	...........
	21	0.293333	6.12181E-001	-9.89249E-005	0.00000E+000	-6.05600E-005	-5.99601E-002	6.12456E-001	3.57900E+000	9	...........
	22	0.306667	6.01441E-001	-9.90583E-005	0.00000E+000	-5.95777E-005	-5.99601E-002	6.01726E-001	3.57900E+000	9	...........
	23	0.32	5.90757E-001	-9.87759E-005	0.00000E+000	-5.83526E-005	-5.99601E-002	5.91032E-001	3.57900E+000	9	...........
	24	0.333333	5.80046E-001	-9.88582E-005	0.00000E+000	-5.73423E-005	-5.99601E-002	5.80322E-001	3.57900E+000	9	...........
	25	0.346667	5.69394E-001	-9.96021E-005	0.00000E+000	-5.67129E-005	-5.99601E-002	5.69663E-001	3.57900E+000	9	...........
	26	0.36	5.58738E-001	-9.87290E-005	0.00000E+000	-5.51637E-005	-5.99601E-002	5.59018E-001	3.57900E+000	9	...........
	27	0.373333	5.48135E-001	-9.81258E-005	0.00000E+000	-5.37862E-005	-5.99601E-002	5.48410E-001	3.57900E+000	9	...........
	28	0.386667	5.37575E-001	-9.77820E-005	0.00000E+000	-5.25652E-005	-5.99601E-002	5.37847E-001	3.57900E+000	9	...........
	29	0.4	5.27007E-001	-9.86811E-005	0.00000E+000	-5.20057E-005	-5.99601E-002	5.27291E-001	3.57900E+000	9	...........
	30	0.413333	5.16515E-001	-9.84842E-005	0.00000E+000	-5.08685E-005	-5.99601E-002	5.16762E-001	3.57900E+000	9	...........
	31	0.426667	5.06013E-001	-9.87072E-005	0.00000E+000	-4.99471E-005	-5.99601E-002	5.06286E-001	3.57900E+000	9	...........
	32	0.44	4.95590E-001	-9.86749E-005	0.00000E+000	-4.89022E-005	-5.99601E-002	4.95876E-001	3.57900E+000	9	...........
	33	0.453333	4.85368E-001	-9.92125E-005	0.00000E+000	-4.81545E-005	-5.99601E-002	4.85552E-001	3.57900E+000	9	...........
	34	0.466667	4.75262E-001	-9.93083E-005	0.00000E+000	-4.71975E-005	-5.99601E-002	4.75362E-001	3.57900E+000	9	...........
	35	0.48	4.64982E-001	-9.88551E-005	0.00000E+000	-4.59658E-005	-5.99601E-002	4.65078E-001	3.57900E+000	9	...........
	36	0.493333	4.54753E-001	-9.90520E-005	0.00000E+000	-4.50442E-005	-5.99601E-002	4.54843E-001	3.57900E+000	9	...........
	37	0.506667	4.44576E-001	-9.80581E-005	0.00000E+000	-4.35943E-005	-5.99601E-002	4.44669E-001	3.57900E+000	9	...........
	38	0.52	4.34456E-001	-9.88113E-005	0.00000E+000	-4.29292E-005	-5.99601E-002	4.34543E-001	3.57900E+000	9	...........
	39	0.533333	4.24389E-001	-9.89697E-005	0.00000E+000	-4.20017E-005	-5.99601E-002	4.24483E-001	3.57900E+000	9	...........
	40	0.546667	4.14396E-001	-9.88416E-005	0.00000E+000	-4.09595E-005	-5.99601E-002	4.14475E-001	3.57900E+000	9	...........
	41	0.56	4.04454E-001	-9.89312E-005	0.00000E+000	-4.00131E-005	-5.99601E-002	4.04531E-001	3.57900E+000	9	...........
	42	0.573333	3.94560E-001	-9.85217E-005	0.00000E+000	-3.88727E-005	-5.99601E-002	3.94635E-001	3.57900E+000	9	...........
	43	0.586667	3.84727E-001	-9.77601E-005	0.00000E+000	-3.76109E-005	-5.99601E-002	3.84800E-001	3.57900E+000	9	...........
	44	0.6	3.74951E-001	-9.91937E-005	0.00000E+000	-3.71927E-005	-5.99601E-002	3.75018E-001	3.57900E+000	9	...........
	45	0.613333	3.65225E-001	-9.95032E-005	0.00000E+000	-3.63410E-005	-5.99601E-002	3.65296E-001	3.57900E+000	9	...........
	46	0.626667	3.55554E-001	-9.88311E-005	0.00000E+000	-3.51398E-005	-5.99601E-002	3.55629E-001	3.57900E+000	9	...........
	47	0.64	3.45948E-001	-9.83977E-005	0.00000E+000	-3.40405E-005	-5.99601E-002	3.46012E-001	3.57900E+000	9	...........
	48	0.653333	3.36383E-001	-9.95667E-005	0.00000E+000	-3.34926E-005	-5.99601E-002	3.36450E-001	3.57923E+000	9	...........
	49	0.666667	3.26879E-001	-9.85227E-005	0.00000E+000	-3.22050E-005	-5.99601E-002	3.26938E-001	3.57990E+000	9	...........
	50	0.68	3.17422E-001	-9.97584E-005	0.00000E+000	-3.16655E-005	-5.99601E-002	3.17480E-001	3.57990E+000	9	...........
	51	0.693333	3.08009E-001	-9.97615E-005	0.00000E+000	-3.07274E-005	-5.99601E-002	3.08064E-001	3.57990E+000	9	...........
	52	0.706667	2.98646E-001	-9.92229E-005	0.00000E+000	-2.96325E-005	-5.99601E-002	2.98701E-001	3.57990E+000	9	...........
	53	0.72	2.89331E-001	-9.84852E-005	0.00000E+000	-2.84948E-005	-5.99601E-002	2.89382E-001	3.57990E+000	9	...........
	54	0.733333	2.80063E-001	-9.91125E-005	0.00000E+000	-2.77578E-005	-5.99601E-002	2.80113E-001	3.57990E+000	9	...........
	55	0.746667	2.70834E-001	-9.93083E-005	0.00000E+000	-2.68960E-005	-5.99601E-002	2.70884E-001	3.57990E+000	9	...........
	56	0.76	2.61647E-001	-9.92187E-005	0.00000E+000	-2.59603E-005	-5.99601E-002	2.61694E-001	3.57990E+000	9	...........
	57	0.773333	2.52510E-001	-9.96094E-005	0.00000E+000	-2.51524E-005	-5.99601E-002	2.52552E-001	3.57990E+000	9	...........
	58	0.786667	2.43415E-001	-9.92573E-005	0.00000E+000	-2.41607E-005	-5.99601E-002	2.43456E-001	3.57990E+000	9	...........
	59	0.8	2.34368E-001	-9.85425E-005	0.00000E+000	-2.30952E-005	-5.99601E-002	2.34402E-001	3.57990E+000	9	...........
	60	0.813333	2.25360E-001	-9.90635E-005	0.00000E+000	-2.23250E-005	-5.99601E-002	2.25395E-001	3.57990E+000	9	...........
	61	0.826667	2.16392E-001	-9.92093E-005	0.00000E+000	-2.14681E-005	-5.99601E-002	2.16429E-001	3.57990E+000	9	...........
	62	0.84	2.07473E-001	-9.93625E-005	0.00000E+000	-2.06150E-005	-5.99601E-002	2.07502E-001	3.57990E+000	9	...........
	63	0.853333	1.98607E-001	-9.94021E-005	0.00000E+000	-1.97420E-005	-5.99601E-002	1.98640E-001	3.57990E+000	9	...........
	64	0.866667	1.89785E-001	-9.92354E-005	0.00000E+000	-1.88334E-005	-5.99601E-002	1.89820E-001	3.57990E+000	9	...........
	65	0.88	1.81016E-001	-9.92125E-005	0.00000E+000	-1.79590E-005	-5.99601E-002	1.81045E-001	3.57990E+000	9	...........
	66	0.893333	1.72300E-001	-9.86644E-005	0.00000E+000	-1.69999E-005	-5.99601E-002	1.72327E-001	3.57990E+000	9	...........
	67	0.906667	1.63645E-001	-9.84832E-005	0.00000E+000	-1.61163E-005	-5.99601E-002	1.63672E-001	3.57990E+000	9	...........
	68	0.92	1.55047E-001	-9.89666E-005	0.00000E+000	-1.53444E-005	-5.99601E-002	1.55066E-001	3.57990E+000	9	...........
	69	0.933333	1.46515E-001	-9.83008E-005	0.00000E+000	-1.44025E-005	-5.99601E-002	1.46531E-001	3.57990E+000	9	...........
	70	0.946667	1.38038E-001	-9.89582E-005	0.00000E+000	-1.36600E-005	-5.99601E-002	1.38055E-001	3.57990E+000	9	...........
	71	0.96	1.29629E-001	-9.92604E-005	0.00000E+000	-1.28670E-005	-5.99601E-002	1.29646E-001	3.57990E+000	9	...........
	72	0.97333	1.21288E-001	-9.93156E-005	0.00000E+000	-1.20458E-005	-5.99601E-002	1.21305E-001	3.57990E+000	9	...........
	73	0.98667	1.13022E-001	-9.92969E-005	0.00000E+000	-1.12227E-005	-5.99601E-002	1.13029E-001	3.57990E+000	9	...........
	74	1	1.04820E-001	-9.98699E-005	0.00000E+000	-1.04683E-005	-5.99601E-002	1.04832E-001	3.57990E+000	9	...........
	75	1.01333	9.66957E-002	-9.84925E-005	0.00000E+000	-9.52381E-006	-5.99601E-002	9.67012E-002	3.57990E+000	9	...........
	76	1.02667	8.86339E-002	-9.91458E-005	0.00000E+000	-8.78768E-006	-5.99601E-002	8.86422E-002	3.57990E+000	9	...........
	77	1.04	8.06525E-002	-9.87811E-005	0.00000E+000	-7.96695E-006	-5.99601E-002	8.06557E-002	3.57990E+000	9	...........
	78	1.05333	7.27362E-002	-9.85227E-005	0.00000E+000	-7.16617E-006	-5.99601E-002	7.27334E-002	3.57990E+000	9	...........
	79	1.06667	6.48902E-002	-9.91489E-005	0.00000E+000	-6.43379E-006	-5.99601E-002	6.48859E-002	3.57990E+000	9	...........
	80	1.08	5.71079E-002	-9.90187E-005	0.00000E+000	-5.65475E-006	-5.99601E-002	5.71043E-002	3.57990E+000	9	...........
	81	1.09333	4.94032E-002	-1.00087E-004	0.00000E+000	-4.94460E-006	-5.99601E-002	4.94000E-002	3.57990E+000	9	...........
	82	1.10667	4.17929E-002	-9.91843E-005	0.00000E+000	-4.14520E-006	-5.99601E-002	4.17834E-002	3.57990E+000	9	...........
	83	1.12	3.42130E-002	-9.89437E-005	0.00000E+000	-3.38516E-006	-5.99601E-002	3.41949E-002	3.57990E+000	9	...........
	84	1.13333	2.66951E-002	-9.80560E-005	0.00000E+000	-2.61762E-006	-5.99601E-002	2.66773E-002	3.57990E+000	9	...........
	85	1.14667	1.92425E-002	-9.88270E-005	0.00000E+000	-1.90168E-006	-5.99601E-002	1.92234E-002	3.57990E+000	9	...........
	86	1.16	1.18494E-002	-9.92979E-005	0.00000E+000	-1.17662E-006	-5.99601E-002	1.18274E-002	3.57990E+000	9	...........
	87	1.17333	4.52965E-003	-9.95427E-005	0.00000E+000	-4.50893E-007	-5.99601E-002	4.49889E-003	3.57990E+000	9	...........
	88	1.17667	-1.64025E-005	-9.74475E-005	0.00000E+000	1.59838E-009	-5.99601E-002	-5.62058E-005	3.57990E+000	9	...........
STARTTIMEOFFSET	QUANT	993.852	Start Time Offset (s)
