EXPLAIN
TAG	PWR800_DISCHARGE
TITLE	LABEL	PWR Cyclic Charge Discharge (Cell) - Discharge Step	Test &Identifier
DATE	LABEL	13-7-2017	Date
TIME	LABEL	15:11:57	Time
NOTES	NOTES	2	&Notes...
	supercap test cell
	6M KOH
PSTAT	PSTAT	IFC5000-01520	Potentiostat
CAPACITY	QUANT	1.00000E-003	Capacity (A-hr)
CELLTYPE	SELECTOR	1	&Cell Type
WORKINGCONNECTION	SELECTOR	0	&Working Lead
MAXDISCHARGETIME	VARIABLEANDUNITS	1.00000E+002	s	1.00000E+002	second(s)	Max &Discharge Time
DISCHARGEMODE	MULTIPARAM	0	1.00000E-004	&Discharge Mode	Constant Current	Amp(s)
SAMPLETIME	QUANT	1.00000E-002	Sa&mple Period (s)
DISCHARGESTOPAT1	MULTIPARAM	3	0.00000E+000	Discharge Stop At &1	Voltage < Limit	V
DISCHARGESTOPAT2	MULTIPARAM	0	0.00000E+000	Discharge Stop At &2	None	N/A
AESBHCSELECTOR	TOGGLE	F	Save Both Half Cells
IRCOMP	TOGGLE	F	IR &Measure
EOC	QUANT	0	Open Circuit (V)
SEQUENCER	TOGGLE	TRUE	Run as Sequence
PSTATMODEL	IQUANT	53	Pstat Model
PSTATSECTION	LABEL	IFC5000-01520	Pstat Section
PSTATSERIALNO	LABEL	01520	Pstat Serial Number
CTRLMODE	IQUANT	0	Control Mode
ELECTROMETER	IQUANT	1	RE=0 or CS=1
IESTAB	IQUANT	0	I/E Stability
CASPEED	IQUANT	4	Control Amp Speed
CONVENTION	IQUANT	1	Current Convention
ICHRANGE	IQUANT	2	Ich Range
ICHRANGEMODE	TOGGLE	T	Ich Auto Range
ICHOFFSETENABLE	TOGGLE	F	Ich Offset Enable
ICHOFFSET	QUANT	0	Ich Offset (V)
ICHFILTER	IQUANT	1	Ich Filter
VCHRANGE	IQUANT	2	Vch Range
VCHRANGEMODE	TOGGLE	T	Vch Auto Range
VCHOFFSETENABLE	TOGGLE	F	Vch Offset Enable
VCHOFFSET	QUANT	0	Vch Offset (V)
VCHFILTER	IQUANT	1	Vch Filter
IERANGELOWERLIMIT	IQUANT	9	I/E Range Lower Limit
IERANGEMODE	TOGGLE	F	I/E AutoRange
IERANGE	IQUANT	9	I/E Range
ACHSELECT	IQUANT	1	Ach Select
ACHRANGE	IQUANT	2	Ach Range
ACHOFFSETENABLE	TOGGLE	F	Ach Offset Enable
ACHOFFSET	QUANT	0	Ach Offset (V)
ACHFILTER	IQUANT	1	Ach Filter
CABLEID	IQUANT	14	Cable ID
DCCALDATE	LABEL	5-7-2017	DC Calibration Date
ACCALDATE	LABEL	12/3/2015	AC Calibration Date
FRAMEWORKVERSION	QUANT	7.01	Framework Version
INSTRUMENTVERSION	LABEL	4.00	Instrument Version
CURVE	TABLE	91
	Pt	T	Vf	Im	Vu	Pwr	Sig	Ach	Temp	IERange	Over
	#	s	V	A	V	W	V	V	deg C	#	bits
	0	0.013333	8.52893E-001	-9.90239E-005	0.00000E+000	-8.44568E-005	-5.99601E-002	8.53228E-001	3.58020E+000	9	...........
	1	0.026667	8.39590E-001	-9.81477E-005	0.00000E+000	-8.24039E-005	-5.99601E-002	8.39960E-001	3.58020E+000	9	...........
	2	0.04	8.27170E-001	-9.96449E-005	0.00000E+000	-8.24232E-005	-5.99601E-002	8.27482E-001	3.58020E+000	9	...........
	3	0.053333	8.15234E-001	-9.90864E-005	0.00000E+000	-8.07786E-005	-5.99601E-002	8.15567E-001	3.58020E+000	9	...........
	4	0.066667	8.03740E-001	-9.91666E-005	0.00000E+000	-7.97042E-005	-5.99601E-002	8.04038E-001	3.58020E+000	9	...........
	5	0.08	7.92521E-001	-9.98637E-005	0.00000E+000	-7.91440E-005	-5.99601E-002	7.92810E-001	3.58001E+000	9	...........
	6	0.093333	7.81497E-001	-9.82446E-005	0.00000E+000	-7.67778E-005	-5.99601E-002	7.81797E-001	3.57870E+000	9	...........
	7	0.106667	7.70665E-001	-9.92958E-005	0.00000E+000	-7.65238E-005	-5.99601E-002	7.70922E-001	3.57870E+000	9	...........
	8	0.12	7.59974E-001	-9.96574E-005	0.00000E+000	-7.57370E-005	-5.99601E-002	7.60216E-001	3.57870E+000	9	...........
	9	0.133333	7.49340E-001	-9.90260E-005	0.00000E+000	-7.42041E-005	-5.99601E-002	7.49620E-001	3.57870E+000	9	...........
	10	0.146667	7.38798E-001	-9.92083E-005	0.00000E+000	-7.32949E-005	-5.99601E-002	7.39063E-001	3.57870E+000	9	...........
	11	0.16	7.28334E-001	-9.88176E-005	0.00000E+000	-7.19723E-005	-5.99601E-002	7.28600E-001	3.57870E+000	9	...........
	12	0.173333	7.17894E-001	-9.91916E-005	0.00000E+000	-7.12091E-005	-5.99601E-002	7.18185E-001	3.57870E+000	9	...........
	13	0.186667	7.07490E-001	-9.88249E-005	0.00000E+000	-6.99177E-005	-5.99601E-002	7.07794E-001	3.57870E+000	9	...........
	14	0.2	6.97139E-001	-9.88812E-005	0.00000E+000	-6.89339E-005	-5.99601E-002	6.97447E-001	3.57870E+000	9	...........
	15	0.213333	6.86804E-001	-9.86092E-005	0.00000E+000	-6.77252E-005	-5.99601E-002	6.87074E-001	3.57870E+000	9	...........
	16	0.226667	6.76481E-001	-9.95063E-005	0.00000E+000	-6.73141E-005	-5.99601E-002	6.76763E-001	3.57870E+000	9	...........
	17	0.24	6.66183E-001	-9.96157E-005	0.00000E+000	-6.63622E-005	-5.99601E-002	6.66449E-001	3.57870E+000	9	...........
	18	0.253333	6.55850E-001	-9.94167E-005	0.00000E+000	-6.52024E-005	-5.99601E-002	6.56139E-001	3.57870E+000	9	...........
	19	0.266667	6.45563E-001	-9.82519E-005	0.00000E+000	-6.34277E-005	-5.99601E-002	6.45863E-001	3.57870E+000	9	...........
	20	0.28	6.35269E-001	-9.83988E-005	0.00000E+000	-6.25097E-005	-5.99601E-002	6.35559E-001	3.57870E+000	9	...........
	21	0.293333	6.24995E-001	-9.87947E-005	0.00000E+000	-6.17462E-005	-5.99601E-002	6.25267E-001	3.57870E+000	9	...........
	22	0.306667	6.14709E-001	-9.92062E-005	0.00000E+000	-6.09829E-005	-5.99601E-002	6.15013E-001	3.57870E+000	9	...........
	23	0.32	6.04426E-001	-9.95209E-005	0.00000E+000	-6.01530E-005	-5.99601E-002	6.04731E-001	3.57870E+000	9	...........
	24	0.333333	5.94200E-001	-9.85884E-005	0.00000E+000	-5.85812E-005	-5.99601E-002	5.94491E-001	3.57870E+000	9	...........
	25	0.346667	5.83937E-001	-9.89624E-005	0.00000E+000	-5.77878E-005	-5.99601E-002	5.84222E-001	3.57870E+000	9	...........
	26	0.36	5.73736E-001	-9.81248E-005	0.00000E+000	-5.62977E-005	-5.99601E-002	5.73993E-001	3.57870E+000	9	...........
	27	0.373333	5.63481E-001	-9.82758E-005	0.00000E+000	-5.53765E-005	-5.99601E-002	5.63765E-001	3.57870E+000	9	...........
	28	0.386667	5.53286E-001	-9.88405E-005	0.00000E+000	-5.46871E-005	-5.99601E-002	5.53569E-001	3.57870E+000	9	...........
	29	0.4	5.43132E-001	-9.97563E-005	0.00000E+000	-5.41809E-005	-5.99601E-002	5.43394E-001	3.57870E+000	9	...........
	30	0.413333	5.32966E-001	-9.87686E-005	0.00000E+000	-5.26403E-005	-5.99601E-002	5.33206E-001	3.57870E+000	9	...........
	31	0.426667	5.22826E-001	-9.87124E-005	0.00000E+000	-5.16094E-005	-5.99601E-002	5.23065E-001	3.57870E+000	9	...........
	32	0.44	5.12720E-001	-9.86113E-005	0.00000E+000	-5.05599E-005	-5.99601E-002	5.12970E-001	3.57870E+000	9	...........
	33	0.453333	5.02597E-001	-9.85592E-005	0.00000E+000	-4.95356E-005	-5.99601E-002	5.02879E-001	3.57870E+000	9	...........
	34	0.466667	4.92592E-001	-9.75194E-005	0.00000E+000	-4.80373E-005	-5.99601E-002	4.92843E-001	3.57870E+000	9	...........
	35	0.48	4.82809E-001	-9.91020E-005	0.00000E+000	-4.78474E-005	-5.99601E-002	4.82978E-001	3.57870E+000	9	...........
	36	0.493333	4.72978E-001	-9.96428E-005	0.00000E+000	-4.71288E-005	-5.99601E-002	4.73085E-001	3.57870E+000	9	...........
	37	0.506667	4.63044E-001	-9.90604E-005	0.00000E+000	-4.58693E-005	-5.99601E-002	4.63148E-001	3.57870E+000	9	...........
	38	0.52	4.53157E-001	-9.93625E-005	0.00000E+000	-4.50268E-005	-5.99601E-002	4.53255E-001	3.57870E+000	9	...........
	39	0.533333	4.43304E-001	-9.89655E-005	0.00000E+000	-4.38718E-005	-5.99601E-002	4.43401E-001	3.57870E+000	9	...........
	40	0.546667	4.33493E-001	-9.85655E-005	0.00000E+000	-4.27275E-005	-5.99601E-002	4.33589E-001	3.57870E+000	9	...........
	41	0.56	4.23729E-001	-9.88384E-005	0.00000E+000	-4.18807E-005	-5.99601E-002	4.23822E-001	3.57870E+000	9	...........
	42	0.573333	4.14012E-001	-9.88113E-005	0.00000E+000	-4.09091E-005	-5.99601E-002	4.14102E-001	3.57870E+000	9	...........
	43	0.586667	4.04343E-001	-9.75257E-005	0.00000E+000	-3.94338E-005	-5.99601E-002	4.04426E-001	3.57870E+000	9	...........
	44	0.6	3.94725E-001	-9.92041E-005	0.00000E+000	-3.91583E-005	-5.99601E-002	3.94804E-001	3.57870E+000	9	...........
	45	0.613333	3.85149E-001	-9.87301E-005	0.00000E+000	-3.80257E-005	-5.99601E-002	3.85225E-001	3.57870E+000	9	...........
	46	0.626667	3.75617E-001	-9.84519E-005	0.00000E+000	-3.69802E-005	-5.99601E-002	3.75690E-001	3.57870E+000	9	...........
	47	0.64	3.66135E-001	-9.91260E-005	0.00000E+000	-3.62935E-005	-5.99601E-002	3.66209E-001	3.57870E+000	9	...........
	48	0.653333	3.56695E-001	-9.93688E-005	0.00000E+000	-3.54443E-005	-5.99601E-002	3.56761E-001	3.57870E+000	9	...........
	49	0.666667	3.47300E-001	-9.85811E-005	0.00000E+000	-3.42372E-005	-5.99601E-002	3.47372E-001	3.57870E+000	9	...........
	50	0.68	3.37951E-001	-9.86061E-005	0.00000E+000	-3.33240E-005	-5.99601E-002	3.38019E-001	3.57870E+000	9	...........
	51	0.693333	3.28639E-001	-9.83196E-005	0.00000E+000	-3.23117E-005	-5.99601E-002	3.28713E-001	3.57870E+000	9	...........
	52	0.706667	3.19380E-001	-9.91447E-005	0.00000E+000	-3.16648E-005	-5.99601E-002	3.19442E-001	3.57870E+000	9	...........
	53	0.72	3.10160E-001	-9.89822E-005	0.00000E+000	-3.07003E-005	-5.99601E-002	3.10221E-001	3.57870E+000	9	...........
	54	0.733333	3.00976E-001	-9.85009E-005	0.00000E+000	-2.96464E-005	-5.99601E-002	3.01032E-001	3.57870E+000	9	...........
	55	0.746667	2.91828E-001	-9.91052E-005	0.00000E+000	-2.89217E-005	-5.99601E-002	2.91889E-001	3.57870E+000	9	...........
	56	0.76	2.82726E-001	-9.88676E-005	0.00000E+000	-2.79524E-005	-5.99601E-002	2.82781E-001	3.57870E+000	9	...........
	57	0.773333	2.73661E-001	-9.93635E-005	0.00000E+000	-2.71919E-005	-5.99601E-002	2.73716E-001	3.57870E+000	9	...........
	58	0.786667	2.64638E-001	-9.90260E-005	0.00000E+000	-2.62060E-005	-5.99601E-002	2.64687E-001	3.57870E+000	9	...........
	59	0.8	2.55642E-001	-9.90114E-005	0.00000E+000	-2.53115E-005	-5.99601E-002	2.55694E-001	3.57870E+000	9	...........
	60	0.813333	2.46695E-001	-9.91968E-005	0.00000E+000	-2.44713E-005	-5.99601E-002	2.46741E-001	3.57870E+000	9	...........
	61	0.826667	2.37783E-001	-9.90770E-005	0.00000E+000	-2.35588E-005	-5.99601E-002	2.37823E-001	3.57870E+000	9	...........
	62	0.84	2.28904E-001	-9.79820E-005	0.00000E+000	-2.24285E-005	-5.99601E-002	2.28942E-001	3.57870E+000	9	...........
	63	0.853333	2.20059E-001	-9.95948E-005	0.00000E+000	-2.19167E-005	-5.99601E-002	2.20101E-001	3.57870E+000	9	...........
	64	0.866667	2.11258E-001	-9.90270E-005	0.00000E+000	-2.09203E-005	-5.99601E-002	2.11288E-001	3.57870E+000	9	...........
	65	0.88	2.02495E-001	-9.93938E-005	0.00000E+000	-2.01267E-005	-5.99601E-002	2.02529E-001	3.57870E+000	9	...........
	66	0.893333	1.93775E-001	-9.91260E-005	0.00000E+000	-1.92082E-005	-5.99601E-002	1.93806E-001	3.57870E+000	9	...........
	67	0.906667	1.85100E-001	-9.93385E-005	0.00000E+000	-1.83875E-005	-5.99601E-002	1.85125E-001	3.57870E+000	9	...........
	68	0.92	1.76465E-001	-9.88572E-005	0.00000E+000	-1.74448E-005	-5.99601E-002	1.76496E-001	3.57870E+000	9	...........
	69	0.933333	1.67878E-001	-9.85801E-005	0.00000E+000	-1.65495E-005	-5.99601E-002	1.67907E-001	3.57870E+000	9	...........
	70	0.946667	1.59349E-001	-9.80299E-005	0.00000E+000	-1.56209E-005	-5.99601E-002	1.59370E-001	3.57870E+000	9	...........
	71	0.96	1.50863E-001	-9.96792E-005	0.00000E+000	-1.50379E-005	-5.99601E-002	1.50885E-001	3.57870E+000	9	...........
	72	0.97333	1.42436E-001	-9.85207E-005	0.00000E+000	-1.40328E-005	-5.99601E-002	1.42451E-001	3.57870E+000	9	...........
	73	0.98667	1.34062E-001	-9.84415E-005	0.00000E+000	-1.31973E-005	-5.99601E-002	1.34075E-001	3.57870E+000	9	...........
	74	1	1.25749E-001	-9.94917E-005	0.00000E+000	-1.25110E-005	-5.99601E-002	1.25760E-001	3.57870E+000	9	...........
	75	1.01333	1.17496E-001	-9.89812E-005	0.00000E+000	-1.16299E-005	-5.99601E-002	1.17514E-001	3.57870E+000	9	...........
	76	1.02667	1.09308E-001	-9.84738E-005	0.00000E+000	-1.07640E-005	-5.99601E-002	1.09323E-001	3.57870E+000	9	...........
	77	1.04	1.01181E-001	-9.88895E-005	0.00000E+000	-1.00057E-005	-5.99601E-002	1.01197E-001	3.57870E+000	9	...........
	78	1.05333	9.31237E-002	-9.91583E-005	0.00000E+000	-9.23399E-006	-5.99601E-002	9.31377E-002	3.57870E+000	9	...........
	79	1.06667	8.51324E-002	-9.88478E-005	0.00000E+000	-8.41516E-006	-5.99601E-002	8.51416E-002	3.57870E+000	9	...........
	80	1.08	7.72009E-002	-9.98220E-005	0.00000E+000	-7.70634E-006	-5.99601E-002	7.72127E-002	3.57870E+000	9	...........
	81	1.09333	6.93389E-002	-9.95407E-005	0.00000E+000	-6.90204E-006	-5.99601E-002	6.93430E-002	3.57870E+000	9	...........
	82	1.10667	6.15452E-002	-9.83321E-005	0.00000E+000	-6.05187E-006	-5.99601E-002	6.15455E-002	3.57870E+000	9	...........
	83	1.12	5.38040E-002	-9.97042E-005	0.00000E+000	-5.36448E-006	-5.99601E-002	5.38045E-002	3.57870E+000	9	...........
	84	1.13333	4.61641E-002	-9.94782E-005	0.00000E+000	-4.59232E-006	-5.99601E-002	4.61577E-002	3.57870E+000	9	...........
	85	1.14667	3.85632E-002	-9.85009E-005	0.00000E+000	-3.79851E-006	-5.99601E-002	3.85555E-002	3.57870E+000	9	...........
	86	1.16	3.10165E-002	-9.87874E-005	0.00000E+000	-3.06404E-006	-5.99601E-002	3.10031E-002	3.57870E+000	9	...........
	87	1.17333	2.35298E-002	-9.86790E-005	0.00000E+000	-2.32190E-006	-5.99601E-002	2.35094E-002	3.57870E+000	9	...........
	88	1.18667	1.61004E-002	-9.89697E-005	0.00000E+000	-1.59346E-006	-5.99601E-002	1.60774E-002	3.57870E+000	9	...........
	89	1.2	8.73120E-003	-9.83769E-005	0.00000E+000	-8.58948E-007	-5.99601E-002	8.70430E-003	3.57870E+000	9	...........
	90	1.21167	1.87889E-003	-9.88555E-005	0.00000E+000	-1.85739E-007	-5.99601E-002	1.84201E-003	3.57870E+000	9	...........
STARTTIMEOFFSET	QUANT	447.6032	Start Time Offset (s)
