EXPLAIN
TAG	PWR800_DISCHARGE
TITLE	LABEL	PWR Cyclic Charge Discharge (Cell) - Discharge Step	Test &Identifier
DATE	LABEL	13-7-2017	Date
TIME	LABEL	15:30:27	Time
NOTES	NOTES	2	&Notes...
	supercap test cell
	6M KOH
PSTAT	PSTAT	IFC5000-01520	Potentiostat
CAPACITY	QUANT	1.00000E-003	Capacity (A-hr)
CELLTYPE	SELECTOR	1	&Cell Type
WORKINGCONNECTION	SELECTOR	0	&Working Lead
MAXDISCHARGETIME	VARIABLEANDUNITS	1.00000E+002	s	1.00000E+002	second(s)	Max &Discharge Time
DISCHARGEMODE	MULTIPARAM	0	1.00000E-004	&Discharge Mode	Constant Current	Amp(s)
SAMPLETIME	QUANT	1.00000E-002	Sa&mple Period (s)
DISCHARGESTOPAT1	MULTIPARAM	3	0.00000E+000	Discharge Stop At &1	Voltage < Limit	V
DISCHARGESTOPAT2	MULTIPARAM	0	0.00000E+000	Discharge Stop At &2	None	N/A
AESBHCSELECTOR	TOGGLE	F	Save Both Half Cells
IRCOMP	TOGGLE	F	IR &Measure
EOC	QUANT	0	Open Circuit (V)
SEQUENCER	TOGGLE	TRUE	Run as Sequence
PSTATMODEL	IQUANT	53	Pstat Model
PSTATSECTION	LABEL	IFC5000-01520	Pstat Section
PSTATSERIALNO	LABEL	01520	Pstat Serial Number
CTRLMODE	IQUANT	0	Control Mode
ELECTROMETER	IQUANT	1	RE=0 or CS=1
IESTAB	IQUANT	0	I/E Stability
CASPEED	IQUANT	4	Control Amp Speed
CONVENTION	IQUANT	1	Current Convention
ICHRANGE	IQUANT	2	Ich Range
ICHRANGEMODE	TOGGLE	T	Ich Auto Range
ICHOFFSETENABLE	TOGGLE	F	Ich Offset Enable
ICHOFFSET	QUANT	0	Ich Offset (V)
ICHFILTER	IQUANT	1	Ich Filter
VCHRANGE	IQUANT	2	Vch Range
VCHRANGEMODE	TOGGLE	T	Vch Auto Range
VCHOFFSETENABLE	TOGGLE	F	Vch Offset Enable
VCHOFFSET	QUANT	0	Vch Offset (V)
VCHFILTER	IQUANT	1	Vch Filter
IERANGELOWERLIMIT	IQUANT	9	I/E Range Lower Limit
IERANGEMODE	TOGGLE	F	I/E AutoRange
IERANGE	IQUANT	9	I/E Range
ACHSELECT	IQUANT	1	Ach Select
ACHRANGE	IQUANT	2	Ach Range
ACHOFFSETENABLE	TOGGLE	F	Ach Offset Enable
ACHOFFSET	QUANT	0	Ach Offset (V)
ACHFILTER	IQUANT	1	Ach Filter
CABLEID	IQUANT	14	Cable ID
DCCALDATE	LABEL	5-7-2017	DC Calibration Date
ACCALDATE	LABEL	12/3/2015	AC Calibration Date
FRAMEWORKVERSION	QUANT	7.01	Framework Version
INSTRUMENTVERSION	LABEL	4.00	Instrument Version
CURVE	TABLE	88
	Pt	T	Vf	Im	Vu	Pwr	Sig	Ach	Temp	IERange	Over
	#	s	V	A	V	W	V	V	deg C	#	bits
	0	0.013333	8.48185E-001	-9.82664E-005	0.00000E+000	-8.33481E-005	-5.99601E-002	8.48512E-001	3.58000E+000	9	...........
	1	0.026667	8.34167E-001	-9.85988E-005	0.00000E+000	-8.22479E-005	-5.99601E-002	8.34485E-001	3.58000E+000	9	...........
	2	0.04	8.21025E-001	-9.94417E-005	0.00000E+000	-8.16441E-005	-5.99601E-002	8.21343E-001	3.58000E+000	9	...........
	3	0.053333	8.08438E-001	-9.93000E-005	0.00000E+000	-8.02779E-005	-5.99601E-002	8.08727E-001	3.58000E+000	9	...........
	4	0.066667	7.96269E-001	-9.92083E-005	0.00000E+000	-7.89965E-005	-5.99601E-002	7.96557E-001	3.58000E+000	9	...........
	5	0.08	7.84360E-001	-9.89020E-005	0.00000E+000	-7.75748E-005	-5.99601E-002	7.84642E-001	3.58000E+000	9	...........
	6	0.093333	7.72677E-001	-9.94875E-005	0.00000E+000	-7.68717E-005	-5.99601E-002	7.72985E-001	3.58000E+000	9	...........
	7	0.106667	7.61174E-001	-9.85436E-005	0.00000E+000	-7.50088E-005	-5.99601E-002	7.61464E-001	3.58000E+000	9	...........
	8	0.12	7.49801E-001	-9.88812E-005	0.00000E+000	-7.41412E-005	-5.99601E-002	7.50054E-001	3.57982E+000	9	...........
	9	0.133333	7.38494E-001	-9.86874E-005	0.00000E+000	-7.28801E-005	-5.99601E-002	7.38749E-001	3.57860E+000	9	...........
	10	0.146667	7.27305E-001	-9.93708E-005	0.00000E+000	-7.22729E-005	-5.99601E-002	7.27533E-001	3.57860E+000	9	...........
	11	0.16	7.16129E-001	-9.91937E-005	0.00000E+000	-7.10355E-005	-5.99601E-002	7.16385E-001	3.57860E+000	9	...........
	12	0.173333	7.05014E-001	-9.99908E-005	0.00000E+000	-7.04949E-005	-5.99601E-002	7.05295E-001	3.57860E+000	9	...........
	13	0.186667	6.93958E-001	-9.88468E-005	0.00000E+000	-6.85955E-005	-5.99601E-002	6.94224E-001	3.57860E+000	9	...........
	14	0.2	6.82911E-001	-9.85978E-005	0.00000E+000	-6.73335E-005	-5.99601E-002	6.83192E-001	3.57860E+000	9	...........
	15	0.213333	6.71908E-001	-9.83279E-005	0.00000E+000	-6.60674E-005	-5.99601E-002	6.72168E-001	3.57860E+000	9	...........
	16	0.226667	6.60903E-001	-9.95605E-005	0.00000E+000	-6.57998E-005	-5.99601E-002	6.61160E-001	3.57860E+000	9	...........
	17	0.24	6.49925E-001	-9.90989E-005	0.00000E+000	-6.44069E-005	-5.99601E-002	6.50194E-001	3.57860E+000	9	...........
	18	0.253333	6.38968E-001	-9.84384E-005	0.00000E+000	-6.28989E-005	-5.99601E-002	6.39218E-001	3.57860E+000	9	...........
	19	0.266667	6.28019E-001	-9.83821E-005	0.00000E+000	-6.17858E-005	-5.99601E-002	6.28279E-001	3.57860E+000	9	...........
	20	0.28	6.17112E-001	-9.88634E-005	0.00000E+000	-6.10098E-005	-5.99601E-002	6.17347E-001	3.57860E+000	9	...........
	21	0.293333	6.06137E-001	-9.92760E-005	0.00000E+000	-6.01748E-005	-5.99601E-002	6.06431E-001	3.57860E+000	9	...........
	22	0.306667	5.95291E-001	-9.92531E-005	0.00000E+000	-5.90845E-005	-5.99601E-002	5.95553E-001	3.57860E+000	9	...........
	23	0.32	5.84420E-001	-9.89864E-005	0.00000E+000	-5.78496E-005	-5.99601E-002	5.84697E-001	3.57860E+000	9	...........
	24	0.333333	5.73585E-001	-9.92573E-005	0.00000E+000	-5.69325E-005	-5.99601E-002	5.73855E-001	3.57860E+000	9	...........
	25	0.346667	5.62773E-001	-9.92937E-005	0.00000E+000	-5.58798E-005	-5.99601E-002	5.63047E-001	3.57860E+000	9	...........
	26	0.36	5.51980E-001	-9.84977E-005	0.00000E+000	-5.43688E-005	-5.99601E-002	5.52265E-001	3.57860E+000	9	...........
	27	0.373333	5.41244E-001	-9.91677E-005	0.00000E+000	-5.36739E-005	-5.99601E-002	5.41531E-001	3.57860E+000	9	...........
	28	0.386667	5.30524E-001	-9.91896E-005	0.00000E+000	-5.26224E-005	-5.99601E-002	5.30795E-001	3.57860E+000	9	...........
	29	0.4	5.19874E-001	-9.87936E-005	0.00000E+000	-5.13602E-005	-5.99601E-002	5.20127E-001	3.57860E+000	9	...........
	30	0.413333	5.09241E-001	-9.75455E-005	0.00000E+000	-4.96741E-005	-5.99601E-002	5.09489E-001	3.57860E+000	9	...........
	31	0.426667	4.98649E-001	-9.81612E-005	0.00000E+000	-4.89480E-005	-5.99601E-002	4.98895E-001	3.57860E+000	9	...........
	32	0.44	4.88194E-001	-1.00336E-004	0.00000E+000	-4.89832E-005	-5.99601E-002	4.88407E-001	3.57860E+000	9	...........
	33	0.453333	4.78033E-001	-9.81331E-005	0.00000E+000	-4.69109E-005	-5.99601E-002	4.78137E-001	3.57860E+000	9	...........
	34	0.466667	4.67613E-001	-9.96261E-005	0.00000E+000	-4.65864E-005	-5.99601E-002	4.67710E-001	3.57860E+000	9	...........
	35	0.48	4.57250E-001	-9.75194E-005	0.00000E+000	-4.45907E-005	-5.99601E-002	4.57347E-001	3.57860E+000	9	...........
	36	0.493333	4.46939E-001	-9.89030E-005	0.00000E+000	-4.42036E-005	-5.99601E-002	4.47036E-001	3.57860E+000	9	...........
	37	0.506667	4.36695E-001	-9.96824E-005	0.00000E+000	-4.35308E-005	-5.99601E-002	4.36789E-001	3.57860E+000	9	...........
	38	0.52	4.26511E-001	-9.92844E-005	0.00000E+000	-4.23458E-005	-5.99601E-002	4.26600E-001	3.57860E+000	9	...........
	39	0.533333	4.16391E-001	-9.87332E-005	0.00000E+000	-4.11116E-005	-5.99601E-002	4.16476E-001	3.57860E+000	9	...........
	40	0.546667	4.06336E-001	-9.93646E-005	0.00000E+000	-4.03754E-005	-5.99601E-002	4.06412E-001	3.57860E+000	9	...........
	41	0.56	3.96336E-001	-9.83946E-005	0.00000E+000	-3.89973E-005	-5.99601E-002	3.96412E-001	3.57860E+000	9	...........
	42	0.573333	3.86400E-001	-9.88280E-005	0.00000E+000	-3.81872E-005	-5.99601E-002	3.86465E-001	3.57860E+000	9	...........
	43	0.586667	3.76523E-001	-9.89312E-005	0.00000E+000	-3.72499E-005	-5.99601E-002	3.76591E-001	3.57860E+000	9	...........
	44	0.6	3.66709E-001	-9.84498E-005	0.00000E+000	-3.61024E-005	-5.99601E-002	3.66776E-001	3.57860E+000	9	...........
	45	0.613333	3.56951E-001	-9.94459E-005	0.00000E+000	-3.54973E-005	-5.99601E-002	3.57013E-001	3.57860E+000	9	...........
	46	0.626667	3.47239E-001	-9.88363E-005	0.00000E+000	-3.43198E-005	-5.99601E-002	3.47305E-001	3.57860E+000	9	...........
	47	0.64	3.37589E-001	-9.83977E-005	0.00000E+000	-3.32180E-005	-5.99601E-002	3.37656E-001	3.57860E+000	9	...........
	48	0.653333	3.27998E-001	-9.87697E-005	0.00000E+000	-3.23963E-005	-5.99601E-002	3.28061E-001	3.57860E+000	9	...........
	49	0.666667	3.18456E-001	-9.78705E-005	0.00000E+000	-3.11674E-005	-5.99601E-002	3.18521E-001	3.57860E+000	9	...........
	50	0.68	3.08969E-001	-9.88937E-005	0.00000E+000	-3.05551E-005	-5.99601E-002	3.09029E-001	3.57860E+000	9	...........
	51	0.693333	2.99533E-001	-9.83894E-005	0.00000E+000	-2.94709E-005	-5.99601E-002	2.99587E-001	3.57860E+000	9	...........
	52	0.706667	2.90144E-001	-9.87061E-005	0.00000E+000	-2.86390E-005	-5.99601E-002	2.90195E-001	3.57860E+000	9	...........
	53	0.72	2.80804E-001	-9.92177E-005	0.00000E+000	-2.78607E-005	-5.99601E-002	2.80855E-001	3.57860E+000	9	...........
	54	0.733333	2.71509E-001	-9.80445E-005	0.00000E+000	-2.66199E-005	-5.99601E-002	2.71560E-001	3.57860E+000	9	...........
	55	0.746667	2.62254E-001	-9.90458E-005	0.00000E+000	-2.59752E-005	-5.99601E-002	2.62310E-001	3.57860E+000	9	...........
	56	0.76	2.53055E-001	-9.90999E-005	0.00000E+000	-2.50777E-005	-5.99601E-002	2.53106E-001	3.57860E+000	9	...........
	57	0.773333	2.43898E-001	-9.95313E-005	0.00000E+000	-2.42755E-005	-5.99601E-002	2.43938E-001	3.57860E+000	9	...........
	58	0.786667	2.34784E-001	-9.88020E-005	0.00000E+000	-2.31971E-005	-5.99601E-002	2.34822E-001	3.57860E+000	9	...........
	59	0.8	2.25721E-001	-1.00250E-004	0.00000E+000	-2.26286E-005	-5.99601E-002	2.25759E-001	3.57860E+000	9	...........
	60	0.813333	2.16698E-001	-9.83383E-005	0.00000E+000	-2.13097E-005	-5.99601E-002	2.16740E-001	3.57860E+000	9	...........
	61	0.826667	2.07740E-001	-9.93396E-005	0.00000E+000	-2.06368E-005	-5.99601E-002	2.07767E-001	3.57860E+000	9	...........
	62	0.84	1.98815E-001	-9.98397E-005	0.00000E+000	-1.98496E-005	-5.99601E-002	1.98851E-001	3.57860E+000	9	...........
	63	0.853333	1.89952E-001	-9.85957E-005	0.00000E+000	-1.87284E-005	-5.99601E-002	1.89982E-001	3.57860E+000	9	...........
	64	0.866667	1.81142E-001	-9.96261E-005	0.00000E+000	-1.80464E-005	-5.99601E-002	1.81170E-001	3.57860E+000	9	...........
	65	0.88	1.72385E-001	-9.75923E-005	0.00000E+000	-1.68234E-005	-5.99601E-002	1.72410E-001	3.57860E+000	9	...........
	66	0.893333	1.63687E-001	-9.93667E-005	0.00000E+000	-1.62650E-005	-5.99601E-002	1.63712E-001	3.57860E+000	9	...........
	67	0.906667	1.55057E-001	-9.98282E-005	0.00000E+000	-1.54790E-005	-5.99601E-002	1.55079E-001	3.57860E+000	9	...........
	68	0.92	1.46496E-001	-9.91395E-005	0.00000E+000	-1.45236E-005	-5.99601E-002	1.46515E-001	3.57860E+000	9	...........
	69	0.933333	1.37997E-001	-9.92135E-005	0.00000E+000	-1.36911E-005	-5.99601E-002	1.38009E-001	3.57860E+000	9	...........
	70	0.946667	1.29564E-001	-9.88020E-005	0.00000E+000	-1.28012E-005	-5.99601E-002	1.29574E-001	3.57860E+000	9	...........
	71	0.96	1.21200E-001	-9.94667E-005	0.00000E+000	-1.20554E-005	-5.99601E-002	1.21214E-001	3.57860E+000	9	...........
	72	0.97333	1.12912E-001	-9.97626E-005	0.00000E+000	-1.12644E-005	-5.99601E-002	1.12925E-001	3.57860E+000	9	...........
	73	0.98667	1.04700E-001	-9.85634E-005	0.00000E+000	-1.03195E-005	-5.99601E-002	1.04711E-001	3.57860E+000	9	...........
	74	1	9.65504E-002	-9.84238E-005	0.00000E+000	-9.50285E-006	-5.99601E-002	9.65585E-002	3.57860E+000	9	...........
	75	1.01333	8.84776E-002	-9.87082E-005	0.00000E+000	-8.73346E-006	-5.99601E-002	8.84867E-002	3.57860E+000	9	...........
	76	1.02667	8.04857E-002	-9.85801E-005	0.00000E+000	-7.93428E-006	-5.99601E-002	8.04830E-002	3.57860E+000	9	...........
	77	1.04	7.25517E-002	-9.97626E-005	0.00000E+000	-7.23795E-006	-5.99601E-002	7.25472E-002	3.57860E+000	9	...........
	78	1.05333	6.46892E-002	-9.94208E-005	0.00000E+000	-6.43145E-006	-5.99601E-002	6.46846E-002	3.57860E+000	9	...........
	79	1.06667	5.69009E-002	-9.90635E-005	0.00000E+000	-5.63680E-006	-5.99601E-002	5.68960E-002	3.57860E+000	9	...........
	80	1.08	4.92002E-002	-9.84311E-005	0.00000E+000	-4.84282E-006	-5.99601E-002	4.91890E-002	3.57860E+000	9	...........
	81	1.09333	4.15750E-002	-9.90864E-005	0.00000E+000	-4.11951E-006	-5.99601E-002	4.15655E-002	3.57860E+000	9	...........
	82	1.10667	3.39935E-002	-9.91364E-005	0.00000E+000	-3.37000E-006	-5.99601E-002	3.39786E-002	3.57860E+000	9	...........
	83	1.12	2.64754E-002	-9.88197E-005	0.00000E+000	-2.61629E-006	-5.99601E-002	2.64594E-002	3.57859E+000	9	...........
	84	1.13333	1.90255E-002	-9.94802E-005	0.00000E+000	-1.89266E-006	-5.99601E-002	1.90037E-002	3.57850E+000	9	...........
	85	1.14667	1.16400E-002	-9.87738E-005	0.00000E+000	-1.14972E-006	-5.99601E-002	1.16171E-002	3.57850E+000	9	...........
	86	1.16	4.31875E-003	-9.96167E-005	0.00000E+000	-4.30220E-007	-5.99601E-002	4.28992E-003	3.57850E+000	9	...........
	87	1.16333	-2.24532E-004	-9.98314E-005	0.00000E+000	2.24153E-008	-5.99601E-002	-2.62932E-004	3.57850E+000	9	...........
STARTTIMEOFFSET	QUANT	1286.346	Start Time Offset (s)
