EXPLAIN
TAG	PWR800_DISCHARGE
TITLE	LABEL	PWR Cyclic Charge Discharge (Cell) - Discharge Step	Test &Identifier
DATE	LABEL	13-7-2017	Date
TIME	LABEL	15:52:19	Time
NOTES	NOTES	2	&Notes...
	supercap test cell
	6M KOH
PSTAT	PSTAT	IFC5000-01520	Potentiostat
CAPACITY	QUANT	1.00000E-003	Capacity (A-hr)
CELLTYPE	SELECTOR	1	&Cell Type
WORKINGCONNECTION	SELECTOR	0	&Working Lead
MAXDISCHARGETIME	VARIABLEANDUNITS	1.00000E+002	s	1.00000E+002	second(s)	Max &Discharge Time
DISCHARGEMODE	MULTIPARAM	0	1.00000E-004	&Discharge Mode	Constant Current	Amp(s)
SAMPLETIME	QUANT	1.00000E-002	Sa&mple Period (s)
DISCHARGESTOPAT1	MULTIPARAM	3	0.00000E+000	Discharge Stop At &1	Voltage < Limit	V
DISCHARGESTOPAT2	MULTIPARAM	0	0.00000E+000	Discharge Stop At &2	None	N/A
AESBHCSELECTOR	TOGGLE	F	Save Both Half Cells
IRCOMP	TOGGLE	F	IR &Measure
EOC	QUANT	0	Open Circuit (V)
SEQUENCER	TOGGLE	TRUE	Run as Sequence
PSTATMODEL	IQUANT	53	Pstat Model
PSTATSECTION	LABEL	IFC5000-01520	Pstat Section
PSTATSERIALNO	LABEL	01520	Pstat Serial Number
CTRLMODE	IQUANT	0	Control Mode
ELECTROMETER	IQUANT	1	RE=0 or CS=1
IESTAB	IQUANT	0	I/E Stability
CASPEED	IQUANT	4	Control Amp Speed
CONVENTION	IQUANT	1	Current Convention
ICHRANGE	IQUANT	2	Ich Range
ICHRANGEMODE	TOGGLE	T	Ich Auto Range
ICHOFFSETENABLE	TOGGLE	F	Ich Offset Enable
ICHOFFSET	QUANT	0	Ich Offset (V)
ICHFILTER	IQUANT	1	Ich Filter
VCHRANGE	IQUANT	2	Vch Range
VCHRANGEMODE	TOGGLE	T	Vch Auto Range
VCHOFFSETENABLE	TOGGLE	F	Vch Offset Enable
VCHOFFSET	QUANT	0	Vch Offset (V)
VCHFILTER	IQUANT	1	Vch Filter
IERANGELOWERLIMIT	IQUANT	9	I/E Range Lower Limit
IERANGEMODE	TOGGLE	F	I/E AutoRange
IERANGE	IQUANT	9	I/E Range
ACHSELECT	IQUANT	1	Ach Select
ACHRANGE	IQUANT	2	Ach Range
ACHOFFSETENABLE	TOGGLE	F	Ach Offset Enable
ACHOFFSET	QUANT	0	Ach Offset (V)
ACHFILTER	IQUANT	1	Ach Filter
CABLEID	IQUANT	14	Cable ID
DCCALDATE	LABEL	5-7-2017	DC Calibration Date
ACCALDATE	LABEL	12/3/2015	AC Calibration Date
FRAMEWORKVERSION	QUANT	7.01	Framework Version
INSTRUMENTVERSION	LABEL	4.00	Instrument Version
CURVE	TABLE	86
	Pt	T	Vf	Im	Vu	Pwr	Sig	Ach	Temp	IERange	Over
	#	s	V	A	V	W	V	V	deg C	#	bits
	0	0.013333	8.46254E-001	-9.93156E-005	0.00000E+000	-8.40463E-005	-5.99601E-002	8.46619E-001	3.58000E+000	9	...........
	1	0.026667	8.31959E-001	-9.87311E-005	0.00000E+000	-8.21402E-005	-5.99601E-002	8.32306E-001	3.58000E+000	9	...........
	2	0.04	8.18504E-001	-9.84425E-005	0.00000E+000	-8.05756E-005	-5.99601E-002	8.18843E-001	3.58000E+000	9	...........
	3	0.053333	8.05594E-001	-9.90666E-005	0.00000E+000	-7.98075E-005	-5.99601E-002	8.05923E-001	3.58000E+000	9	...........
	4	0.066667	7.93082E-001	-9.77705E-005	0.00000E+000	-7.75400E-005	-5.99601E-002	7.93404E-001	3.58000E+000	9	...........
	5	0.08	7.80810E-001	-9.88624E-005	0.00000E+000	-7.71928E-005	-5.99601E-002	7.81139E-001	3.58000E+000	9	...........
	6	0.093333	7.68781E-001	-9.88937E-005	0.00000E+000	-7.60275E-005	-5.99601E-002	7.69095E-001	3.58000E+000	9	...........
	7	0.106667	7.56906E-001	-9.87363E-005	0.00000E+000	-7.47341E-005	-5.99601E-002	7.57182E-001	3.57947E+000	9	...........
	8	0.12	7.45113E-001	-9.80185E-005	0.00000E+000	-7.30348E-005	-5.99601E-002	7.45426E-001	3.57860E+000	9	...........
	9	0.133333	7.33428E-001	-9.79601E-005	0.00000E+000	-7.18467E-005	-5.99601E-002	7.33710E-001	3.57860E+000	9	...........
	10	0.146667	7.21818E-001	-9.95282E-005	0.00000E+000	-7.18412E-005	-5.99601E-002	7.22086E-001	3.57860E+000	9	...........
	11	0.16	7.10214E-001	-9.96730E-005	0.00000E+000	-7.07891E-005	-5.99601E-002	7.10525E-001	3.57860E+000	9	...........
	12	0.173333	6.98718E-001	-9.97740E-005	0.00000E+000	-6.97140E-005	-5.99601E-002	6.98989E-001	3.57860E+000	9	...........
	13	0.186667	6.87234E-001	-9.95104E-005	0.00000E+000	-6.83870E-005	-5.99601E-002	6.87507E-001	3.57860E+000	9	...........
	14	0.2	6.75761E-001	-9.88551E-005	0.00000E+000	-6.68024E-005	-5.99601E-002	6.76024E-001	3.57860E+000	9	...........
	15	0.213333	6.64343E-001	-9.86176E-005	0.00000E+000	-6.55159E-005	-5.99601E-002	6.64598E-001	3.57860E+000	9	...........
	16	0.226667	6.52916E-001	-9.90083E-005	0.00000E+000	-6.46441E-005	-5.99601E-002	6.53194E-001	3.57860E+000	9	...........
	17	0.24	6.41531E-001	-9.85238E-005	0.00000E+000	-6.32061E-005	-5.99601E-002	6.41799E-001	3.57860E+000	9	...........
	18	0.253333	6.30151E-001	-9.85311E-005	0.00000E+000	-6.20894E-005	-5.99601E-002	6.30403E-001	3.57860E+000	9	...........
	19	0.266667	6.18843E-001	-9.85592E-005	0.00000E+000	-6.09926E-005	-5.99601E-002	6.19073E-001	3.57860E+000	9	...........
	20	0.28	6.07445E-001	-9.92375E-005	0.00000E+000	-6.02813E-005	-5.99601E-002	6.07726E-001	3.57860E+000	9	...........
	21	0.293333	5.96184E-001	-9.86540E-005	0.00000E+000	-5.88160E-005	-5.99601E-002	5.96425E-001	3.57860E+000	9	...........
	22	0.306667	5.84880E-001	-9.81643E-005	0.00000E+000	-5.74144E-005	-5.99601E-002	5.85145E-001	3.57860E+000	9	...........
	23	0.32	5.73688E-001	-9.87770E-005	0.00000E+000	-5.66672E-005	-5.99601E-002	5.73931E-001	3.57860E+000	9	...........
	24	0.333333	5.62482E-001	-9.80185E-005	0.00000E+000	-5.51336E-005	-5.99601E-002	5.62740E-001	3.57860E+000	9	...........
	25	0.346667	5.51333E-001	-9.91468E-005	0.00000E+000	-5.46629E-005	-5.99601E-002	5.51594E-001	3.57860E+000	9	...........
	26	0.36	5.40224E-001	-9.81945E-005	0.00000E+000	-5.30470E-005	-5.99601E-002	5.40477E-001	3.57860E+000	9	...........
	27	0.373333	5.29157E-001	-9.86613E-005	0.00000E+000	-5.22073E-005	-5.99601E-002	5.29409E-001	3.57860E+000	9	...........
	28	0.386667	5.18143E-001	-9.81185E-005	0.00000E+000	-5.08394E-005	-5.99601E-002	5.18387E-001	3.57860E+000	9	...........
	29	0.4	5.07144E-001	-9.98866E-005	0.00000E+000	-5.06569E-005	-5.99601E-002	5.07425E-001	3.57860E+000	9	...........
	30	0.413333	4.96246E-001	-9.90687E-005	0.00000E+000	-4.91625E-005	-5.99601E-002	4.96524E-001	3.57860E+000	9	...........
	31	0.426667	4.85558E-001	-9.87457E-005	0.00000E+000	-4.79468E-005	-5.99601E-002	4.85765E-001	3.57860E+000	9	...........
	32	0.44	4.75021E-001	-9.87999E-005	0.00000E+000	-4.69320E-005	-5.99601E-002	4.75120E-001	3.57860E+000	9	...........
	33	0.453333	4.64300E-001	-9.84446E-005	0.00000E+000	-4.57078E-005	-5.99601E-002	4.64401E-001	3.57860E+000	9	...........
	34	0.466667	4.53663E-001	-9.83738E-005	0.00000E+000	-4.46285E-005	-5.99601E-002	4.53757E-001	3.57860E+000	9	...........
	35	0.48	4.43087E-001	-9.99428E-005	0.00000E+000	-4.42834E-005	-5.99601E-002	4.43174E-001	3.57860E+000	9	...........
	36	0.493333	4.32584E-001	-9.91500E-005	0.00000E+000	-4.28907E-005	-5.99601E-002	4.32671E-001	3.57860E+000	9	...........
	37	0.506667	4.22148E-001	-9.89739E-005	0.00000E+000	-4.17816E-005	-5.99601E-002	4.22239E-001	3.57860E+000	9	...........
	38	0.52	4.11788E-001	-9.90499E-005	0.00000E+000	-4.07876E-005	-5.99601E-002	4.11872E-001	3.57860E+000	9	...........
	39	0.533333	4.01505E-001	-9.88478E-005	0.00000E+000	-3.96879E-005	-5.99601E-002	4.01580E-001	3.57860E+000	9	...........
	40	0.546667	3.91278E-001	-9.84998E-005	0.00000E+000	-3.85408E-005	-5.99601E-002	3.91353E-001	3.57860E+000	9	...........
	41	0.56	3.81130E-001	-9.86863E-005	0.00000E+000	-3.76124E-005	-5.99601E-002	3.81204E-001	3.57860E+000	9	...........
	42	0.573333	3.71048E-001	-9.94011E-005	0.00000E+000	-3.68825E-005	-5.99601E-002	3.71119E-001	3.57860E+000	9	...........
	43	0.586667	3.61037E-001	-9.87947E-005	0.00000E+000	-3.56686E-005	-5.99601E-002	3.61109E-001	3.57860E+000	9	...........
	44	0.6	3.51093E-001	-9.86624E-005	0.00000E+000	-3.46397E-005	-5.99601E-002	3.51157E-001	3.57860E+000	9	...........
	45	0.613333	3.41205E-001	-9.87072E-005	0.00000E+000	-3.36793E-005	-5.99601E-002	3.41263E-001	3.57860E+000	9	...........
	46	0.626667	3.31387E-001	-9.82133E-005	0.00000E+000	-3.25466E-005	-5.99601E-002	3.31440E-001	3.57860E+000	9	...........
	47	0.64	3.21625E-001	-9.93646E-005	0.00000E+000	-3.19582E-005	-5.99601E-002	3.21682E-001	3.57860E+000	9	...........
	48	0.653333	3.11927E-001	-9.88572E-005	0.00000E+000	-3.08362E-005	-5.99601E-002	3.11981E-001	3.57860E+000	9	...........
	49	0.666667	3.02279E-001	-9.94156E-005	0.00000E+000	-3.00512E-005	-5.99601E-002	3.02328E-001	3.57860E+000	9	...........
	50	0.68	2.92698E-001	-9.83446E-005	0.00000E+000	-2.87852E-005	-5.99601E-002	2.92749E-001	3.57860E+000	9	...........
	51	0.693333	2.83161E-001	-9.91385E-005	0.00000E+000	-2.80722E-005	-5.99601E-002	2.83212E-001	3.57860E+000	9	...........
	52	0.706667	2.73681E-001	-9.81862E-005	0.00000E+000	-2.68717E-005	-5.99601E-002	2.73732E-001	3.57860E+000	9	...........
	53	0.72	2.64248E-001	-9.84686E-005	0.00000E+000	-2.60201E-005	-5.99601E-002	2.64298E-001	3.57860E+000	9	...........
	54	0.733333	2.54872E-001	-9.92552E-005	0.00000E+000	-2.52974E-005	-5.99601E-002	2.54919E-001	3.57860E+000	9	...........
	55	0.746667	2.45555E-001	-9.73965E-005	0.00000E+000	-2.39161E-005	-5.99601E-002	2.45598E-001	3.57860E+000	9	...........
	56	0.76	2.36281E-001	-9.81748E-005	0.00000E+000	-2.31968E-005	-5.99601E-002	2.36326E-001	3.57860E+000	9	...........
	57	0.773333	2.27064E-001	-9.87749E-005	0.00000E+000	-2.24282E-005	-5.99601E-002	2.27099E-001	3.57860E+000	9	...........
	58	0.786667	2.17897E-001	-9.88395E-005	0.00000E+000	-2.15368E-005	-5.99601E-002	2.17932E-001	3.57860E+000	9	...........
	59	0.8	2.08787E-001	-9.91020E-005	0.00000E+000	-2.06912E-005	-5.99601E-002	2.08826E-001	3.57860E+000	9	...........
	60	0.813333	1.99736E-001	-9.92760E-005	0.00000E+000	-1.98290E-005	-5.99601E-002	1.99770E-001	3.57860E+000	9	...........
	61	0.826667	1.90743E-001	-9.87249E-005	0.00000E+000	-1.88311E-005	-5.99601E-002	1.90774E-001	3.57860E+000	9	...........
	62	0.84	1.81807E-001	-9.90103E-005	0.00000E+000	-1.80008E-005	-5.99601E-002	1.81839E-001	3.57860E+000	9	...........
	63	0.853333	1.72940E-001	-9.96709E-005	0.00000E+000	-1.72371E-005	-5.99601E-002	1.72967E-001	3.57860E+000	9	...........
	64	0.866667	1.64146E-001	-9.89645E-005	0.00000E+000	-1.62446E-005	-5.99601E-002	1.64160E-001	3.57860E+000	9	...........
	65	0.88	1.55414E-001	-9.92260E-005	0.00000E+000	-1.54211E-005	-5.99601E-002	1.55430E-001	3.57860E+000	9	...........
	66	0.893333	1.46757E-001	-9.85009E-005	0.00000E+000	-1.44557E-005	-5.99601E-002	1.46774E-001	3.57860E+000	9	...........
	67	0.906667	1.38170E-001	-9.99480E-005	0.00000E+000	-1.38098E-005	-5.99601E-002	1.38186E-001	3.57860E+000	9	...........
	68	0.92	1.29662E-001	-9.91270E-005	0.00000E+000	-1.28531E-005	-5.99601E-002	1.29674E-001	3.57860E+000	9	...........
	69	0.933333	1.21220E-001	-9.92229E-005	0.00000E+000	-1.20278E-005	-5.99601E-002	1.21235E-001	3.57860E+000	9	...........
	70	0.946667	1.12860E-001	-9.86603E-005	0.00000E+000	-1.11348E-005	-5.99601E-002	1.12865E-001	3.57860E+000	9	...........
	71	0.96	1.04575E-001	-9.91687E-005	0.00000E+000	-1.03706E-005	-5.99601E-002	1.04584E-001	3.57860E+000	9	...........
	72	0.97333	9.63715E-002	-9.81987E-005	0.00000E+000	-9.46356E-006	-5.99601E-002	9.63800E-002	3.57860E+000	9	...........
	73	0.98667	8.82354E-002	-9.88343E-005	0.00000E+000	-8.72068E-006	-5.99601E-002	8.82495E-002	3.57860E+000	9	...........
	74	1	8.01919E-002	-9.95334E-005	0.00000E+000	-7.98177E-006	-5.99601E-002	8.01920E-002	3.57860E+000	9	...........
	75	1.01333	7.22142E-002	-9.91343E-005	0.00000E+000	-7.15891E-006	-5.99601E-002	7.22057E-002	3.57860E+000	9	...........
	76	1.02667	6.43043E-002	-9.88311E-005	0.00000E+000	-6.35527E-006	-5.99601E-002	6.42981E-002	3.57860E+000	9	...........
	77	1.04	5.64675E-002	-9.92541E-005	0.00000E+000	-5.60463E-006	-5.99601E-002	5.64603E-002	3.57860E+000	9	...........
	78	1.05333	4.87143E-002	-9.88509E-005	0.00000E+000	-4.81546E-006	-5.99601E-002	4.87106E-002	3.57860E+000	9	...........
	79	1.06667	4.10431E-002	-9.86842E-005	0.00000E+000	-4.05031E-006	-5.99601E-002	4.10383E-002	3.57860E+000	9	...........
	80	1.08	3.34192E-002	-9.92416E-005	0.00000E+000	-3.31658E-006	-5.99601E-002	3.34049E-002	3.57860E+000	9	...........
	81	1.09333	2.58617E-002	-9.94083E-005	0.00000E+000	-2.57087E-006	-5.99601E-002	2.58453E-002	3.57860E+000	9	...........
	82	1.10667	1.83759E-002	-9.90051E-005	0.00000E+000	-1.81931E-006	-5.99601E-002	1.83527E-002	3.57886E+000	9	...........
	83	1.12	1.09621E-002	-9.90968E-005	0.00000E+000	-1.08631E-006	-5.99601E-002	1.09294E-002	3.57930E+000	9	...........
	84	1.13333	3.61026E-003	-9.87051E-005	0.00000E+000	-3.56351E-007	-5.99601E-002	3.57167E-003	3.57930E+000	9	...........
	85	1.135	-5.06493E-004	-1.00086E-004	0.00000E+000	5.06926E-008	-5.99601E-002	-5.44791E-004	3.57930E+000	9	...........
STARTTIMEOFFSET	QUANT	2270.649	Start Time Offset (s)
