EXPLAIN
TAG	PWR800_DISCHARGE
TITLE	LABEL	PWR Cyclic Charge Discharge (Cell) - Discharge Step	Test &Identifier
DATE	LABEL	13-7-2017	Date
TIME	LABEL	15:54:07	Time
NOTES	NOTES	2	&Notes...
	supercap test cell
	6M KOH
PSTAT	PSTAT	IFC5000-01520	Potentiostat
CAPACITY	QUANT	1.00000E-003	Capacity (A-hr)
CELLTYPE	SELECTOR	1	&Cell Type
WORKINGCONNECTION	SELECTOR	0	&Working Lead
MAXDISCHARGETIME	VARIABLEANDUNITS	1.00000E+002	s	1.00000E+002	second(s)	Max &Discharge Time
DISCHARGEMODE	MULTIPARAM	0	1.00000E-004	&Discharge Mode	Constant Current	Amp(s)
SAMPLETIME	QUANT	1.00000E-002	Sa&mple Period (s)
DISCHARGESTOPAT1	MULTIPARAM	3	0.00000E+000	Discharge Stop At &1	Voltage < Limit	V
DISCHARGESTOPAT2	MULTIPARAM	0	0.00000E+000	Discharge Stop At &2	None	N/A
AESBHCSELECTOR	TOGGLE	F	Save Both Half Cells
IRCOMP	TOGGLE	F	IR &Measure
EOC	QUANT	0	Open Circuit (V)
SEQUENCER	TOGGLE	TRUE	Run as Sequence
PSTATMODEL	IQUANT	53	Pstat Model
PSTATSECTION	LABEL	IFC5000-01520	Pstat Section
PSTATSERIALNO	LABEL	01520	Pstat Serial Number
CTRLMODE	IQUANT	0	Control Mode
ELECTROMETER	IQUANT	1	RE=0 or CS=1
IESTAB	IQUANT	0	I/E Stability
CASPEED	IQUANT	4	Control Amp Speed
CONVENTION	IQUANT	1	Current Convention
ICHRANGE	IQUANT	2	Ich Range
ICHRANGEMODE	TOGGLE	T	Ich Auto Range
ICHOFFSETENABLE	TOGGLE	F	Ich Offset Enable
ICHOFFSET	QUANT	0	Ich Offset (V)
ICHFILTER	IQUANT	1	Ich Filter
VCHRANGE	IQUANT	2	Vch Range
VCHRANGEMODE	TOGGLE	T	Vch Auto Range
VCHOFFSETENABLE	TOGGLE	F	Vch Offset Enable
VCHOFFSET	QUANT	0	Vch Offset (V)
VCHFILTER	IQUANT	1	Vch Filter
IERANGELOWERLIMIT	IQUANT	9	I/E Range Lower Limit
IERANGEMODE	TOGGLE	F	I/E AutoRange
IERANGE	IQUANT	9	I/E Range
ACHSELECT	IQUANT	1	Ach Select
ACHRANGE	IQUANT	2	Ach Range
ACHOFFSETENABLE	TOGGLE	F	Ach Offset Enable
ACHOFFSET	QUANT	0	Ach Offset (V)
ACHFILTER	IQUANT	1	Ach Filter
CABLEID	IQUANT	14	Cable ID
DCCALDATE	LABEL	5-7-2017	DC Calibration Date
ACCALDATE	LABEL	12/3/2015	AC Calibration Date
FRAMEWORKVERSION	QUANT	7.01	Framework Version
INSTRUMENTVERSION	LABEL	4.00	Instrument Version
CURVE	TABLE	85
	Pt	T	Vf	Im	Vu	Pwr	Sig	Ach	Temp	IERange	Over
	#	s	V	A	V	W	V	V	deg C	#	bits
	0	0.013333	8.45726E-001	-9.84102E-005	0.00000E+000	-8.32281E-005	-5.99601E-002	8.46063E-001	3.57890E+000	9	...........
	1	0.026667	8.31392E-001	-9.91520E-005	0.00000E+000	-8.24343E-005	-5.99601E-002	8.31725E-001	3.57890E+000	9	...........
	2	0.04	8.17915E-001	-9.92291E-005	0.00000E+000	-8.11610E-005	-5.99601E-002	8.18227E-001	3.57890E+000	9	...........
	3	0.053333	8.04974E-001	-9.93271E-005	0.00000E+000	-7.99557E-005	-5.99601E-002	8.05273E-001	3.57890E+000	9	...........
	4	0.066667	7.92429E-001	-9.85675E-005	0.00000E+000	-7.81078E-005	-5.99601E-002	7.92706E-001	3.57890E+000	9	...........
	5	0.08	7.80120E-001	-9.93052E-005	0.00000E+000	-7.74700E-005	-5.99601E-002	7.80431E-001	3.57890E+000	9	...........
	6	0.093333	7.68038E-001	-9.97865E-005	0.00000E+000	-7.66398E-005	-5.99601E-002	7.68360E-001	3.57890E+000	9	...........
	7	0.106667	7.56116E-001	-9.85332E-005	0.00000E+000	-7.45025E-005	-5.99601E-002	7.56417E-001	3.57890E+000	9	...........
	8	0.12	7.44320E-001	-9.83675E-005	0.00000E+000	-7.32169E-005	-5.99601E-002	7.44590E-001	3.57890E+000	9	...........
	9	0.133333	7.32587E-001	-9.86926E-005	0.00000E+000	-7.23009E-005	-5.99601E-002	7.32831E-001	3.57890E+000	9	...........
	10	0.146667	7.20930E-001	-9.86759E-005	0.00000E+000	-7.11385E-005	-5.99601E-002	7.21161E-001	3.57890E+000	9	...........
	11	0.16	7.09309E-001	-9.84561E-005	0.00000E+000	-6.98357E-005	-5.99601E-002	7.09515E-001	3.57890E+000	9	...........
	12	0.173333	6.97776E-001	-9.94636E-005	0.00000E+000	-6.94032E-005	-5.99601E-002	6.97962E-001	3.57890E+000	9	...........
	13	0.186667	6.86234E-001	-9.95667E-005	0.00000E+000	-6.83260E-005	-5.99601E-002	6.86478E-001	3.57890E+000	9	...........
	14	0.2	6.74760E-001	-9.78622E-005	0.00000E+000	-6.60334E-005	-5.99601E-002	6.74984E-001	3.57890E+000	9	...........
	15	0.213333	6.63283E-001	-9.96042E-005	0.00000E+000	-6.60658E-005	-5.99601E-002	6.63537E-001	3.57890E+000	9	...........
	16	0.226667	6.51836E-001	-9.83258E-005	0.00000E+000	-6.40923E-005	-5.99601E-002	6.52073E-001	3.57890E+000	9	...........
	17	0.24	6.40416E-001	-9.85780E-005	0.00000E+000	-6.31309E-005	-5.99601E-002	6.40664E-001	3.57890E+000	9	...........
	18	0.253333	6.29005E-001	-9.91177E-005	0.00000E+000	-6.23455E-005	-5.99601E-002	6.29264E-001	3.57890E+000	9	...........
	19	0.266667	6.17645E-001	-9.83498E-005	0.00000E+000	-6.07452E-005	-5.99601E-002	6.17888E-001	3.57890E+000	9	...........
	20	0.28	6.06233E-001	-9.90041E-005	0.00000E+000	-6.00195E-005	-5.99601E-002	6.06525E-001	3.57890E+000	9	...........
	21	0.293333	5.94940E-001	-9.83165E-005	0.00000E+000	-5.84924E-005	-5.99601E-002	5.95215E-001	3.57890E+000	9	...........
	22	0.306667	5.83646E-001	-9.87853E-005	0.00000E+000	-5.76556E-005	-5.99601E-002	5.83916E-001	3.57890E+000	9	...........
	23	0.32	5.72397E-001	-9.93417E-005	0.00000E+000	-5.68628E-005	-5.99601E-002	5.72676E-001	3.57890E+000	9	...........
	24	0.333333	5.61183E-001	-9.93635E-005	0.00000E+000	-5.57611E-005	-5.99601E-002	5.61452E-001	3.57890E+000	9	...........
	25	0.346667	5.50012E-001	-9.85978E-005	0.00000E+000	-5.42300E-005	-5.99601E-002	5.50269E-001	3.57890E+000	9	...........
	26	0.36	5.38858E-001	-9.86988E-005	0.00000E+000	-5.31847E-005	-5.99601E-002	5.39134E-001	3.57890E+000	9	...........
	27	0.373333	5.27768E-001	-9.91510E-005	0.00000E+000	-5.23287E-005	-5.99601E-002	5.28037E-001	3.57890E+000	9	...........
	28	0.386667	5.16741E-001	-9.93292E-005	0.00000E+000	-5.13275E-005	-5.99601E-002	5.17004E-001	3.57890E+000	9	...........
	29	0.4	5.05740E-001	-9.89322E-005	0.00000E+000	-5.00339E-005	-5.99601E-002	5.06020E-001	3.57890E+000	9	...........
	30	0.413333	4.94833E-001	-9.81268E-005	0.00000E+000	-4.85564E-005	-5.99601E-002	4.95095E-001	3.57890E+000	9	...........
	31	0.426667	4.84174E-001	-9.89082E-005	0.00000E+000	-4.78888E-005	-5.99601E-002	4.84336E-001	3.57890E+000	9	...........
	32	0.44	4.73563E-001	-9.83185E-005	0.00000E+000	-4.65600E-005	-5.99601E-002	4.73654E-001	3.57890E+000	9	...........
	33	0.453333	4.62837E-001	-9.87186E-005	0.00000E+000	-4.56907E-005	-5.99601E-002	4.62926E-001	3.57890E+000	9	...........
	34	0.466667	4.52175E-001	-9.91479E-005	0.00000E+000	-4.48322E-005	-5.99601E-002	4.52266E-001	3.57890E+000	9	...........
	35	0.48	4.41591E-001	-9.91510E-005	0.00000E+000	-4.37842E-005	-5.99601E-002	4.41675E-001	3.57890E+000	9	...........
	36	0.493333	4.31072E-001	-9.85915E-005	0.00000E+000	-4.25000E-005	-5.99601E-002	4.31157E-001	3.57890E+000	9	...........
	37	0.506667	4.20636E-001	-9.87155E-005	0.00000E+000	-4.15233E-005	-5.99601E-002	4.20722E-001	3.57890E+000	9	...........
	38	0.52	4.10272E-001	-9.85092E-005	0.00000E+000	-4.04156E-005	-5.99601E-002	4.10354E-001	3.57890E+000	9	...........
	39	0.533333	3.99977E-001	-9.84644E-005	0.00000E+000	-3.93835E-005	-5.99601E-002	4.00048E-001	3.57890E+000	9	...........
	40	0.546667	3.89755E-001	-9.76215E-005	0.00000E+000	-3.80485E-005	-5.99601E-002	3.89825E-001	3.57890E+000	9	...........
	41	0.56	3.79593E-001	-9.94188E-005	0.00000E+000	-3.77387E-005	-5.99601E-002	3.79668E-001	3.57890E+000	9	...........
	42	0.573333	3.69507E-001	-9.94136E-005	0.00000E+000	-3.67340E-005	-5.99601E-002	3.69586E-001	3.57890E+000	9	...........
	43	0.586667	3.59495E-001	-9.88186E-005	0.00000E+000	-3.55248E-005	-5.99601E-002	3.59559E-001	3.57890E+000	9	...........
	44	0.6	3.49542E-001	-9.97001E-005	0.00000E+000	-3.48494E-005	-5.99601E-002	3.49604E-001	3.57890E+000	9	...........
	45	0.613333	3.39649E-001	-9.92917E-005	0.00000E+000	-3.37244E-005	-5.99601E-002	3.39709E-001	3.57890E+000	9	...........
	46	0.626667	3.29819E-001	-9.83852E-005	0.00000E+000	-3.24494E-005	-5.99601E-002	3.29884E-001	3.57890E+000	9	...........
	47	0.64	3.20063E-001	-9.83404E-005	0.00000E+000	-3.14751E-005	-5.99601E-002	3.20121E-001	3.57890E+000	9	...........
	48	0.653333	3.10348E-001	-9.90197E-005	0.00000E+000	-3.07306E-005	-5.99601E-002	3.10404E-001	3.57890E+000	9	...........
	49	0.666667	3.00698E-001	-9.93500E-005	0.00000E+000	-2.98743E-005	-5.99601E-002	3.00754E-001	3.57890E+000	9	...........
	50	0.68	2.91099E-001	-9.91166E-005	0.00000E+000	-2.88527E-005	-5.99601E-002	2.91162E-001	3.57890E+000	9	...........
	51	0.693333	2.81567E-001	-9.87009E-005	0.00000E+000	-2.77909E-005	-5.99601E-002	2.81615E-001	3.57890E+000	9	...........
	52	0.706667	2.72076E-001	-9.92677E-005	0.00000E+000	-2.70083E-005	-5.99601E-002	2.72126E-001	3.57890E+000	9	...........
	53	0.72	2.62643E-001	-9.93177E-005	0.00000E+000	-2.60851E-005	-5.99601E-002	2.62694E-001	3.57890E+000	9	...........
	54	0.733333	2.53266E-001	-9.82685E-005	0.00000E+000	-2.48880E-005	-5.99601E-002	2.53313E-001	3.57890E+000	9	...........
	55	0.746667	2.43944E-001	-9.84279E-005	0.00000E+000	-2.40109E-005	-5.99601E-002	2.43983E-001	3.57890E+000	9	...........
	56	0.76	2.34667E-001	-9.86259E-005	0.00000E+000	-2.31443E-005	-5.99601E-002	2.34706E-001	3.57890E+000	9	...........
	57	0.773333	2.25447E-001	-9.88676E-005	0.00000E+000	-2.22894E-005	-5.99601E-002	2.25483E-001	3.57890E+000	9	...........
	58	0.786667	2.16282E-001	-9.87447E-005	0.00000E+000	-2.13567E-005	-5.99601E-002	2.16317E-001	3.57890E+000	9	...........
	59	0.8	2.07177E-001	-9.91145E-005	0.00000E+000	-2.05342E-005	-5.99601E-002	2.07209E-001	3.57890E+000	9	...........
	60	0.813333	1.98122E-001	-9.85227E-005	0.00000E+000	-1.95196E-005	-5.99601E-002	1.98155E-001	3.57890E+000	9	...........
	61	0.826667	1.89131E-001	-9.89718E-005	0.00000E+000	-1.87187E-005	-5.99601E-002	1.89161E-001	3.57890E+000	9	...........
	62	0.84	1.80204E-001	-9.85332E-005	0.00000E+000	-1.77561E-005	-5.99601E-002	1.80230E-001	3.57890E+000	9	...........
	63	0.853333	1.71345E-001	-9.93146E-005	0.00000E+000	-1.70170E-005	-5.99601E-002	1.71365E-001	3.57890E+000	9	...........
	64	0.866667	1.62551E-001	-9.93719E-005	0.00000E+000	-1.61530E-005	-5.99601E-002	1.62575E-001	3.57890E+000	9	...........
	65	0.88	1.53825E-001	-9.84675E-005	0.00000E+000	-1.51468E-005	-5.99601E-002	1.53843E-001	3.57890E+000	9	...........
	66	0.893333	1.45169E-001	-9.92323E-005	0.00000E+000	-1.44054E-005	-5.99601E-002	1.45186E-001	3.57890E+000	9	...........
	67	0.906667	1.36587E-001	-9.85894E-005	0.00000E+000	-1.34661E-005	-5.99601E-002	1.36610E-001	3.57890E+000	9	...........
	68	0.92	1.28085E-001	-9.97647E-005	0.00000E+000	-1.27784E-005	-5.99601E-002	1.28104E-001	3.57890E+000	9	...........
	69	0.933333	1.19660E-001	-9.92833E-005	0.00000E+000	-1.18802E-005	-5.99601E-002	1.19673E-001	3.57890E+000	9	...........
	70	0.946667	1.11308E-001	-9.79966E-005	0.00000E+000	-1.09078E-005	-5.99601E-002	1.11322E-001	3.57890E+000	9	...........
	71	0.96	1.03038E-001	-9.94823E-005	0.00000E+000	-1.02504E-005	-5.99601E-002	1.03041E-001	3.57890E+000	9	...........
	72	0.97333	9.48411E-002	-9.86051E-005	0.00000E+000	-9.35181E-006	-5.99601E-002	9.48487E-002	3.57890E+000	9	...........
	73	0.98667	8.67209E-002	-9.93437E-005	0.00000E+000	-8.61518E-006	-5.99601E-002	8.67272E-002	3.57890E+000	9	...........
	74	1	7.86798E-002	-9.85478E-005	0.00000E+000	-7.75372E-006	-5.99601E-002	7.86771E-002	3.57905E+000	9	...........
	75	1.01333	7.07117E-002	-9.82269E-005	0.00000E+000	-6.94579E-006	-5.99601E-002	7.07088E-002	3.57910E+000	9	...........
	76	1.02667	6.28165E-002	-9.83873E-005	0.00000E+000	-6.18035E-006	-5.99601E-002	6.28089E-002	3.57910E+000	9	...........
	77	1.04	5.49930E-002	-9.95823E-005	0.00000E+000	-5.47633E-006	-5.99601E-002	5.49760E-002	3.57910E+000	9	...........
	78	1.05333	4.72559E-002	-9.90072E-005	0.00000E+000	-4.67867E-006	-5.99601E-002	4.72472E-002	3.57910E+000	9	...........
	79	1.06667	3.95918E-002	-9.87249E-005	0.00000E+000	-3.90869E-006	-5.99601E-002	3.95784E-002	3.57910E+000	9	...........
	80	1.08	3.19788E-002	-9.90531E-005	0.00000E+000	-3.16760E-006	-5.99601E-002	3.19642E-002	3.57910E+000	9	...........
	81	1.09333	2.44317E-002	-9.83477E-005	0.00000E+000	-2.40280E-006	-5.99601E-002	2.44143E-002	3.57910E+000	9	...........
	82	1.10667	1.69583E-002	-9.84644E-005	0.00000E+000	-1.66979E-006	-5.99601E-002	1.69350E-002	3.57910E+000	9	...........
	83	1.12	9.55052E-003	-9.87655E-005	0.00000E+000	-9.43262E-007	-5.99601E-002	9.52156E-003	3.57910E+000	9	...........
	84	1.13167	2.66908E-003	-9.79673E-005	0.00000E+000	-2.61482E-007	-5.99601E-002	2.62860E-003	3.57910E+000	9	...........
STARTTIMEOFFSET	QUANT	2351.824	Start Time Offset (s)
