EXPLAIN
TAG	PWR800_DISCHARGE
TITLE	LABEL	PWR Cyclic Charge Discharge (Cell) - Discharge Step	Test &Identifier
DATE	LABEL	13-7-2017	Date
TIME	LABEL	15:50:30	Time
NOTES	NOTES	2	&Notes...
	supercap test cell
	6M KOH
PSTAT	PSTAT	IFC5000-01520	Potentiostat
CAPACITY	QUANT	1.00000E-003	Capacity (A-hr)
CELLTYPE	SELECTOR	1	&Cell Type
WORKINGCONNECTION	SELECTOR	0	&Working Lead
MAXDISCHARGETIME	VARIABLEANDUNITS	1.00000E+002	s	1.00000E+002	second(s)	Max &Discharge Time
DISCHARGEMODE	MULTIPARAM	0	1.00000E-004	&Discharge Mode	Constant Current	Amp(s)
SAMPLETIME	QUANT	1.00000E-002	Sa&mple Period (s)
DISCHARGESTOPAT1	MULTIPARAM	3	0.00000E+000	Discharge Stop At &1	Voltage < Limit	V
DISCHARGESTOPAT2	MULTIPARAM	0	0.00000E+000	Discharge Stop At &2	None	N/A
AESBHCSELECTOR	TOGGLE	F	Save Both Half Cells
IRCOMP	TOGGLE	F	IR &Measure
EOC	QUANT	0	Open Circuit (V)
SEQUENCER	TOGGLE	TRUE	Run as Sequence
PSTATMODEL	IQUANT	53	Pstat Model
PSTATSECTION	LABEL	IFC5000-01520	Pstat Section
PSTATSERIALNO	LABEL	01520	Pstat Serial Number
CTRLMODE	IQUANT	0	Control Mode
ELECTROMETER	IQUANT	1	RE=0 or CS=1
IESTAB	IQUANT	0	I/E Stability
CASPEED	IQUANT	4	Control Amp Speed
CONVENTION	IQUANT	1	Current Convention
ICHRANGE	IQUANT	2	Ich Range
ICHRANGEMODE	TOGGLE	T	Ich Auto Range
ICHOFFSETENABLE	TOGGLE	F	Ich Offset Enable
ICHOFFSET	QUANT	0	Ich Offset (V)
ICHFILTER	IQUANT	1	Ich Filter
VCHRANGE	IQUANT	2	Vch Range
VCHRANGEMODE	TOGGLE	T	Vch Auto Range
VCHOFFSETENABLE	TOGGLE	F	Vch Offset Enable
VCHOFFSET	QUANT	0	Vch Offset (V)
VCHFILTER	IQUANT	1	Vch Filter
IERANGELOWERLIMIT	IQUANT	9	I/E Range Lower Limit
IERANGEMODE	TOGGLE	F	I/E AutoRange
IERANGE	IQUANT	9	I/E Range
ACHSELECT	IQUANT	1	Ach Select
ACHRANGE	IQUANT	2	Ach Range
ACHOFFSETENABLE	TOGGLE	F	Ach Offset Enable
ACHOFFSET	QUANT	0	Ach Offset (V)
ACHFILTER	IQUANT	1	Ach Filter
CABLEID	IQUANT	14	Cable ID
DCCALDATE	LABEL	5-7-2017	DC Calibration Date
ACCALDATE	LABEL	12/3/2015	AC Calibration Date
FRAMEWORKVERSION	QUANT	7.01	Framework Version
INSTRUMENTVERSION	LABEL	4.00	Instrument Version
CURVE	TABLE	86
	Pt	T	Vf	Im	Vu	Pwr	Sig	Ach	Temp	IERange	Over
	#	s	V	A	V	W	V	V	deg C	#	bits
	0	0.013333	8.46027E-001	-9.89708E-005	0.00000E+000	-8.37319E-005	-5.99601E-002	8.46392E-001	3.57950E+000	9	...........
	1	0.026667	8.31774E-001	-9.91906E-005	0.00000E+000	-8.25041E-005	-5.99601E-002	8.32138E-001	3.57950E+000	9	...........
	2	0.04	8.18360E-001	-9.90562E-005	0.00000E+000	-8.10636E-005	-5.99601E-002	8.18703E-001	3.57950E+000	9	...........
	3	0.053333	8.05512E-001	-9.98928E-005	0.00000E+000	-8.04648E-005	-5.99601E-002	8.05825E-001	3.57950E+000	9	...........
	4	0.066667	7.93022E-001	-9.88103E-005	0.00000E+000	-7.83587E-005	-5.99601E-002	7.93342E-001	3.57950E+000	9	...........
	5	0.08	7.80806E-001	-9.87509E-005	0.00000E+000	-7.71053E-005	-5.99601E-002	7.81139E-001	3.57950E+000	9	...........
	6	0.093333	7.68816E-001	-9.80779E-005	0.00000E+000	-7.54038E-005	-5.99601E-002	7.69135E-001	3.57950E+000	9	...........
	7	0.106667	7.56975E-001	-9.82581E-005	0.00000E+000	-7.43789E-005	-5.99601E-002	7.57262E-001	3.57950E+000	9	...........
	8	0.12	7.45239E-001	-9.81456E-005	0.00000E+000	-7.31419E-005	-5.99601E-002	7.45531E-001	3.57950E+000	9	...........
	9	0.133333	7.33583E-001	-9.82675E-005	0.00000E+000	-7.20873E-005	-5.99601E-002	7.33868E-001	3.57950E+000	9	...........
	10	0.146667	7.22003E-001	-9.81529E-005	0.00000E+000	-7.08667E-005	-5.99601E-002	7.22275E-001	3.57950E+000	9	...........
	11	0.16	7.10450E-001	-9.88436E-005	0.00000E+000	-7.02235E-005	-5.99601E-002	7.10728E-001	3.57950E+000	9	...........
	12	0.173333	6.98961E-001	-9.93708E-005	0.00000E+000	-6.94563E-005	-5.99601E-002	6.99250E-001	3.57950E+000	9	...........
	13	0.186667	6.87515E-001	-9.89437E-005	0.00000E+000	-6.80253E-005	-5.99601E-002	6.87773E-001	3.57950E+000	9	...........
	14	0.2	6.76088E-001	-9.88124E-005	0.00000E+000	-6.68058E-005	-5.99601E-002	6.76350E-001	3.57950E+000	9	...........
	15	0.213333	6.64686E-001	-9.89749E-005	0.00000E+000	-6.57872E-005	-5.99601E-002	6.64957E-001	3.57950E+000	9	...........
	16	0.226667	6.53312E-001	-9.88353E-005	0.00000E+000	-6.45703E-005	-5.99601E-002	6.53556E-001	3.57950E+000	9	...........
	17	0.24	6.41927E-001	-9.91125E-005	0.00000E+000	-6.36230E-005	-5.99601E-002	6.42184E-001	3.57950E+000	9	...........
	18	0.253333	6.30607E-001	-9.85540E-005	0.00000E+000	-6.21488E-005	-5.99601E-002	6.30834E-001	3.57950E+000	9	...........
	19	0.266667	6.19282E-001	-9.86863E-005	0.00000E+000	-6.11146E-005	-5.99601E-002	6.19538E-001	3.57950E+000	9	...........
	20	0.28	6.07931E-001	-9.94386E-005	0.00000E+000	-6.04518E-005	-5.99601E-002	6.08245E-001	3.57950E+000	9	...........
	21	0.293333	5.96703E-001	-9.91093E-005	0.00000E+000	-5.91388E-005	-5.99601E-002	5.96985E-001	3.57950E+000	9	...........
	22	0.306667	5.85474E-001	-9.85623E-005	0.00000E+000	-5.77057E-005	-5.99601E-002	5.85723E-001	3.57950E+000	9	...........
	23	0.32	5.74284E-001	-9.97668E-005	0.00000E+000	-5.72944E-005	-5.99601E-002	5.74500E-001	3.57950E+000	9	...........
	24	0.333333	5.63113E-001	-9.93229E-005	0.00000E+000	-5.59300E-005	-5.99601E-002	5.63330E-001	3.57950E+000	9	...........
	25	0.346667	5.51983E-001	-9.98428E-005	0.00000E+000	-5.51115E-005	-5.99601E-002	5.52179E-001	3.57950E+000	9	...........
	26	0.36	5.40935E-001	-9.85509E-005	0.00000E+000	-5.33096E-005	-5.99601E-002	5.41104E-001	3.57950E+000	9	...........
	27	0.373333	5.29862E-001	-9.83988E-005	0.00000E+000	-5.21378E-005	-5.99601E-002	5.30067E-001	3.57950E+000	9	...........
	28	0.386667	5.18883E-001	-9.94094E-005	0.00000E+000	-5.15819E-005	-5.99601E-002	5.19066E-001	3.57950E+000	9	...........
	29	0.4	5.07930E-001	-9.87655E-005	0.00000E+000	-5.01660E-005	-5.99601E-002	5.08144E-001	3.57950E+000	9	...........
	30	0.413333	4.97060E-001	-9.93573E-005	0.00000E+000	-4.93865E-005	-5.99601E-002	4.97278E-001	3.57950E+000	9	...........
	31	0.426667	4.86342E-001	-9.83602E-005	0.00000E+000	-4.78367E-005	-5.99601E-002	4.86534E-001	3.57950E+000	9	...........
	32	0.44	4.75858E-001	-9.92062E-005	0.00000E+000	-4.72081E-005	-5.99601E-002	4.75957E-001	3.57950E+000	9	...........
	33	0.453333	4.65173E-001	-9.98657E-005	0.00000E+000	-4.64548E-005	-5.99601E-002	4.65271E-001	3.57950E+000	9	...........
	34	0.466667	4.54551E-001	-9.92135E-005	0.00000E+000	-4.50976E-005	-5.99601E-002	4.54650E-001	3.57950E+000	9	...........
	35	0.48	4.44004E-001	-9.90187E-005	0.00000E+000	-4.39647E-005	-5.99601E-002	4.44098E-001	3.57950E+000	9	...........
	36	0.493333	4.33519E-001	-9.87843E-005	0.00000E+000	-4.28249E-005	-5.99601E-002	4.33614E-001	3.57950E+000	9	...........
	37	0.506667	4.23115E-001	-9.90103E-005	0.00000E+000	-4.18928E-005	-5.99601E-002	4.23199E-001	3.57950E+000	9	...........
	38	0.52	4.12772E-001	-9.92062E-005	0.00000E+000	-4.09495E-005	-5.99601E-002	4.12861E-001	3.57950E+000	9	...........
	39	0.533333	4.02504E-001	-9.83008E-005	0.00000E+000	-3.95665E-005	-5.99601E-002	4.02583E-001	3.57950E+000	9	...........
	40	0.546667	3.92301E-001	-9.90718E-005	0.00000E+000	-3.88659E-005	-5.99601E-002	3.92379E-001	3.57950E+000	9	...........
	41	0.56	3.82165E-001	-9.86551E-005	0.00000E+000	-3.77026E-005	-5.99601E-002	3.82245E-001	3.57950E+000	9	...........
	42	0.573333	3.72104E-001	-9.89457E-005	0.00000E+000	-3.68181E-005	-5.99601E-002	3.72175E-001	3.57950E+000	9	...........
	43	0.586667	3.62105E-001	-9.90895E-005	0.00000E+000	-3.58809E-005	-5.99601E-002	3.62175E-001	3.57950E+000	9	...........
	44	0.6	3.52177E-001	-9.88937E-005	0.00000E+000	-3.48281E-005	-5.99601E-002	3.52241E-001	3.57950E+000	9	...........
	45	0.613333	3.42309E-001	-9.85769E-005	0.00000E+000	-3.37437E-005	-5.99601E-002	3.42373E-001	3.57950E+000	9	...........
	46	0.626667	3.32498E-001	-9.93323E-005	0.00000E+000	-3.30278E-005	-5.99601E-002	3.32556E-001	3.57950E+000	9	...........
	47	0.64	3.22752E-001	-9.93437E-005	0.00000E+000	-3.20634E-005	-5.99601E-002	3.22809E-001	3.57950E+000	9	...........
	48	0.653333	3.13069E-001	-9.91958E-005	0.00000E+000	-3.10551E-005	-5.99601E-002	3.13119E-001	3.57950E+000	9	...........
	49	0.666667	3.03438E-001	-9.85311E-005	0.00000E+000	-2.98981E-005	-5.99601E-002	3.03485E-001	3.57950E+000	9	...........
	50	0.68	2.93857E-001	-9.99272E-005	0.00000E+000	-2.93643E-005	-5.99601E-002	2.93910E-001	3.57950E+000	9	...........
	51	0.693333	2.84336E-001	-9.97615E-005	0.00000E+000	-2.83658E-005	-5.99601E-002	2.84390E-001	3.57950E+000	9	...........
	52	0.706667	2.74872E-001	-9.89166E-005	0.00000E+000	-2.71894E-005	-5.99601E-002	2.74925E-001	3.57950E+000	9	...........
	53	0.72	2.65461E-001	-9.82268E-005	0.00000E+000	-2.60754E-005	-5.99601E-002	2.65514E-001	3.57950E+000	9	...........
	54	0.733333	2.56098E-001	-9.93583E-005	0.00000E+000	-2.54454E-005	-5.99601E-002	2.56146E-001	3.57950E+000	9	...........
	55	0.746667	2.46786E-001	-9.89062E-005	0.00000E+000	-2.44087E-005	-5.99601E-002	2.46835E-001	3.57950E+000	9	...........
	56	0.76	2.37531E-001	-9.83092E-005	0.00000E+000	-2.33515E-005	-5.99601E-002	2.37572E-001	3.57950E+000	9	...........
	57	0.773333	2.28323E-001	-9.89614E-005	0.00000E+000	-2.25952E-005	-5.99601E-002	2.28362E-001	3.57950E+000	9	...........
	58	0.786667	2.19166E-001	-9.93490E-005	0.00000E+000	-2.17740E-005	-5.99601E-002	2.19207E-001	3.57950E+000	9	...........
	59	0.8	2.10072E-001	-9.84561E-005	0.00000E+000	-2.06829E-005	-5.99601E-002	2.10106E-001	3.57950E+000	9	...........
	60	0.813333	2.01030E-001	-9.90822E-005	0.00000E+000	-1.99185E-005	-5.99601E-002	2.01072E-001	3.57950E+000	9	...........
	61	0.826667	1.92050E-001	-9.85352E-005	0.00000E+000	-1.89237E-005	-5.99601E-002	1.92086E-001	3.57950E+000	9	...........
	62	0.84	1.83128E-001	-9.83977E-005	0.00000E+000	-1.80194E-005	-5.99601E-002	1.83161E-001	3.57950E+000	9	...........
	63	0.853333	1.74275E-001	-9.91020E-005	0.00000E+000	-1.72710E-005	-5.99601E-002	1.74302E-001	3.57950E+000	9	...........
	64	0.866667	1.65482E-001	-9.95167E-005	0.00000E+000	-1.64682E-005	-5.99601E-002	1.65513E-001	3.57950E+000	9	...........
	65	0.88	1.56765E-001	-9.92000E-005	0.00000E+000	-1.55511E-005	-5.99601E-002	1.56785E-001	3.57950E+000	9	...........
	66	0.893333	1.48112E-001	-9.84154E-005	0.00000E+000	-1.45765E-005	-5.99601E-002	1.48130E-001	3.57950E+000	9	...........
	67	0.906667	1.39524E-001	-9.92458E-005	0.00000E+000	-1.38472E-005	-5.99601E-002	1.39550E-001	3.57950E+000	9	...........
	68	0.92	1.31025E-001	-9.88791E-005	0.00000E+000	-1.29557E-005	-5.99601E-002	1.31042E-001	3.57950E+000	9	...........
	69	0.933333	1.22591E-001	-9.81664E-005	0.00000E+000	-1.20344E-005	-5.99601E-002	1.22606E-001	3.57950E+000	9	...........
	70	0.946667	1.14238E-001	-9.88853E-005	0.00000E+000	-1.12965E-005	-5.99601E-002	1.14249E-001	3.57962E+000	9	...........
	71	0.96	1.05962E-001	-9.76194E-005	0.00000E+000	-1.03440E-005	-5.99601E-002	1.05967E-001	3.58000E+000	9	...........
	72	0.97333	9.77568E-002	-9.92656E-005	0.00000E+000	-9.70389E-006	-5.99601E-002	9.77628E-002	3.58000E+000	9	...........
	73	0.98667	8.96305E-002	-9.86988E-005	0.00000E+000	-8.84642E-006	-5.99601E-002	8.96335E-002	3.58000E+000	9	...........
	74	1	8.15846E-002	-9.81560E-005	0.00000E+000	-8.00801E-006	-5.99601E-002	8.15853E-002	3.58000E+000	9	...........
	75	1.01333	7.36068E-002	-9.93677E-005	0.00000E+000	-7.31414E-006	-5.99601E-002	7.36101E-002	3.58000E+000	9	...........
	76	1.02667	6.57030E-002	-9.82331E-005	0.00000E+000	-6.45421E-006	-5.99601E-002	6.57032E-002	3.58000E+000	9	...........
	77	1.04	5.78693E-002	-9.84613E-005	0.00000E+000	-5.69789E-006	-5.99601E-002	5.78637E-002	3.58000E+000	9	...........
	78	1.05333	5.01180E-002	-9.92333E-005	0.00000E+000	-4.97337E-006	-5.99601E-002	5.01116E-002	3.58000E+000	9	...........
	79	1.06667	4.24588E-002	-9.90666E-005	0.00000E+000	-4.20625E-006	-5.99601E-002	4.24544E-002	3.58000E+000	9	...........
	80	1.08	3.48440E-002	-9.83727E-005	0.00000E+000	-3.42770E-006	-5.99601E-002	3.48268E-002	3.58000E+000	9	...........
	81	1.09333	2.72908E-002	-9.88009E-005	0.00000E+000	-2.69635E-006	-5.99601E-002	2.72719E-002	3.58000E+000	9	...........
	82	1.10667	1.98064E-002	-9.92583E-005	0.00000E+000	-1.96595E-006	-5.99601E-002	1.97858E-002	3.58000E+000	9	...........
	83	1.12	1.23833E-002	-9.88405E-005	0.00000E+000	-1.22397E-006	-5.99601E-002	1.23539E-002	3.58000E+000	9	...........
	84	1.13333	5.03205E-003	-9.84529E-005	0.00000E+000	-4.95420E-007	-5.99601E-002	4.99742E-003	3.58000E+000	9	...........
	85	1.13833	5.00440E-006	-9.99994E-005	0.00000E+000	-5.00438E-010	-5.99601E-002	-2.58892E-005	3.58000E+000	9	...........
STARTTIMEOFFSET	QUANT	2189.344	Start Time Offset (s)
