EXPLAIN
TAG	PWR800_DISCHARGE
TITLE	LABEL	PWR Cyclic Charge Discharge (Cell) - Discharge Step	Test &Identifier
DATE	LABEL	13-7-2017	Date
TIME	LABEL	15:25:18	Time
NOTES	NOTES	2	&Notes...
	supercap test cell
	6M KOH
PSTAT	PSTAT	IFC5000-01520	Potentiostat
CAPACITY	QUANT	1.00000E-003	Capacity (A-hr)
CELLTYPE	SELECTOR	1	&Cell Type
WORKINGCONNECTION	SELECTOR	0	&Working Lead
MAXDISCHARGETIME	VARIABLEANDUNITS	1.00000E+002	s	1.00000E+002	second(s)	Max &Discharge Time
DISCHARGEMODE	MULTIPARAM	0	1.00000E-004	&Discharge Mode	Constant Current	Amp(s)
SAMPLETIME	QUANT	1.00000E-002	Sa&mple Period (s)
DISCHARGESTOPAT1	MULTIPARAM	3	0.00000E+000	Discharge Stop At &1	Voltage < Limit	V
DISCHARGESTOPAT2	MULTIPARAM	0	0.00000E+000	Discharge Stop At &2	None	N/A
AESBHCSELECTOR	TOGGLE	F	Save Both Half Cells
IRCOMP	TOGGLE	F	IR &Measure
EOC	QUANT	0	Open Circuit (V)
SEQUENCER	TOGGLE	TRUE	Run as Sequence
PSTATMODEL	IQUANT	53	Pstat Model
PSTATSECTION	LABEL	IFC5000-01520	Pstat Section
PSTATSERIALNO	LABEL	01520	Pstat Serial Number
CTRLMODE	IQUANT	0	Control Mode
ELECTROMETER	IQUANT	1	RE=0 or CS=1
IESTAB	IQUANT	0	I/E Stability
CASPEED	IQUANT	4	Control Amp Speed
CONVENTION	IQUANT	1	Current Convention
ICHRANGE	IQUANT	2	Ich Range
ICHRANGEMODE	TOGGLE	T	Ich Auto Range
ICHOFFSETENABLE	TOGGLE	F	Ich Offset Enable
ICHOFFSET	QUANT	0	Ich Offset (V)
ICHFILTER	IQUANT	1	Ich Filter
VCHRANGE	IQUANT	2	Vch Range
VCHRANGEMODE	TOGGLE	T	Vch Auto Range
VCHOFFSETENABLE	TOGGLE	F	Vch Offset Enable
VCHOFFSET	QUANT	0	Vch Offset (V)
VCHFILTER	IQUANT	1	Vch Filter
IERANGELOWERLIMIT	IQUANT	9	I/E Range Lower Limit
IERANGEMODE	TOGGLE	F	I/E AutoRange
IERANGE	IQUANT	9	I/E Range
ACHSELECT	IQUANT	1	Ach Select
ACHRANGE	IQUANT	2	Ach Range
ACHOFFSETENABLE	TOGGLE	F	Ach Offset Enable
ACHOFFSET	QUANT	0	Ach Offset (V)
ACHFILTER	IQUANT	1	Ach Filter
CABLEID	IQUANT	14	Cable ID
DCCALDATE	LABEL	5-7-2017	DC Calibration Date
ACCALDATE	LABEL	12/3/2015	AC Calibration Date
FRAMEWORKVERSION	QUANT	7.01	Framework Version
INSTRUMENTVERSION	LABEL	4.00	Instrument Version
CURVE	TABLE	88
	Pt	T	Vf	Im	Vu	Pwr	Sig	Ach	Temp	IERange	Over
	#	s	V	A	V	W	V	V	deg C	#	bits
	0	0.013333	8.49242E-001	-9.86603E-005	0.00000E+000	-8.37864E-005	-5.99601E-002	8.49559E-001	3.57890E+000	9	...........
	1	0.026667	8.35384E-001	-9.93833E-005	0.00000E+000	-8.30232E-005	-5.99601E-002	8.35712E-001	3.57890E+000	9	...........
	2	0.04	8.22404E-001	-9.87009E-005	0.00000E+000	-8.11720E-005	-5.99601E-002	8.22715E-001	3.57890E+000	9	...........
	3	0.053333	8.09947E-001	-9.93521E-005	0.00000E+000	-8.04699E-005	-5.99601E-002	8.10283E-001	3.57890E+000	9	...........
	4	0.066667	7.97951E-001	-9.89364E-005	0.00000E+000	-7.89464E-005	-5.99601E-002	7.98246E-001	3.57890E+000	9	...........
	5	0.08	7.86184E-001	-9.83446E-005	0.00000E+000	-7.73170E-005	-5.99601E-002	7.86514E-001	3.57890E+000	9	...........
	6	0.093333	7.74671E-001	-9.86582E-005	0.00000E+000	-7.64277E-005	-5.99601E-002	7.74980E-001	3.57890E+000	9	...........
	7	0.106667	7.63304E-001	-9.85519E-005	0.00000E+000	-7.52250E-005	-5.99601E-002	7.63629E-001	3.57890E+000	9	...........
	8	0.12	7.52106E-001	-9.96209E-005	0.00000E+000	-7.49254E-005	-5.99601E-002	7.52406E-001	3.57890E+000	9	...........
	9	0.133333	7.40957E-001	-9.83092E-005	0.00000E+000	-7.28428E-005	-5.99601E-002	7.41266E-001	3.57890E+000	9	...........
	10	0.146667	7.29897E-001	-9.88989E-005	0.00000E+000	-7.21860E-005	-5.99601E-002	7.30213E-001	3.57890E+000	9	...........
	11	0.16	7.18913E-001	-9.89562E-005	0.00000E+000	-7.11409E-005	-5.99601E-002	7.19215E-001	3.57890E+000	9	...........
	12	0.173333	7.07924E-001	-9.82529E-005	0.00000E+000	-6.95556E-005	-5.99601E-002	7.08264E-001	3.57890E+000	9	...........
	13	0.186667	6.97044E-001	-9.92604E-005	0.00000E+000	-6.91889E-005	-5.99601E-002	6.97325E-001	3.57890E+000	9	...........
	14	0.2	6.86148E-001	-9.79789E-005	0.00000E+000	-6.72280E-005	-5.99601E-002	6.86445E-001	3.57890E+000	9	...........
	15	0.213333	6.75296E-001	-9.88468E-005	0.00000E+000	-6.67508E-005	-5.99601E-002	6.75599E-001	3.57890E+000	9	...........
	16	0.226667	6.64461E-001	-9.97470E-005	0.00000E+000	-6.62779E-005	-5.99601E-002	6.64755E-001	3.57890E+000	9	...........
	17	0.24	6.53633E-001	-9.94188E-005	0.00000E+000	-6.49834E-005	-5.99601E-002	6.53893E-001	3.57890E+000	9	...........
	18	0.253333	6.42815E-001	-9.84269E-005	0.00000E+000	-6.32703E-005	-5.99601E-002	6.43067E-001	3.57890E+000	9	...........
	19	0.266667	6.32007E-001	-9.85884E-005	0.00000E+000	-6.23086E-005	-5.99601E-002	6.32268E-001	3.57890E+000	9	...........
	20	0.28	6.21237E-001	-9.94354E-005	0.00000E+000	-6.17730E-005	-5.99601E-002	6.21504E-001	3.57890E+000	9	...........
	21	0.293333	6.10447E-001	-1.00114E-004	0.00000E+000	-6.11141E-005	-5.99601E-002	6.10747E-001	3.57890E+000	9	...........
	22	0.306667	5.99688E-001	-9.91197E-005	0.00000E+000	-5.94409E-005	-5.99601E-002	5.99976E-001	3.57890E+000	9	...........
	23	0.32	5.88968E-001	-9.89447E-005	0.00000E+000	-5.82753E-005	-5.99601E-002	5.89245E-001	3.57890E+000	9	...........
	24	0.333333	5.78263E-001	-9.90781E-005	0.00000E+000	-5.72931E-005	-5.99601E-002	5.78527E-001	3.57890E+000	9	...........
	25	0.346667	5.67600E-001	-9.87874E-005	0.00000E+000	-5.60717E-005	-5.99601E-002	5.67833E-001	3.57890E+000	9	...........
	26	0.36	5.56906E-001	-9.79320E-005	0.00000E+000	-5.45389E-005	-5.99601E-002	5.57164E-001	3.57890E+000	9	...........
	27	0.373333	5.46292E-001	-9.91406E-005	0.00000E+000	-5.41597E-005	-5.99601E-002	5.46544E-001	3.57890E+000	9	...........
	28	0.386667	5.35669E-001	-9.92531E-005	0.00000E+000	-5.31669E-005	-5.99601E-002	5.35915E-001	3.57890E+000	9	...........
	29	0.4	5.25091E-001	-9.94323E-005	0.00000E+000	-5.22110E-005	-5.99601E-002	5.25332E-001	3.57890E+000	9	...........
	30	0.413333	5.14578E-001	-9.86342E-005	0.00000E+000	-5.07550E-005	-5.99601E-002	5.14806E-001	3.57875E+000	9	...........
	31	0.426667	5.04070E-001	-9.89843E-005	0.00000E+000	-4.98950E-005	-5.99601E-002	5.04315E-001	3.57860E+000	9	...........
	32	0.44	4.93651E-001	-9.82008E-005	0.00000E+000	-4.84770E-005	-5.99601E-002	4.93869E-001	3.57860E+000	9	...........
	33	0.453333	4.83485E-001	-9.98095E-005	0.00000E+000	-4.82564E-005	-5.99601E-002	4.83613E-001	3.57860E+000	9	...........
	34	0.466667	4.73284E-001	-9.90947E-005	0.00000E+000	-4.69000E-005	-5.99601E-002	4.73387E-001	3.57860E+000	9	...........
	35	0.48	4.62993E-001	-9.87363E-005	0.00000E+000	-4.57143E-005	-5.99601E-002	4.63091E-001	3.57860E+000	9	...........
	36	0.493333	4.52751E-001	-9.95636E-005	0.00000E+000	-4.50775E-005	-5.99601E-002	4.52851E-001	3.57860E+000	9	...........
	37	0.506667	4.42567E-001	-9.81831E-005	0.00000E+000	-4.34526E-005	-5.99601E-002	4.42662E-001	3.57860E+000	9	...........
	38	0.52	4.32437E-001	-9.89760E-005	0.00000E+000	-4.28009E-005	-5.99601E-002	4.32532E-001	3.57860E+000	9	...........
	39	0.533333	4.22373E-001	-9.80372E-005	0.00000E+000	-4.14083E-005	-5.99601E-002	4.22459E-001	3.57860E+000	9	...........
	40	0.546667	4.12361E-001	-9.85707E-005	0.00000E+000	-4.06467E-005	-5.99601E-002	4.12449E-001	3.57860E+000	9	...........
	41	0.56	4.02407E-001	-9.82602E-005	0.00000E+000	-3.95406E-005	-5.99601E-002	4.02492E-001	3.57860E+000	9	...........
	42	0.573333	3.92514E-001	-9.91468E-005	0.00000E+000	-3.89166E-005	-5.99601E-002	3.92587E-001	3.57860E+000	9	...........
	43	0.586667	3.82676E-001	-9.88113E-005	0.00000E+000	-3.78127E-005	-5.99601E-002	3.82747E-001	3.57860E+000	9	...........
	44	0.6	3.72893E-001	-9.93677E-005	0.00000E+000	-3.70535E-005	-5.99601E-002	3.72962E-001	3.57860E+000	9	...........
	45	0.613333	3.63170E-001	-9.91156E-005	0.00000E+000	-3.59958E-005	-5.99601E-002	3.63242E-001	3.57860E+000	9	...........
	46	0.626667	3.53505E-001	-9.85300E-005	0.00000E+000	-3.48308E-005	-5.99601E-002	3.53576E-001	3.57860E+000	9	...........
	47	0.64	3.43884E-001	-9.83321E-005	0.00000E+000	-3.38148E-005	-5.99601E-002	3.43956E-001	3.57860E+000	9	...........
	48	0.653333	3.34325E-001	-9.86947E-005	0.00000E+000	-3.29961E-005	-5.99601E-002	3.34391E-001	3.57860E+000	9	...........
	49	0.666667	3.24813E-001	-9.84300E-005	0.00000E+000	-3.19713E-005	-5.99601E-002	3.24885E-001	3.57860E+000	9	...........
	50	0.68	3.15352E-001	-9.95646E-005	0.00000E+000	-3.13979E-005	-5.99601E-002	3.15417E-001	3.57860E+000	9	...........
	51	0.693333	3.05937E-001	-9.84592E-005	0.00000E+000	-3.01223E-005	-5.99601E-002	3.06000E-001	3.57860E+000	9	...........
	52	0.706667	2.96575E-001	-9.88895E-005	0.00000E+000	-2.93281E-005	-5.99601E-002	2.96634E-001	3.57860E+000	9	...........
	53	0.72	2.87254E-001	-9.89489E-005	0.00000E+000	-2.84235E-005	-5.99601E-002	2.87310E-001	3.57860E+000	9	...........
	54	0.733333	2.77983E-001	-9.90583E-005	0.00000E+000	-2.75365E-005	-5.99601E-002	2.78039E-001	3.57860E+000	9	...........
	55	0.746667	2.68756E-001	-9.97386E-005	0.00000E+000	-2.68053E-005	-5.99601E-002	2.68809E-001	3.57860E+000	9	...........
	56	0.76	2.59576E-001	-9.89718E-005	0.00000E+000	-2.56907E-005	-5.99601E-002	2.59622E-001	3.57860E+000	9	...........
	57	0.773333	2.50441E-001	-9.93385E-005	0.00000E+000	-2.48784E-005	-5.99601E-002	2.50488E-001	3.57860E+000	9	...........
	58	0.786667	2.41346E-001	-9.81716E-005	0.00000E+000	-2.36934E-005	-5.99601E-002	2.41389E-001	3.57860E+000	9	...........
	59	0.8	2.32301E-001	-9.83144E-005	0.00000E+000	-2.28385E-005	-5.99601E-002	2.32337E-001	3.57860E+000	9	...........
	60	0.813333	2.23289E-001	-9.89364E-005	0.00000E+000	-2.20914E-005	-5.99601E-002	2.23328E-001	3.57860E+000	9	...........
	61	0.826667	2.14330E-001	-9.87343E-005	0.00000E+000	-2.11617E-005	-5.99601E-002	2.14363E-001	3.57860E+000	9	...........
	62	0.84	2.05412E-001	-9.77163E-005	0.00000E+000	-2.00721E-005	-5.99601E-002	2.05444E-001	3.57860E+000	9	...........
	63	0.853333	1.96544E-001	-9.90822E-005	0.00000E+000	-1.94740E-005	-5.99601E-002	1.96578E-001	3.57860E+000	9	...........
	64	0.866667	1.87724E-001	-9.84384E-005	0.00000E+000	-1.84793E-005	-5.99601E-002	1.87756E-001	3.57860E+000	9	...........
	65	0.88	1.78959E-001	-9.90999E-005	0.00000E+000	-1.77348E-005	-5.99601E-002	1.78988E-001	3.57860E+000	9	...........
	66	0.893333	1.70245E-001	-9.87155E-005	0.00000E+000	-1.68059E-005	-5.99601E-002	1.70274E-001	3.57860E+000	9	...........
	67	0.906667	1.61598E-001	-9.89332E-005	0.00000E+000	-1.59874E-005	-5.99601E-002	1.61624E-001	3.57860E+000	9	...........
	68	0.92	1.53005E-001	-9.90312E-005	0.00000E+000	-1.51523E-005	-5.99601E-002	1.53030E-001	3.57860E+000	9	...........
	69	0.933333	1.44479E-001	-9.85394E-005	0.00000E+000	-1.42369E-005	-5.99601E-002	1.44498E-001	3.57860E+000	9	...........
	70	0.946667	1.36010E-001	-9.92510E-005	0.00000E+000	-1.34991E-005	-5.99601E-002	1.36034E-001	3.57860E+000	9	...........
	71	0.96	1.27616E-001	-9.95157E-005	0.00000E+000	-1.26998E-005	-5.99601E-002	1.27632E-001	3.57860E+000	9	...........
	72	0.97333	1.19292E-001	-9.81998E-005	0.00000E+000	-1.17145E-005	-5.99601E-002	1.19308E-001	3.57860E+000	9	...........
	73	0.98667	1.11035E-001	-9.76340E-005	0.00000E+000	-1.08408E-005	-5.99601E-002	1.11041E-001	3.57860E+000	9	...........
	74	1	1.02839E-001	-9.83842E-005	0.00000E+000	-1.01177E-005	-5.99601E-002	1.02850E-001	3.57860E+000	9	...........
	75	1.01333	9.47224E-002	-9.90551E-005	0.00000E+000	-9.38274E-006	-5.99601E-002	9.47298E-002	3.57860E+000	9	...........
	76	1.02667	8.66771E-002	-9.86509E-005	0.00000E+000	-8.55077E-006	-5.99601E-002	8.66828E-002	3.57860E+000	9	...........
	77	1.04	7.87079E-002	-9.92562E-005	0.00000E+000	-7.81225E-006	-5.99601E-002	7.87067E-002	3.57860E+000	9	...........
	78	1.05333	7.07994E-002	-9.90999E-005	0.00000E+000	-7.01622E-006	-5.99601E-002	7.07966E-002	3.57860E+000	9	...........
	79	1.06667	6.29624E-002	-9.84102E-005	0.00000E+000	-6.19614E-006	-5.99601E-002	6.29658E-002	3.57860E+000	9	...........
	80	1.08	5.51971E-002	-9.84123E-005	0.00000E+000	-5.43208E-006	-5.99601E-002	5.51902E-002	3.57860E+000	9	...........
	81	1.09333	4.75113E-002	-9.87561E-005	0.00000E+000	-4.69203E-006	-5.99601E-002	4.75054E-002	3.57860E+000	9	...........
	82	1.10667	3.99007E-002	-9.87999E-005	0.00000E+000	-3.94219E-006	-5.99601E-002	3.98903E-002	3.57860E+000	9	...........
	83	1.12	3.23325E-002	-9.87165E-005	0.00000E+000	-3.19175E-006	-5.99601E-002	3.23212E-002	3.57860E+000	9	...........
	84	1.13333	2.48342E-002	-9.91635E-005	0.00000E+000	-2.46265E-006	-5.99601E-002	2.48161E-002	3.57860E+000	9	...........
	85	1.14667	1.73963E-002	-9.92166E-005	0.00000E+000	-1.72600E-006	-5.99601E-002	1.73730E-002	3.57860E+000	9	...........
	86	1.16	1.00279E-002	-9.99918E-005	0.00000E+000	-1.00271E-006	-5.99601E-002	9.99650E-003	3.57860E+000	9	...........
	87	1.17333	2.71890E-003	-9.90385E-005	0.00000E+000	-2.69276E-007	-5.99601E-002	2.68675E-003	3.57860E+000	9	...........
STARTTIMEOFFSET	QUANT	1054.078	Start Time Offset (s)
