EXPLAIN
TAG	PWR800_DISCHARGE
TITLE	LABEL	PWR Cyclic Charge Discharge (Cell) - Discharge Step	Test &Identifier
DATE	LABEL	13-7-2017	Date
TIME	LABEL	15:51:01	Time
NOTES	NOTES	2	&Notes...
	supercap test cell
	6M KOH
PSTAT	PSTAT	IFC5000-01520	Potentiostat
CAPACITY	QUANT	1.00000E-003	Capacity (A-hr)
CELLTYPE	SELECTOR	1	&Cell Type
WORKINGCONNECTION	SELECTOR	0	&Working Lead
MAXDISCHARGETIME	VARIABLEANDUNITS	1.00000E+002	s	1.00000E+002	second(s)	Max &Discharge Time
DISCHARGEMODE	MULTIPARAM	0	1.00000E-004	&Discharge Mode	Constant Current	Amp(s)
SAMPLETIME	QUANT	1.00000E-002	Sa&mple Period (s)
DISCHARGESTOPAT1	MULTIPARAM	3	0.00000E+000	Discharge Stop At &1	Voltage < Limit	V
DISCHARGESTOPAT2	MULTIPARAM	0	0.00000E+000	Discharge Stop At &2	None	N/A
AESBHCSELECTOR	TOGGLE	F	Save Both Half Cells
IRCOMP	TOGGLE	F	IR &Measure
EOC	QUANT	0	Open Circuit (V)
SEQUENCER	TOGGLE	TRUE	Run as Sequence
PSTATMODEL	IQUANT	53	Pstat Model
PSTATSECTION	LABEL	IFC5000-01520	Pstat Section
PSTATSERIALNO	LABEL	01520	Pstat Serial Number
CTRLMODE	IQUANT	0	Control Mode
ELECTROMETER	IQUANT	1	RE=0 or CS=1
IESTAB	IQUANT	0	I/E Stability
CASPEED	IQUANT	4	Control Amp Speed
CONVENTION	IQUANT	1	Current Convention
ICHRANGE	IQUANT	2	Ich Range
ICHRANGEMODE	TOGGLE	T	Ich Auto Range
ICHOFFSETENABLE	TOGGLE	F	Ich Offset Enable
ICHOFFSET	QUANT	0	Ich Offset (V)
ICHFILTER	IQUANT	1	Ich Filter
VCHRANGE	IQUANT	2	Vch Range
VCHRANGEMODE	TOGGLE	T	Vch Auto Range
VCHOFFSETENABLE	TOGGLE	F	Vch Offset Enable
VCHOFFSET	QUANT	0	Vch Offset (V)
VCHFILTER	IQUANT	1	Vch Filter
IERANGELOWERLIMIT	IQUANT	9	I/E Range Lower Limit
IERANGEMODE	TOGGLE	F	I/E AutoRange
IERANGE	IQUANT	9	I/E Range
ACHSELECT	IQUANT	1	Ach Select
ACHRANGE	IQUANT	2	Ach Range
ACHOFFSETENABLE	TOGGLE	F	Ach Offset Enable
ACHOFFSET	QUANT	0	Ach Offset (V)
ACHFILTER	IQUANT	1	Ach Filter
CABLEID	IQUANT	14	Cable ID
DCCALDATE	LABEL	5-7-2017	DC Calibration Date
ACCALDATE	LABEL	12/3/2015	AC Calibration Date
FRAMEWORKVERSION	QUANT	7.01	Framework Version
INSTRUMENTVERSION	LABEL	4.00	Instrument Version
CURVE	TABLE	86
	Pt	T	Vf	Im	Vu	Pwr	Sig	Ach	Temp	IERange	Over
	#	s	V	A	V	W	V	V	deg C	#	bits
	0	0.013333	8.46064E-001	-9.86926E-005	0.00000E+000	-8.35003E-005	-5.99601E-002	8.46389E-001	3.57890E+000	9	...........
	1	0.026667	8.31798E-001	-9.90343E-005	0.00000E+000	-8.23765E-005	-5.99601E-002	8.32110E-001	3.57890E+000	9	...........
	2	0.04	8.18354E-001	-9.88395E-005	0.00000E+000	-8.08857E-005	-5.99601E-002	8.18665E-001	3.57890E+000	9	...........
	3	0.053333	8.05462E-001	-9.91312E-005	0.00000E+000	-7.98464E-005	-5.99601E-002	8.05756E-001	3.57890E+000	9	...........
	4	0.066667	7.92967E-001	-9.91166E-005	0.00000E+000	-7.85962E-005	-5.99601E-002	7.93250E-001	3.57890E+000	9	...........
	5	0.08	7.80751E-001	-9.84394E-005	0.00000E+000	-7.68567E-005	-5.99601E-002	7.81027E-001	3.57890E+000	9	...........
	6	0.093333	7.68711E-001	-9.76486E-005	0.00000E+000	-7.50635E-005	-5.99601E-002	7.69027E-001	3.57890E+000	9	...........
	7	0.106667	7.56862E-001	-9.86009E-005	0.00000E+000	-7.46273E-005	-5.99601E-002	7.57131E-001	3.57890E+000	9	...........
	8	0.12	7.45114E-001	-9.99345E-005	0.00000E+000	-7.44626E-005	-5.99601E-002	7.45389E-001	3.57890E+000	9	...........
	9	0.133333	7.33423E-001	-9.89655E-005	0.00000E+000	-7.25836E-005	-5.99601E-002	7.33711E-001	3.57890E+000	9	...........
	10	0.146667	7.21862E-001	-9.87884E-005	0.00000E+000	-7.13116E-005	-5.99601E-002	7.22115E-001	3.57890E+000	9	...........
	11	0.16	7.10266E-001	-9.88770E-005	0.00000E+000	-7.02290E-005	-5.99601E-002	7.10536E-001	3.57890E+000	9	...........
	12	0.173333	6.98793E-001	-9.88009E-005	0.00000E+000	-6.90414E-005	-5.99601E-002	6.99023E-001	3.57890E+000	9	...........
	13	0.186667	6.87305E-001	-9.86738E-005	0.00000E+000	-6.78190E-005	-5.99601E-002	6.87532E-001	3.57890E+000	9	...........
	14	0.2	6.75884E-001	-9.89405E-005	0.00000E+000	-6.68723E-005	-5.99601E-002	6.76100E-001	3.57890E+000	9	...........
	15	0.213333	6.64474E-001	-9.81675E-005	0.00000E+000	-6.52298E-005	-5.99601E-002	6.64683E-001	3.57890E+000	9	...........
	16	0.226667	6.53064E-001	-9.88603E-005	0.00000E+000	-6.45621E-005	-5.99601E-002	6.53313E-001	3.57890E+000	9	...........
	17	0.24	6.41696E-001	-9.91458E-005	0.00000E+000	-6.36215E-005	-5.99601E-002	6.41949E-001	3.57890E+000	9	...........
	18	0.253333	6.30353E-001	-9.91458E-005	0.00000E+000	-6.24969E-005	-5.99601E-002	6.30587E-001	3.57890E+000	9	...........
	19	0.266667	6.19050E-001	-9.90218E-005	0.00000E+000	-6.12995E-005	-5.99601E-002	6.19278E-001	3.57890E+000	9	...........
	20	0.28	6.07672E-001	-9.94459E-005	0.00000E+000	-6.04305E-005	-5.99601E-002	6.07975E-001	3.57890E+000	9	...........
	21	0.293333	5.96424E-001	-9.90208E-005	0.00000E+000	-5.90584E-005	-5.99601E-002	5.96715E-001	3.57890E+000	9	...........
	22	0.306667	5.85189E-001	-9.85029E-005	0.00000E+000	-5.76428E-005	-5.99601E-002	5.85448E-001	3.57890E+000	9	...........
	23	0.32	5.73976E-001	-9.86196E-005	0.00000E+000	-5.66053E-005	-5.99601E-002	5.74250E-001	3.57890E+000	9	...........
	24	0.333333	5.62784E-001	-9.87884E-005	0.00000E+000	-5.55966E-005	-5.99601E-002	5.63065E-001	3.57890E+000	9	...........
	25	0.346667	5.51637E-001	-9.86019E-005	0.00000E+000	-5.43924E-005	-5.99601E-002	5.51864E-001	3.57890E+000	9	...........
	26	0.36	5.40565E-001	-9.85102E-005	0.00000E+000	-5.32512E-005	-5.99601E-002	5.40775E-001	3.57890E+000	9	...........
	27	0.373333	5.29498E-001	-9.82612E-005	0.00000E+000	-5.20292E-005	-5.99601E-002	5.29695E-001	3.57890E+000	9	...........
	28	0.386667	5.18486E-001	-9.92041E-005	0.00000E+000	-5.14359E-005	-5.99601E-002	5.18705E-001	3.57890E+000	9	...........
	29	0.4	5.07538E-001	-9.86238E-005	0.00000E+000	-5.00553E-005	-5.99601E-002	5.07780E-001	3.57890E+000	9	...........
	30	0.413333	4.96660E-001	-9.88916E-005	0.00000E+000	-4.91155E-005	-5.99601E-002	4.96896E-001	3.57890E+000	9	...........
	31	0.426667	4.85978E-001	-9.86457E-005	0.00000E+000	-4.79396E-005	-5.99601E-002	4.86150E-001	3.57890E+000	9	...........
	32	0.44	4.75453E-001	-9.80008E-005	0.00000E+000	-4.65948E-005	-5.99601E-002	4.75553E-001	3.57890E+000	9	...........
	33	0.453333	4.64754E-001	-9.84779E-005	0.00000E+000	-4.57681E-005	-5.99601E-002	4.64852E-001	3.57890E+000	9	...........
	34	0.466667	4.54123E-001	-9.96386E-005	0.00000E+000	-4.52481E-005	-5.99601E-002	4.54212E-001	3.57890E+000	9	...........
	35	0.48	4.43566E-001	-9.88134E-005	0.00000E+000	-4.38302E-005	-5.99601E-002	4.43656E-001	3.57890E+000	9	...........
	36	0.493333	4.33076E-001	-9.88447E-005	0.00000E+000	-4.28072E-005	-5.99601E-002	4.33160E-001	3.57890E+000	9	...........
	37	0.506667	4.22652E-001	-9.89426E-005	0.00000E+000	-4.18183E-005	-5.99601E-002	4.22741E-001	3.57890E+000	9	...........
	38	0.52	4.12300E-001	-9.92062E-005	0.00000E+000	-4.09028E-005	-5.99601E-002	4.12385E-001	3.57890E+000	9	...........
	39	0.533333	4.02030E-001	-9.87790E-005	0.00000E+000	-3.97121E-005	-5.99601E-002	4.02107E-001	3.57890E+000	9	...........
	40	0.546667	3.91821E-001	-9.84154E-005	0.00000E+000	-3.85612E-005	-5.99601E-002	3.91888E-001	3.57890E+000	9	...........
	41	0.56	3.81674E-001	-9.94261E-005	0.00000E+000	-3.79483E-005	-5.99601E-002	3.81749E-001	3.57890E+000	9	...........
	42	0.573333	3.71604E-001	-9.85603E-005	0.00000E+000	-3.66253E-005	-5.99601E-002	3.71670E-001	3.57890E+000	9	...........
	43	0.586667	3.61600E-001	-9.91448E-005	0.00000E+000	-3.58508E-005	-5.99601E-002	3.61672E-001	3.57890E+000	9	...........
	44	0.6	3.51656E-001	-9.87092E-005	0.00000E+000	-3.47117E-005	-5.99601E-002	3.51726E-001	3.57890E+000	9	...........
	45	0.613333	3.41783E-001	-9.83967E-005	0.00000E+000	-3.36303E-005	-5.99601E-002	3.41843E-001	3.57890E+000	9	...........
	46	0.626667	3.31967E-001	-9.90864E-005	0.00000E+000	-3.28934E-005	-5.99601E-002	3.32027E-001	3.57890E+000	9	...........
	47	0.64	3.22218E-001	-9.87259E-005	0.00000E+000	-3.18113E-005	-5.99601E-002	3.22282E-001	3.57890E+000	9	...........
	48	0.653333	3.12522E-001	-9.89270E-005	0.00000E+000	-3.09169E-005	-5.99601E-002	3.12581E-001	3.57890E+000	9	...........
	49	0.666667	3.02881E-001	-9.93583E-005	0.00000E+000	-3.00937E-005	-5.99601E-002	3.02942E-001	3.57890E+000	9	...........
	50	0.68	2.93301E-001	-9.96251E-005	0.00000E+000	-2.92201E-005	-5.99601E-002	2.93359E-001	3.57890E+000	9	...........
	51	0.693333	2.83779E-001	-9.88562E-005	0.00000E+000	-2.80533E-005	-5.99601E-002	2.83832E-001	3.57890E+000	9	...........
	52	0.706667	2.74306E-001	-9.85915E-005	0.00000E+000	-2.70443E-005	-5.99601E-002	2.74356E-001	3.57890E+000	9	...........
	53	0.72	2.64881E-001	-9.98678E-005	0.00000E+000	-2.64530E-005	-5.99601E-002	2.64936E-001	3.57890E+000	9	...........
	54	0.733333	2.55517E-001	-9.94729E-005	0.00000E+000	-2.54170E-005	-5.99601E-002	2.55562E-001	3.57890E+000	9	...........
	55	0.746667	2.46205E-001	-9.87957E-005	0.00000E+000	-2.43240E-005	-5.99601E-002	2.46246E-001	3.57890E+000	9	...........
	56	0.76	2.36938E-001	-9.90458E-005	0.00000E+000	-2.34677E-005	-5.99601E-002	2.36979E-001	3.57890E+000	9	...........
	57	0.773333	2.27726E-001	-9.87395E-005	0.00000E+000	-2.24855E-005	-5.99601E-002	2.27764E-001	3.57890E+000	9	...........
	58	0.786667	2.18564E-001	-9.92458E-005	0.00000E+000	-2.16915E-005	-5.99601E-002	2.18603E-001	3.57890E+000	9	...........
	59	0.8	2.09470E-001	-9.86988E-005	0.00000E+000	-2.06745E-005	-5.99601E-002	2.09501E-001	3.57890E+000	9	...........
	60	0.813333	2.00421E-001	-9.90781E-005	0.00000E+000	-1.98573E-005	-5.99601E-002	2.00458E-001	3.57890E+000	9	...........
	61	0.826667	1.91435E-001	-9.86176E-005	0.00000E+000	-1.88789E-005	-5.99601E-002	1.91469E-001	3.57890E+000	9	...........
	62	0.84	1.82509E-001	-9.83071E-005	0.00000E+000	-1.79419E-005	-5.99601E-002	1.82544E-001	3.57890E+000	9	...........
	63	0.853333	1.73655E-001	-9.95792E-005	0.00000E+000	-1.72924E-005	-5.99601E-002	1.73680E-001	3.57890E+000	9	...........
	64	0.866667	1.64863E-001	-9.88770E-005	0.00000E+000	-1.63012E-005	-5.99601E-002	1.64888E-001	3.57890E+000	9	...........
	65	0.88	1.56142E-001	-9.89426E-005	0.00000E+000	-1.54491E-005	-5.99601E-002	1.56161E-001	3.57890E+000	9	...........
	66	0.893333	1.47485E-001	-9.90749E-005	0.00000E+000	-1.46120E-005	-5.99601E-002	1.47507E-001	3.57890E+000	9	...........
	67	0.906667	1.38907E-001	-9.88624E-005	0.00000E+000	-1.37327E-005	-5.99601E-002	1.38927E-001	3.57890E+000	9	...........
	68	0.92	1.30401E-001	-9.93240E-005	0.00000E+000	-1.29520E-005	-5.99601E-002	1.30422E-001	3.57890E+000	9	...........
	69	0.933333	1.21970E-001	-9.86217E-005	0.00000E+000	-1.20289E-005	-5.99601E-002	1.21990E-001	3.57890E+000	9	...........
	70	0.946667	1.13619E-001	-9.87801E-005	0.00000E+000	-1.12233E-005	-5.99601E-002	1.13633E-001	3.57890E+000	9	...........
	71	0.96	1.05339E-001	-9.90697E-005	0.00000E+000	-1.04359E-005	-5.99601E-002	1.05353E-001	3.57890E+000	9	...........
	72	0.97333	9.71357E-002	-9.89697E-005	0.00000E+000	-9.61349E-006	-5.99601E-002	9.71480E-002	3.57890E+000	9	...........
	73	0.98667	8.90133E-002	-9.91948E-005	0.00000E+000	-8.82965E-006	-5.99601E-002	8.90240E-002	3.57868E+000	9	...........
	74	1	8.09694E-002	-9.87405E-005	0.00000E+000	-7.99496E-006	-5.99601E-002	8.09702E-002	3.57860E+000	9	...........
	75	1.01333	7.29909E-002	-9.82748E-005	0.00000E+000	-7.17316E-006	-5.99601E-002	7.29914E-002	3.57860E+000	9	...........
	76	1.02667	6.50881E-002	-9.88020E-005	0.00000E+000	-6.43083E-006	-5.99601E-002	6.50846E-002	3.57860E+000	9	...........
	77	1.04	5.72565E-002	-9.79247E-005	0.00000E+000	-5.60683E-006	-5.99601E-002	5.72532E-002	3.57860E+000	9	...........
	78	1.05333	4.95025E-002	-9.93906E-005	0.00000E+000	-4.92009E-006	-5.99601E-002	4.94960E-002	3.57860E+000	9	...........
	79	1.06667	4.18401E-002	-9.90604E-005	0.00000E+000	-4.14469E-006	-5.99601E-002	4.18292E-002	3.57860E+000	9	...........
	80	1.08	3.42204E-002	-9.93115E-005	0.00000E+000	-3.39848E-006	-5.99601E-002	3.42064E-002	3.57860E+000	9	...........
	81	1.09333	2.66677E-002	-9.82102E-005	0.00000E+000	-2.61904E-006	-5.99601E-002	2.66536E-002	3.57860E+000	9	...........
	82	1.10667	1.91879E-002	-9.91489E-005	0.00000E+000	-1.90246E-006	-5.99601E-002	1.91625E-002	3.57860E+000	9	...........
	83	1.12	1.17676E-002	-9.85686E-005	0.00000E+000	-1.15991E-006	-5.99601E-002	1.17425E-002	3.57860E+000	9	...........
	84	1.13333	4.41462E-003	-9.90333E-005	0.00000E+000	-4.37194E-007	-5.99601E-002	4.38270E-003	3.57860E+000	9	...........
	85	1.13667	-1.40840E-004	-9.94729E-005	0.00000E+000	1.40097E-008	-5.99601E-002	-1.82244E-004	3.57860E+000	9	...........
STARTTIMEOFFSET	QUANT	2212.604	Start Time Offset (s)
