EXPLAIN
TAG	PWR800_DISCHARGE
TITLE	LABEL	PWR Cyclic Charge Discharge (Cell) - Discharge Step	Test &Identifier
DATE	LABEL	13-7-2017	Date
TIME	LABEL	15:14:08	Time
NOTES	NOTES	2	&Notes...
	supercap test cell
	6M KOH
PSTAT	PSTAT	IFC5000-01520	Potentiostat
CAPACITY	QUANT	1.00000E-003	Capacity (A-hr)
CELLTYPE	SELECTOR	1	&Cell Type
WORKINGCONNECTION	SELECTOR	0	&Working Lead
MAXDISCHARGETIME	VARIABLEANDUNITS	1.00000E+002	s	1.00000E+002	second(s)	Max &Discharge Time
DISCHARGEMODE	MULTIPARAM	0	1.00000E-004	&Discharge Mode	Constant Current	Amp(s)
SAMPLETIME	QUANT	1.00000E-002	Sa&mple Period (s)
DISCHARGESTOPAT1	MULTIPARAM	3	0.00000E+000	Discharge Stop At &1	Voltage < Limit	V
DISCHARGESTOPAT2	MULTIPARAM	0	0.00000E+000	Discharge Stop At &2	None	N/A
AESBHCSELECTOR	TOGGLE	F	Save Both Half Cells
IRCOMP	TOGGLE	F	IR &Measure
EOC	QUANT	0	Open Circuit (V)
SEQUENCER	TOGGLE	TRUE	Run as Sequence
PSTATMODEL	IQUANT	53	Pstat Model
PSTATSECTION	LABEL	IFC5000-01520	Pstat Section
PSTATSERIALNO	LABEL	01520	Pstat Serial Number
CTRLMODE	IQUANT	0	Control Mode
ELECTROMETER	IQUANT	1	RE=0 or CS=1
IESTAB	IQUANT	0	I/E Stability
CASPEED	IQUANT	4	Control Amp Speed
CONVENTION	IQUANT	1	Current Convention
ICHRANGE	IQUANT	2	Ich Range
ICHRANGEMODE	TOGGLE	T	Ich Auto Range
ICHOFFSETENABLE	TOGGLE	F	Ich Offset Enable
ICHOFFSET	QUANT	0	Ich Offset (V)
ICHFILTER	IQUANT	1	Ich Filter
VCHRANGE	IQUANT	2	Vch Range
VCHRANGEMODE	TOGGLE	T	Vch Auto Range
VCHOFFSETENABLE	TOGGLE	F	Vch Offset Enable
VCHOFFSET	QUANT	0	Vch Offset (V)
VCHFILTER	IQUANT	1	Vch Filter
IERANGELOWERLIMIT	IQUANT	9	I/E Range Lower Limit
IERANGEMODE	TOGGLE	F	I/E AutoRange
IERANGE	IQUANT	9	I/E Range
ACHSELECT	IQUANT	1	Ach Select
ACHRANGE	IQUANT	2	Ach Range
ACHOFFSETENABLE	TOGGLE	F	Ach Offset Enable
ACHOFFSET	QUANT	0	Ach Offset (V)
ACHFILTER	IQUANT	1	Ach Filter
CABLEID	IQUANT	14	Cable ID
DCCALDATE	LABEL	5-7-2017	DC Calibration Date
ACCALDATE	LABEL	12/3/2015	AC Calibration Date
FRAMEWORKVERSION	QUANT	7.01	Framework Version
INSTRUMENTVERSION	LABEL	4.00	Instrument Version
CURVE	TABLE	91
	Pt	T	Vf	Im	Vu	Pwr	Sig	Ach	Temp	IERange	Over
	#	s	V	A	V	W	V	V	deg C	#	bits
	0	0.013333	8.54152E-001	-9.96355E-005	0.00000E+000	-8.51039E-005	-5.99601E-002	8.54509E-001	3.57940E+000	9	...........
	1	0.026667	8.40721E-001	-9.81122E-005	0.00000E+000	-8.24850E-005	-5.99601E-002	8.41107E-001	3.57940E+000	9	...........
	2	0.04	8.28139E-001	-9.84686E-005	0.00000E+000	-8.15456E-005	-5.99601E-002	8.28518E-001	3.57940E+000	9	...........
	3	0.053333	8.16111E-001	-9.96209E-005	0.00000E+000	-8.13017E-005	-5.99601E-002	8.16465E-001	3.57940E+000	9	...........
	4	0.066667	8.04500E-001	-9.87395E-005	0.00000E+000	-7.94359E-005	-5.99601E-002	8.04831E-001	3.57940E+000	9	...........
	5	0.08	7.93181E-001	-9.91020E-005	0.00000E+000	-7.86058E-005	-5.99601E-002	7.93487E-001	3.57940E+000	9	...........
	6	0.093333	7.82049E-001	-9.95969E-005	0.00000E+000	-7.78897E-005	-5.99601E-002	7.82350E-001	3.57940E+000	9	...........
	7	0.106667	7.71099E-001	-9.91291E-005	0.00000E+000	-7.64384E-005	-5.99601E-002	7.71384E-001	3.57940E+000	9	...........
	8	0.12	7.60276E-001	-9.93844E-005	0.00000E+000	-7.55596E-005	-5.99601E-002	7.60567E-001	3.57940E+000	9	...........
	9	0.133333	7.49533E-001	-9.92312E-005	0.00000E+000	-7.43771E-005	-5.99601E-002	7.49821E-001	3.57940E+000	9	...........
	10	0.146667	7.38887E-001	-9.89645E-005	0.00000E+000	-7.31236E-005	-5.99601E-002	7.39179E-001	3.57940E+000	9	...........
	11	0.16	7.28324E-001	-9.90479E-005	0.00000E+000	-7.21390E-005	-5.99601E-002	7.28595E-001	3.57940E+000	9	...........
	12	0.173333	7.17780E-001	-9.87540E-005	0.00000E+000	-7.08837E-005	-5.99601E-002	7.18056E-001	3.57940E+000	9	...........
	13	0.186667	7.07235E-001	-9.89978E-005	0.00000E+000	-7.00148E-005	-5.99601E-002	7.07503E-001	3.57940E+000	9	...........
	14	0.2	6.96775E-001	-9.88843E-005	0.00000E+000	-6.89001E-005	-5.99601E-002	6.97049E-001	3.57940E+000	9	...........
	15	0.213333	6.86321E-001	-9.92510E-005	0.00000E+000	-6.81181E-005	-5.99601E-002	6.86580E-001	3.57940E+000	9	...........
	16	0.226667	6.75874E-001	-9.89906E-005	0.00000E+000	-6.69051E-005	-5.99601E-002	6.76142E-001	3.57940E+000	9	...........
	17	0.24	6.65442E-001	-9.82810E-005	0.00000E+000	-6.54004E-005	-5.99601E-002	6.65715E-001	3.57940E+000	9	...........
	18	0.253333	6.55020E-001	-9.85842E-005	0.00000E+000	-6.45746E-005	-5.99601E-002	6.55279E-001	3.57940E+000	9	...........
	19	0.266667	6.44640E-001	-9.86936E-005	0.00000E+000	-6.36218E-005	-5.99601E-002	6.44866E-001	3.57940E+000	9	...........
	20	0.28	6.34197E-001	-9.90260E-005	0.00000E+000	-6.28020E-005	-5.99601E-002	6.34444E-001	3.57940E+000	9	...........
	21	0.293333	6.23834E-001	-9.88332E-005	0.00000E+000	-6.16556E-005	-5.99601E-002	6.24058E-001	3.57940E+000	9	...........
	22	0.306667	6.13433E-001	-9.84175E-005	0.00000E+000	-6.03726E-005	-5.99601E-002	6.13711E-001	3.57940E+000	9	...........
	23	0.32	6.03051E-001	-9.80966E-005	0.00000E+000	-5.91572E-005	-5.99601E-002	6.03325E-001	3.57940E+000	9	...........
	24	0.333333	5.92700E-001	-9.95500E-005	0.00000E+000	-5.90034E-005	-5.99601E-002	5.92972E-001	3.57940E+000	9	...........
	25	0.346667	5.82347E-001	-9.84894E-005	0.00000E+000	-5.73550E-005	-5.99601E-002	5.82601E-001	3.57940E+000	9	...........
	26	0.36	5.72018E-001	-9.79560E-005	0.00000E+000	-5.60326E-005	-5.99601E-002	5.72260E-001	3.57940E+000	9	...........
	27	0.373333	5.61664E-001	-9.88082E-005	0.00000E+000	-5.54970E-005	-5.99601E-002	5.61951E-001	3.57940E+000	9	...........
	28	0.386667	5.51368E-001	-9.83831E-005	0.00000E+000	-5.42453E-005	-5.99601E-002	5.51622E-001	3.57940E+000	9	...........
	29	0.4	5.41106E-001	-9.84884E-005	0.00000E+000	-5.32927E-005	-5.99601E-002	5.41362E-001	3.57940E+000	9	...........
	30	0.413333	5.30836E-001	-9.97053E-005	0.00000E+000	-5.29272E-005	-5.99601E-002	5.31076E-001	3.57940E+000	9	...........
	31	0.426667	5.20601E-001	-9.87228E-005	0.00000E+000	-5.13952E-005	-5.99601E-002	5.20841E-001	3.57940E+000	9	...........
	32	0.44	5.10394E-001	-9.93875E-005	0.00000E+000	-5.07268E-005	-5.99601E-002	5.10629E-001	3.57940E+000	9	...........
	33	0.453333	5.00225E-001	-9.84467E-005	0.00000E+000	-4.92455E-005	-5.99601E-002	5.00445E-001	3.57940E+000	9	...........
	34	0.466667	4.90099E-001	-9.92458E-005	0.00000E+000	-4.86403E-005	-5.99601E-002	4.90315E-001	3.57940E+000	9	...........
	35	0.48	4.80313E-001	-9.90520E-005	0.00000E+000	-4.75760E-005	-5.99601E-002	4.80436E-001	3.57940E+000	9	...........
	36	0.493333	4.70314E-001	-9.87593E-005	0.00000E+000	-4.64478E-005	-5.99601E-002	4.70407E-001	3.57940E+000	9	...........
	37	0.506667	4.60296E-001	-9.94521E-005	0.00000E+000	-4.57774E-005	-5.99601E-002	4.60394E-001	3.57940E+000	9	...........
	38	0.52	4.50324E-001	-9.91989E-005	0.00000E+000	-4.46717E-005	-5.99601E-002	4.50424E-001	3.57940E+000	9	...........
	39	0.533333	4.40406E-001	-9.88791E-005	0.00000E+000	-4.35470E-005	-5.99601E-002	4.40499E-001	3.57940E+000	9	...........
	40	0.546667	4.30533E-001	-9.90312E-005	0.00000E+000	-4.26362E-005	-5.99601E-002	4.30620E-001	3.57940E+000	9	...........
	41	0.56	4.20704E-001	-9.91145E-005	0.00000E+000	-4.16979E-005	-5.99601E-002	4.20790E-001	3.57940E+000	9	...........
	42	0.573333	4.10926E-001	-9.88562E-005	0.00000E+000	-4.06226E-005	-5.99601E-002	4.11008E-001	3.57940E+000	9	...........
	43	0.586667	4.01186E-001	-9.96938E-005	0.00000E+000	-3.99958E-005	-5.99601E-002	4.01268E-001	3.57940E+000	9	...........
	44	0.6	3.91508E-001	-9.82914E-005	0.00000E+000	-3.84819E-005	-5.99601E-002	3.91584E-001	3.57920E+000	9	...........
	45	0.613333	3.81865E-001	-9.87363E-005	0.00000E+000	-3.77039E-005	-5.99601E-002	3.81938E-001	3.57860E+000	9	...........
	46	0.626667	3.72275E-001	-9.88343E-005	0.00000E+000	-3.67936E-005	-5.99601E-002	3.72347E-001	3.57860E+000	9	...........
	47	0.64	3.62738E-001	-9.89332E-005	0.00000E+000	-3.58869E-005	-5.99601E-002	3.62813E-001	3.57860E+000	9	...........
	48	0.653333	3.53249E-001	-9.91333E-005	0.00000E+000	-3.50187E-005	-5.99601E-002	3.53317E-001	3.57860E+000	9	...........
	49	0.666667	3.43803E-001	-9.91562E-005	0.00000E+000	-3.40902E-005	-5.99601E-002	3.43870E-001	3.57860E+000	9	...........
	50	0.68	3.34406E-001	-9.84686E-005	0.00000E+000	-3.29284E-005	-5.99601E-002	3.34469E-001	3.57860E+000	9	...........
	51	0.693333	3.25053E-001	-9.88363E-005	0.00000E+000	-3.21270E-005	-5.99601E-002	3.25112E-001	3.57860E+000	9	...........
	52	0.706667	3.15744E-001	-9.92250E-005	0.00000E+000	-3.13297E-005	-5.99601E-002	3.15802E-001	3.57860E+000	9	...........
	53	0.72	3.06478E-001	-9.81143E-005	0.00000E+000	-3.00699E-005	-5.99601E-002	3.06537E-001	3.57860E+000	9	...........
	54	0.733333	2.97252E-001	-9.93906E-005	0.00000E+000	-2.95440E-005	-5.99601E-002	2.97303E-001	3.57860E+000	9	...........
	55	0.746667	2.88063E-001	-9.87926E-005	0.00000E+000	-2.84585E-005	-5.99601E-002	2.88119E-001	3.57860E+000	9	...........
	56	0.76	2.78919E-001	-9.90114E-005	0.00000E+000	-2.76161E-005	-5.99601E-002	2.78973E-001	3.57860E+000	9	...........
	57	0.773333	2.69809E-001	-9.86728E-005	0.00000E+000	-2.66228E-005	-5.99601E-002	2.69868E-001	3.57860E+000	9	...........
	58	0.786667	2.60740E-001	-9.95198E-005	0.00000E+000	-2.59488E-005	-5.99601E-002	2.60794E-001	3.57860E+000	9	...........
	59	0.8	2.51721E-001	-9.82946E-005	0.00000E+000	-2.47428E-005	-5.99601E-002	2.51767E-001	3.57860E+000	9	...........
	60	0.813333	2.42736E-001	-9.91885E-005	0.00000E+000	-2.40766E-005	-5.99601E-002	2.42775E-001	3.57860E+000	9	...........
	61	0.826667	2.33781E-001	-9.88051E-005	0.00000E+000	-2.30987E-005	-5.99601E-002	2.33812E-001	3.57860E+000	9	...........
	62	0.84	2.24866E-001	-9.91250E-005	0.00000E+000	-2.22898E-005	-5.99601E-002	2.24900E-001	3.57860E+000	9	...........
	63	0.853333	2.15986E-001	-9.87936E-005	0.00000E+000	-2.13381E-005	-5.99601E-002	2.16020E-001	3.57860E+000	9	...........
	64	0.866667	2.07153E-001	-9.92969E-005	0.00000E+000	-2.05697E-005	-5.99601E-002	2.07186E-001	3.57860E+000	9	...........
	65	0.88	1.98363E-001	-9.85696E-005	0.00000E+000	-1.95525E-005	-5.99601E-002	1.98392E-001	3.57860E+000	9	...........
	66	0.893333	1.89612E-001	-9.84894E-005	0.00000E+000	-1.86747E-005	-5.99601E-002	1.89634E-001	3.57860E+000	9	...........
	67	0.906667	1.80907E-001	-9.91739E-005	0.00000E+000	-1.79413E-005	-5.99601E-002	1.80935E-001	3.57860E+000	9	...........
	68	0.92	1.72251E-001	-9.76705E-005	0.00000E+000	-1.68238E-005	-5.99601E-002	1.72275E-001	3.57860E+000	9	...........
	69	0.933333	1.63646E-001	-9.93354E-005	0.00000E+000	-1.62558E-005	-5.99601E-002	1.63665E-001	3.57860E+000	9	...........
	70	0.946667	1.55098E-001	-9.82237E-005	0.00000E+000	-1.52343E-005	-5.99601E-002	1.55112E-001	3.57860E+000	9	...........
	71	0.96	1.46598E-001	-9.89989E-005	0.00000E+000	-1.45130E-005	-5.99601E-002	1.46613E-001	3.57860E+000	9	...........
	72	0.97333	1.38156E-001	-9.93375E-005	0.00000E+000	-1.37241E-005	-5.99601E-002	1.38167E-001	3.57860E+000	9	...........
	73	0.98667	1.29774E-001	-9.88228E-005	0.00000E+000	-1.28247E-005	-5.99601E-002	1.29786E-001	3.57860E+000	9	...........
	74	1	1.21453E-001	-9.90135E-005	0.00000E+000	-1.20255E-005	-5.99601E-002	1.21468E-001	3.57860E+000	9	...........
	75	1.01333	1.13201E-001	-9.97886E-005	0.00000E+000	-1.12961E-005	-5.99601E-002	1.13210E-001	3.57860E+000	9	...........
	76	1.02667	1.05005E-001	-9.90156E-005	0.00000E+000	-1.03971E-005	-5.99601E-002	1.05013E-001	3.57860E+000	9	...........
	77	1.04	9.68801E-002	-9.87436E-005	0.00000E+000	-9.56629E-006	-5.99601E-002	9.68896E-002	3.57860E+000	9	...........
	78	1.05333	8.88259E-002	-9.87749E-005	0.00000E+000	-8.77377E-006	-5.99601E-002	8.88316E-002	3.57860E+000	9	...........
	79	1.06667	8.08332E-002	-9.86228E-005	0.00000E+000	-7.97199E-006	-5.99601E-002	8.08342E-002	3.57860E+000	9	...........
	80	1.08	7.29131E-002	-9.87124E-005	0.00000E+000	-7.19742E-006	-5.99601E-002	7.29091E-002	3.57860E+000	9	...........
	81	1.09333	6.50517E-002	-9.95865E-005	0.00000E+000	-6.47827E-006	-5.99601E-002	6.50504E-002	3.57860E+000	9	...........
	82	1.10667	5.72590E-002	-9.87613E-005	0.00000E+000	-5.65498E-006	-5.99601E-002	5.72513E-002	3.57860E+000	9	...........
	83	1.12	4.95334E-002	-9.99783E-005	0.00000E+000	-4.95227E-006	-5.99601E-002	4.95305E-002	3.57860E+000	9	...........
	84	1.13333	4.18989E-002	-9.91927E-005	0.00000E+000	-4.15606E-006	-5.99601E-002	4.18887E-002	3.57860E+000	9	...........
	85	1.14667	3.42962E-002	-9.90676E-005	0.00000E+000	-3.39764E-006	-5.99601E-002	3.42813E-002	3.57860E+000	9	...........
	86	1.16	2.67567E-002	-9.87415E-005	0.00000E+000	-2.64200E-006	-5.99601E-002	2.67360E-002	3.57860E+000	9	...........
	87	1.17333	1.92777E-002	-9.87926E-005	0.00000E+000	-1.90450E-006	-5.99601E-002	1.92541E-002	3.57860E+000	9	...........
	88	1.18667	1.18620E-002	-9.88103E-005	0.00000E+000	-1.17208E-006	-5.99601E-002	1.18346E-002	3.57860E+000	9	...........
	89	1.2	4.50239E-003	-9.80768E-005	0.00000E+000	-4.41580E-007	-5.99601E-002	4.47031E-003	3.57860E+000	9	...........
	90	1.20333	-7.14631E-005	-1.00377E-004	0.00000E+000	7.17327E-009	-5.99601E-002	-1.12918E-004	3.57860E+000	9	...........
STARTTIMEOFFSET	QUANT	546.9916	Start Time Offset (s)
