EXPLAIN
TAG	PWR800_DISCHARGE
TITLE	LABEL	PWR Cyclic Charge Discharge (Cell) - Discharge Step	Test &Identifier
DATE	LABEL	13-7-2017	Date
TIME	LABEL	15:11:43	Time
NOTES	NOTES	2	&Notes...
	supercap test cell
	6M KOH
PSTAT	PSTAT	IFC5000-01520	Potentiostat
CAPACITY	QUANT	1.00000E-003	Capacity (A-hr)
CELLTYPE	SELECTOR	1	&Cell Type
WORKINGCONNECTION	SELECTOR	0	&Working Lead
MAXDISCHARGETIME	VARIABLEANDUNITS	1.00000E+002	s	1.00000E+002	second(s)	Max &Discharge Time
DISCHARGEMODE	MULTIPARAM	0	1.00000E-004	&Discharge Mode	Constant Current	Amp(s)
SAMPLETIME	QUANT	1.00000E-002	Sa&mple Period (s)
DISCHARGESTOPAT1	MULTIPARAM	3	0.00000E+000	Discharge Stop At &1	Voltage < Limit	V
DISCHARGESTOPAT2	MULTIPARAM	0	0.00000E+000	Discharge Stop At &2	None	N/A
AESBHCSELECTOR	TOGGLE	F	Save Both Half Cells
IRCOMP	TOGGLE	F	IR &Measure
EOC	QUANT	0	Open Circuit (V)
SEQUENCER	TOGGLE	TRUE	Run as Sequence
PSTATMODEL	IQUANT	53	Pstat Model
PSTATSECTION	LABEL	IFC5000-01520	Pstat Section
PSTATSERIALNO	LABEL	01520	Pstat Serial Number
CTRLMODE	IQUANT	0	Control Mode
ELECTROMETER	IQUANT	1	RE=0 or CS=1
IESTAB	IQUANT	0	I/E Stability
CASPEED	IQUANT	4	Control Amp Speed
CONVENTION	IQUANT	1	Current Convention
ICHRANGE	IQUANT	2	Ich Range
ICHRANGEMODE	TOGGLE	T	Ich Auto Range
ICHOFFSETENABLE	TOGGLE	F	Ich Offset Enable
ICHOFFSET	QUANT	0	Ich Offset (V)
ICHFILTER	IQUANT	1	Ich Filter
VCHRANGE	IQUANT	2	Vch Range
VCHRANGEMODE	TOGGLE	T	Vch Auto Range
VCHOFFSETENABLE	TOGGLE	F	Vch Offset Enable
VCHOFFSET	QUANT	0	Vch Offset (V)
VCHFILTER	IQUANT	1	Vch Filter
IERANGELOWERLIMIT	IQUANT	9	I/E Range Lower Limit
IERANGEMODE	TOGGLE	F	I/E AutoRange
IERANGE	IQUANT	9	I/E Range
ACHSELECT	IQUANT	1	Ach Select
ACHRANGE	IQUANT	2	Ach Range
ACHOFFSETENABLE	TOGGLE	F	Ach Offset Enable
ACHOFFSET	QUANT	0	Ach Offset (V)
ACHFILTER	IQUANT	1	Ach Filter
CABLEID	IQUANT	14	Cable ID
DCCALDATE	LABEL	5-7-2017	DC Calibration Date
ACCALDATE	LABEL	12/3/2015	AC Calibration Date
FRAMEWORKVERSION	QUANT	7.01	Framework Version
INSTRUMENTVERSION	LABEL	4.00	Instrument Version
CURVE	TABLE	91
	Pt	T	Vf	Im	Vu	Pwr	Sig	Ach	Temp	IERange	Over
	#	s	V	A	V	W	V	V	deg C	#	bits
	0	0.013333	8.53152E-001	-9.98678E-005	0.00000E+000	-8.52024E-005	-5.99601E-002	8.53529E-001	3.58020E+000	9	...........
	1	0.026667	8.39862E-001	-9.91520E-005	0.00000E+000	-8.32740E-005	-5.99601E-002	8.40216E-001	3.58020E+000	9	...........
	2	0.04	8.27388E-001	-9.94011E-005	0.00000E+000	-8.22433E-005	-5.99601E-002	8.27747E-001	3.58020E+000	9	...........
	3	0.053333	8.15470E-001	-9.79549E-005	0.00000E+000	-7.98793E-005	-5.99601E-002	8.15811E-001	3.58020E+000	9	...........
	4	0.066667	8.03992E-001	-9.88426E-005	0.00000E+000	-7.94687E-005	-5.99601E-002	8.04291E-001	3.58020E+000	9	...........
	5	0.08	7.92744E-001	-9.98918E-005	0.00000E+000	-7.91886E-005	-5.99601E-002	7.93074E-001	3.58020E+000	9	...........
	6	0.093333	7.81759E-001	-9.92500E-005	0.00000E+000	-7.75896E-005	-5.99601E-002	7.82059E-001	3.58020E+000	9	...........
	7	0.106667	7.70930E-001	-9.81425E-005	0.00000E+000	-7.56610E-005	-5.99601E-002	7.71240E-001	3.58020E+000	9	...........
	8	0.12	7.60202E-001	-9.92406E-005	0.00000E+000	-7.54429E-005	-5.99601E-002	7.60507E-001	3.58020E+000	9	...........
	9	0.133333	7.49608E-001	-9.86071E-005	0.00000E+000	-7.39167E-005	-5.99601E-002	7.49896E-001	3.58020E+000	9	...........
	10	0.146667	7.39071E-001	-9.83123E-005	0.00000E+000	-7.26597E-005	-5.99601E-002	7.39353E-001	3.58020E+000	9	...........
	11	0.16	7.28626E-001	-9.94365E-005	0.00000E+000	-7.24520E-005	-5.99601E-002	7.28871E-001	3.58020E+000	9	...........
	12	0.173333	7.18202E-001	-9.88884E-005	0.00000E+000	-7.10219E-005	-5.99601E-002	7.18454E-001	3.58020E+000	9	...........
	13	0.186667	7.07794E-001	-9.96219E-005	0.00000E+000	-7.05118E-005	-5.99601E-002	7.08085E-001	3.58020E+000	9	...........
	14	0.2	6.97467E-001	-9.82362E-005	0.00000E+000	-6.85165E-005	-5.99601E-002	6.97719E-001	3.58020E+000	9	...........
	15	0.213333	6.87128E-001	-9.93729E-005	0.00000E+000	-6.82819E-005	-5.99601E-002	6.87394E-001	3.57982E+000	9	...........
	16	0.226667	6.76827E-001	-9.81862E-005	0.00000E+000	-6.64550E-005	-5.99601E-002	6.77094E-001	3.57870E+000	9	...........
	17	0.24	6.66529E-001	-9.97272E-005	0.00000E+000	-6.64710E-005	-5.99601E-002	6.66808E-001	3.57870E+000	9	...........
	18	0.253333	6.56249E-001	-9.84561E-005	0.00000E+000	-6.46117E-005	-5.99601E-002	6.56517E-001	3.57870E+000	9	...........
	19	0.266667	6.45938E-001	-9.93448E-005	0.00000E+000	-6.41705E-005	-5.99601E-002	6.46223E-001	3.57870E+000	9	...........
	20	0.28	6.35639E-001	-9.91573E-005	0.00000E+000	-6.30282E-005	-5.99601E-002	6.35928E-001	3.57870E+000	9	...........
	21	0.293333	6.25413E-001	-9.91156E-005	0.00000E+000	-6.19881E-005	-5.99601E-002	6.25673E-001	3.57870E+000	9	...........
	22	0.306667	6.15100E-001	-9.89718E-005	0.00000E+000	-6.08776E-005	-5.99601E-002	6.15399E-001	3.57870E+000	9	...........
	23	0.32	6.04819E-001	-1.00063E-004	0.00000E+000	-6.05198E-005	-5.99601E-002	6.05125E-001	3.57870E+000	9	...........
	24	0.333333	5.94592E-001	-9.89937E-005	0.00000E+000	-5.88609E-005	-5.99601E-002	5.94863E-001	3.57870E+000	9	...........
	25	0.346667	5.84332E-001	-9.87624E-005	0.00000E+000	-5.77101E-005	-5.99601E-002	5.84625E-001	3.57870E+000	9	...........
	26	0.36	5.74125E-001	-9.85207E-005	0.00000E+000	-5.65632E-005	-5.99601E-002	5.74358E-001	3.57870E+000	9	...........
	27	0.373333	5.63931E-001	-9.88884E-005	0.00000E+000	-5.57663E-005	-5.99601E-002	5.64155E-001	3.57870E+000	9	...........
	28	0.386667	5.53705E-001	-9.87801E-005	0.00000E+000	-5.46950E-005	-5.99601E-002	5.53919E-001	3.57870E+000	9	...........
	29	0.4	5.43531E-001	-9.93719E-005	0.00000E+000	-5.40117E-005	-5.99601E-002	5.43737E-001	3.57870E+000	9	...........
	30	0.413333	5.33352E-001	-9.90885E-005	0.00000E+000	-5.28491E-005	-5.99601E-002	5.33570E-001	3.57870E+000	9	...........
	31	0.426667	5.23220E-001	-9.87863E-005	0.00000E+000	-5.16870E-005	-5.99601E-002	5.23455E-001	3.57870E+000	9	...........
	32	0.44	5.13130E-001	-9.90572E-005	0.00000E+000	-5.08292E-005	-5.99601E-002	5.13346E-001	3.57870E+000	9	...........
	33	0.453333	5.03025E-001	-9.86373E-005	0.00000E+000	-4.96170E-005	-5.99601E-002	5.03288E-001	3.57870E+000	9	...........
	34	0.466667	4.92999E-001	-9.93156E-005	0.00000E+000	-4.89625E-005	-5.99601E-002	4.93275E-001	3.57870E+000	9	...........
	35	0.48	4.83229E-001	-9.84217E-005	0.00000E+000	-4.75602E-005	-5.99601E-002	4.83396E-001	3.57870E+000	9	...........
	36	0.493333	4.73407E-001	-9.85405E-005	0.00000E+000	-4.66498E-005	-5.99601E-002	4.73513E-001	3.57870E+000	9	...........
	37	0.506667	4.63475E-001	-9.97303E-005	0.00000E+000	-4.62225E-005	-5.99601E-002	4.63573E-001	3.57870E+000	9	...........
	38	0.52	4.53584E-001	-9.85780E-005	0.00000E+000	-4.47133E-005	-5.99601E-002	4.53678E-001	3.57870E+000	9	...........
	39	0.533333	4.43735E-001	-9.89687E-005	0.00000E+000	-4.39158E-005	-5.99601E-002	4.43829E-001	3.57870E+000	9	...........
	40	0.546667	4.33937E-001	-9.92448E-005	0.00000E+000	-4.30659E-005	-5.99601E-002	4.34025E-001	3.57870E+000	9	...........
	41	0.56	4.24172E-001	-9.89801E-005	0.00000E+000	-4.19846E-005	-5.99601E-002	4.24264E-001	3.57870E+000	9	...........
	42	0.573333	4.14461E-001	-9.91187E-005	0.00000E+000	-4.10808E-005	-5.99601E-002	4.14544E-001	3.57870E+000	9	...........
	43	0.586667	4.04793E-001	-9.90708E-005	0.00000E+000	-4.01032E-005	-5.99601E-002	4.04875E-001	3.57870E+000	9	...........
	44	0.6	3.95173E-001	-9.78747E-005	0.00000E+000	-3.86775E-005	-5.99601E-002	3.95250E-001	3.57870E+000	9	...........
	45	0.613333	3.85593E-001	-9.96021E-005	0.00000E+000	-3.84059E-005	-5.99601E-002	3.85670E-001	3.57870E+000	9	...........
	46	0.626667	3.76064E-001	-9.84842E-005	0.00000E+000	-3.70363E-005	-5.99601E-002	3.76139E-001	3.57870E+000	9	...........
	47	0.64	3.66581E-001	-9.90062E-005	0.00000E+000	-3.62938E-005	-5.99601E-002	3.66656E-001	3.57870E+000	9	...........
	48	0.653333	3.57144E-001	-9.90979E-005	0.00000E+000	-3.53922E-005	-5.99601E-002	3.57213E-001	3.57870E+000	9	...........
	49	0.666667	3.47753E-001	-9.85717E-005	0.00000E+000	-3.42786E-005	-5.99601E-002	3.47817E-001	3.57870E+000	9	...........
	50	0.68	3.38403E-001	-9.91031E-005	0.00000E+000	-3.35368E-005	-5.99601E-002	3.38471E-001	3.57870E+000	9	...........
	51	0.693333	3.29095E-001	-9.86967E-005	0.00000E+000	-3.24806E-005	-5.99601E-002	3.29158E-001	3.57870E+000	9	...........
	52	0.706667	3.19839E-001	-9.81966E-005	0.00000E+000	-3.14071E-005	-5.99601E-002	3.19901E-001	3.57870E+000	9	...........
	53	0.72	3.10612E-001	-9.81435E-005	0.00000E+000	-3.04846E-005	-5.99601E-002	3.10679E-001	3.57870E+000	9	...........
	54	0.733333	3.01435E-001	-9.89239E-005	0.00000E+000	-2.98192E-005	-5.99601E-002	3.01492E-001	3.57870E+000	9	...........
	55	0.746667	2.92288E-001	-9.87936E-005	0.00000E+000	-2.88762E-005	-5.99601E-002	2.92348E-001	3.57870E+000	9	...........
	56	0.76	2.83187E-001	-9.85269E-005	0.00000E+000	-2.79016E-005	-5.99601E-002	2.83244E-001	3.57870E+000	9	...........
	57	0.773333	2.74121E-001	-9.91687E-005	0.00000E+000	-2.71842E-005	-5.99601E-002	2.74179E-001	3.57870E+000	9	...........
	58	0.786667	2.65094E-001	-9.87363E-005	0.00000E+000	-2.61745E-005	-5.99601E-002	2.65151E-001	3.57870E+000	9	...........
	59	0.8	2.56106E-001	-9.80872E-005	0.00000E+000	-2.51207E-005	-5.99601E-002	2.56162E-001	3.57870E+000	9	...........
	60	0.813333	2.47156E-001	-9.87468E-005	0.00000E+000	-2.44059E-005	-5.99601E-002	2.47201E-001	3.57870E+000	9	...........
	61	0.826667	2.38240E-001	-9.80674E-005	0.00000E+000	-2.33636E-005	-5.99601E-002	2.38288E-001	3.57870E+000	9	...........
	62	0.84	2.29366E-001	-9.76663E-005	0.00000E+000	-2.24013E-005	-5.99601E-002	2.29408E-001	3.57870E+000	9	...........
	63	0.853333	2.20519E-001	-9.93292E-005	0.00000E+000	-2.19040E-005	-5.99601E-002	2.20561E-001	3.57870E+000	9	...........
	64	0.866667	2.11720E-001	-9.89343E-005	0.00000E+000	-2.09464E-005	-5.99601E-002	2.11757E-001	3.57870E+000	9	...........
	65	0.88	2.02958E-001	-9.76444E-005	0.00000E+000	-1.98177E-005	-5.99601E-002	2.02993E-001	3.57870E+000	9	...........
	66	0.893333	1.94234E-001	-9.96897E-005	0.00000E+000	-1.93632E-005	-5.99601E-002	1.94269E-001	3.57870E+000	9	...........
	67	0.906667	1.85560E-001	-9.87759E-005	0.00000E+000	-1.83289E-005	-5.99601E-002	1.85592E-001	3.57870E+000	9	...........
	68	0.92	1.76927E-001	-9.87249E-005	0.00000E+000	-1.74671E-005	-5.99601E-002	1.76952E-001	3.57870E+000	9	...........
	69	0.933333	1.68337E-001	-9.88926E-005	0.00000E+000	-1.66473E-005	-5.99601E-002	1.68358E-001	3.57870E+000	9	...........
	70	0.946667	1.59799E-001	-9.87697E-005	0.00000E+000	-1.57833E-005	-5.99601E-002	1.59826E-001	3.57870E+000	9	...........
	71	0.96	1.51318E-001	-9.86759E-005	0.00000E+000	-1.49315E-005	-5.99601E-002	1.51337E-001	3.57870E+000	9	...........
	72	0.97333	1.42890E-001	-9.87124E-005	0.00000E+000	-1.41050E-005	-5.99601E-002	1.42904E-001	3.57870E+000	9	...........
	73	0.98667	1.34512E-001	-9.84123E-005	0.00000E+000	-1.32376E-005	-5.99601E-002	1.34532E-001	3.57870E+000	9	...........
	74	1	1.26198E-001	-9.89239E-005	0.00000E+000	-1.24840E-005	-5.99601E-002	1.26213E-001	3.57870E+000	9	...........
	75	1.01333	1.17940E-001	-9.82216E-005	0.00000E+000	-1.15842E-005	-5.99601E-002	1.17952E-001	3.57870E+000	9	...........
	76	1.02667	1.09749E-001	-9.91072E-005	0.00000E+000	-1.08769E-005	-5.99601E-002	1.09759E-001	3.57870E+000	9	...........
	77	1.04	1.01610E-001	-9.80403E-005	0.00000E+000	-9.96192E-006	-5.99601E-002	1.01628E-001	3.57870E+000	9	...........
	78	1.05333	9.35479E-002	-9.97199E-005	0.00000E+000	-9.32858E-006	-5.99601E-002	9.35522E-002	3.57870E+000	9	...........
	79	1.06667	8.55450E-002	-9.88499E-005	0.00000E+000	-8.45611E-006	-5.99601E-002	8.55549E-002	3.57870E+000	9	...........
	80	1.08	7.76109E-002	-9.91479E-005	0.00000E+000	-7.69495E-006	-5.99601E-002	7.76122E-002	3.57870E+000	9	...........
	81	1.09333	6.97424E-002	-9.84519E-005	0.00000E+000	-6.86628E-006	-5.99601E-002	6.97391E-002	3.57870E+000	9	...........
	82	1.10667	6.19346E-002	-9.90916E-005	0.00000E+000	-6.13720E-006	-5.99601E-002	6.19288E-002	3.57870E+000	9	...........
	83	1.12	5.41898E-002	-9.91010E-005	0.00000E+000	-5.37027E-006	-5.99601E-002	5.41816E-002	3.57870E+000	9	...........
	84	1.13333	4.65310E-002	-9.96584E-005	0.00000E+000	-4.63721E-006	-5.99601E-002	4.65261E-002	3.57870E+000	9	...........
	85	1.14667	3.89282E-002	-9.92979E-005	0.00000E+000	-3.86549E-006	-5.99601E-002	3.89181E-002	3.57870E+000	9	...........
	86	1.16	3.13712E-002	-9.96636E-005	0.00000E+000	-3.12657E-006	-5.99601E-002	3.13589E-002	3.57870E+000	9	...........
	87	1.17333	2.38762E-002	-9.87176E-005	0.00000E+000	-2.35700E-006	-5.99601E-002	2.38538E-002	3.57870E+000	9	...........
	88	1.18667	1.64444E-002	-9.79966E-005	0.00000E+000	-1.61149E-006	-5.99601E-002	1.64161E-002	3.57870E+000	9	...........
	89	1.2	9.06199E-003	-9.89114E-005	0.00000E+000	-8.96334E-007	-5.99601E-002	9.03565E-003	3.57870E+000	9	...........
	90	1.21167	2.19747E-003	-9.96391E-005	0.00000E+000	-2.18954E-007	-5.99601E-002	2.16848E-003	3.57870E+000	9	...........
STARTTIMEOFFSET	QUANT	437.6216	Start Time Offset (s)
