EXPLAIN
TAG	PWR800_DISCHARGE
TITLE	LABEL	PWR Cyclic Charge Discharge (Cell) - Discharge Step	Test &Identifier
DATE	LABEL	13-7-2017	Date
TIME	LABEL	15:45:56	Time
NOTES	NOTES	2	&Notes...
	supercap test cell
	6M KOH
PSTAT	PSTAT	IFC5000-01520	Potentiostat
CAPACITY	QUANT	1.00000E-003	Capacity (A-hr)
CELLTYPE	SELECTOR	1	&Cell Type
WORKINGCONNECTION	SELECTOR	0	&Working Lead
MAXDISCHARGETIME	VARIABLEANDUNITS	1.00000E+002	s	1.00000E+002	second(s)	Max &Discharge Time
DISCHARGEMODE	MULTIPARAM	0	1.00000E-004	&Discharge Mode	Constant Current	Amp(s)
SAMPLETIME	QUANT	1.00000E-002	Sa&mple Period (s)
DISCHARGESTOPAT1	MULTIPARAM	3	0.00000E+000	Discharge Stop At &1	Voltage < Limit	V
DISCHARGESTOPAT2	MULTIPARAM	0	0.00000E+000	Discharge Stop At &2	None	N/A
AESBHCSELECTOR	TOGGLE	F	Save Both Half Cells
IRCOMP	TOGGLE	F	IR &Measure
EOC	QUANT	0	Open Circuit (V)
SEQUENCER	TOGGLE	TRUE	Run as Sequence
PSTATMODEL	IQUANT	53	Pstat Model
PSTATSECTION	LABEL	IFC5000-01520	Pstat Section
PSTATSERIALNO	LABEL	01520	Pstat Serial Number
CTRLMODE	IQUANT	0	Control Mode
ELECTROMETER	IQUANT	1	RE=0 or CS=1
IESTAB	IQUANT	0	I/E Stability
CASPEED	IQUANT	4	Control Amp Speed
CONVENTION	IQUANT	1	Current Convention
ICHRANGE	IQUANT	2	Ich Range
ICHRANGEMODE	TOGGLE	T	Ich Auto Range
ICHOFFSETENABLE	TOGGLE	F	Ich Offset Enable
ICHOFFSET	QUANT	0	Ich Offset (V)
ICHFILTER	IQUANT	1	Ich Filter
VCHRANGE	IQUANT	2	Vch Range
VCHRANGEMODE	TOGGLE	T	Vch Auto Range
VCHOFFSETENABLE	TOGGLE	F	Vch Offset Enable
VCHOFFSET	QUANT	0	Vch Offset (V)
VCHFILTER	IQUANT	1	Vch Filter
IERANGELOWERLIMIT	IQUANT	9	I/E Range Lower Limit
IERANGEMODE	TOGGLE	F	I/E AutoRange
IERANGE	IQUANT	9	I/E Range
ACHSELECT	IQUANT	1	Ach Select
ACHRANGE	IQUANT	2	Ach Range
ACHOFFSETENABLE	TOGGLE	F	Ach Offset Enable
ACHOFFSET	QUANT	0	Ach Offset (V)
ACHFILTER	IQUANT	1	Ach Filter
CABLEID	IQUANT	14	Cable ID
DCCALDATE	LABEL	5-7-2017	DC Calibration Date
ACCALDATE	LABEL	12/3/2015	AC Calibration Date
FRAMEWORKVERSION	QUANT	7.01	Framework Version
INSTRUMENTVERSION	LABEL	4.00	Instrument Version
CURVE	TABLE	83
	Pt	T	Vf	Im	Vu	Pwr	Sig	Ach	Temp	IERange	Over
	#	s	V	A	V	W	V	V	deg C	#	bits
	0	0.013333	7.98670E-001	-9.90437E-005	0.00000E+000	-7.91033E-005	-5.99601E-002	7.98985E-001	3.57950E+000	9	...........
	1	0.026667	7.84196E-001	-9.94636E-005	0.00000E+000	-7.79990E-005	-5.99601E-002	7.84471E-001	3.57950E+000	9	...........
	2	0.04	7.70602E-001	-9.93010E-005	0.00000E+000	-7.65216E-005	-5.99601E-002	7.70840E-001	3.57950E+000	9	...........
	3	0.053333	7.57571E-001	-9.87957E-005	0.00000E+000	-7.48448E-005	-5.99601E-002	7.57787E-001	3.57950E+000	9	...........
	4	0.066667	7.44933E-001	-9.88832E-005	0.00000E+000	-7.36614E-005	-5.99601E-002	7.45153E-001	3.57950E+000	9	...........
	5	0.08	7.32616E-001	-9.80601E-005	0.00000E+000	-7.18404E-005	-5.99601E-002	7.32854E-001	3.57950E+000	9	...........
	6	0.093333	7.20526E-001	-9.94865E-005	0.00000E+000	-7.16826E-005	-5.99601E-002	7.20789E-001	3.57950E+000	9	...........
	7	0.106667	7.08581E-001	-9.96699E-005	0.00000E+000	-7.06241E-005	-5.99601E-002	7.08866E-001	3.57950E+000	9	...........
	8	0.12	6.96815E-001	-9.82883E-005	0.00000E+000	-6.84888E-005	-5.99601E-002	6.97090E-001	3.57950E+000	9	...........
	9	0.133333	6.85146E-001	-9.84373E-005	0.00000E+000	-6.74439E-005	-5.99601E-002	6.85434E-001	3.57950E+000	9	...........
	10	0.146667	6.73564E-001	-9.76778E-005	0.00000E+000	-6.57922E-005	-5.99601E-002	6.73847E-001	3.57950E+000	9	...........
	11	0.16	6.62041E-001	-9.84738E-005	0.00000E+000	-6.51937E-005	-5.99601E-002	6.62328E-001	3.57950E+000	9	...........
	12	0.173333	6.50621E-001	-9.84613E-005	0.00000E+000	-6.40609E-005	-5.99601E-002	6.50872E-001	3.57950E+000	9	...........
	13	0.186667	6.39229E-001	-9.87738E-005	0.00000E+000	-6.31391E-005	-5.99601E-002	6.39477E-001	3.57950E+000	9	...........
	14	0.2	6.27891E-001	-9.95292E-005	0.00000E+000	-6.24935E-005	-5.99601E-002	6.28144E-001	3.57950E+000	9	...........
	15	0.213333	6.16631E-001	-9.89166E-005	0.00000E+000	-6.09950E-005	-5.99601E-002	6.16874E-001	3.57950E+000	9	...........
	16	0.226667	6.05359E-001	-1.00386E-004	0.00000E+000	-6.07693E-005	-5.99601E-002	6.05645E-001	3.57950E+000	9	...........
	17	0.24	5.94217E-001	-9.88051E-005	0.00000E+000	-5.87117E-005	-5.99601E-002	5.94481E-001	3.57950E+000	9	...........
	18	0.253333	5.83034E-001	-9.90468E-005	0.00000E+000	-5.77477E-005	-5.99601E-002	5.83328E-001	3.57950E+000	9	...........
	19	0.266667	5.71970E-001	-9.90354E-005	0.00000E+000	-5.66453E-005	-5.99601E-002	5.72252E-001	3.57950E+000	9	...........
	20	0.28	5.60943E-001	-9.87561E-005	0.00000E+000	-5.53965E-005	-5.99601E-002	5.61225E-001	3.57950E+000	9	...........
	21	0.293333	5.49968E-001	-9.89708E-005	0.00000E+000	-5.44308E-005	-5.99601E-002	5.50245E-001	3.57950E+000	9	...........
	22	0.306667	5.39049E-001	-9.87311E-005	0.00000E+000	-5.32209E-005	-5.99601E-002	5.39299E-001	3.57950E+000	9	...........
	23	0.32	5.28152E-001	-9.83633E-005	0.00000E+000	-5.19508E-005	-5.99601E-002	5.28425E-001	3.57950E+000	9	...........
	24	0.333333	5.17340E-001	-9.97417E-005	0.00000E+000	-5.16004E-005	-5.99601E-002	5.17600E-001	3.57950E+000	9	...........
	25	0.346667	5.06562E-001	-9.92469E-005	0.00000E+000	-5.02747E-005	-5.99601E-002	5.06839E-001	3.57950E+000	9	...........
	26	0.36	4.95885E-001	-9.88770E-005	0.00000E+000	-4.90316E-005	-5.99601E-002	4.96140E-001	3.57950E+000	9	...........
	27	0.373333	4.85390E-001	-9.95730E-005	0.00000E+000	-4.83317E-005	-5.99601E-002	4.85581E-001	3.57950E+000	9	...........
	28	0.386667	4.75065E-001	-9.88728E-005	0.00000E+000	-4.69710E-005	-5.99601E-002	4.75158E-001	3.57950E+000	9	...........
	29	0.4	4.64570E-001	-9.92521E-005	0.00000E+000	-4.61096E-005	-5.99601E-002	4.64664E-001	3.57950E+000	9	...........
	30	0.413333	4.54149E-001	-9.89572E-005	0.00000E+000	-4.49414E-005	-5.99601E-002	4.54234E-001	3.57950E+000	9	...........
	31	0.426667	4.43792E-001	-9.83665E-005	0.00000E+000	-4.36542E-005	-5.99601E-002	4.43883E-001	3.57950E+000	9	...........
	32	0.44	4.33513E-001	-9.96959E-005	0.00000E+000	-4.32195E-005	-5.99601E-002	4.33602E-001	3.57950E+000	9	...........
	33	0.453333	4.23304E-001	-9.87447E-005	0.00000E+000	-4.17990E-005	-5.99601E-002	4.23386E-001	3.57950E+000	9	...........
	34	0.466667	4.13164E-001	-9.95980E-005	0.00000E+000	-4.11503E-005	-5.99601E-002	4.13241E-001	3.57950E+000	9	...........
	35	0.48	4.03093E-001	-9.91104E-005	0.00000E+000	-3.99507E-005	-5.99601E-002	4.03170E-001	3.57950E+000	9	...........
	36	0.493333	3.93096E-001	-9.77945E-005	0.00000E+000	-3.84426E-005	-5.99601E-002	3.93167E-001	3.57950E+000	9	...........
	37	0.506667	3.83163E-001	-9.85488E-005	0.00000E+000	-3.77603E-005	-5.99601E-002	3.83234E-001	3.57950E+000	9	...........
	38	0.52	3.73297E-001	-9.91500E-005	0.00000E+000	-3.70124E-005	-5.99601E-002	3.73367E-001	3.57950E+000	9	...........
	39	0.533333	3.63500E-001	-9.86415E-005	0.00000E+000	-3.58562E-005	-5.99601E-002	3.63565E-001	3.57950E+000	9	...........
	40	0.546667	3.53761E-001	-9.90406E-005	0.00000E+000	-3.50367E-005	-5.99601E-002	3.53828E-001	3.57950E+000	9	...........
	41	0.56	3.44087E-001	-9.84884E-005	0.00000E+000	-3.38886E-005	-5.99601E-002	3.44151E-001	3.57950E+000	9	...........
	42	0.573333	3.34475E-001	-9.85665E-005	0.00000E+000	-3.29680E-005	-5.99601E-002	3.34536E-001	3.57950E+000	9	...........
	43	0.586667	3.24926E-001	-9.94969E-005	0.00000E+000	-3.23291E-005	-5.99601E-002	3.24984E-001	3.57950E+000	9	...........
	44	0.6	3.15435E-001	-9.86280E-005	0.00000E+000	-3.11107E-005	-5.99601E-002	3.15489E-001	3.57950E+000	9	...........
	45	0.613333	3.05994E-001	-9.95032E-005	0.00000E+000	-3.04474E-005	-5.99601E-002	3.06052E-001	3.57950E+000	9	...........
	46	0.626667	2.96617E-001	-9.80966E-005	0.00000E+000	-2.90971E-005	-5.99601E-002	2.96669E-001	3.57950E+000	9	...........
	47	0.64	2.87280E-001	-9.87665E-005	0.00000E+000	-2.83737E-005	-5.99601E-002	2.87339E-001	3.57950E+000	9	...........
	48	0.653333	2.78008E-001	-9.89655E-005	0.00000E+000	-2.75132E-005	-5.99601E-002	2.78057E-001	3.57950E+000	9	...........
	49	0.666667	2.68777E-001	-9.95073E-005	0.00000E+000	-2.67453E-005	-5.99601E-002	2.68830E-001	3.57950E+000	9	...........
	50	0.68	2.59607E-001	-9.92625E-005	0.00000E+000	-2.57692E-005	-5.99601E-002	2.59652E-001	3.57950E+000	9	...........
	51	0.693333	2.50487E-001	-9.90103E-005	0.00000E+000	-2.48008E-005	-5.99601E-002	2.50531E-001	3.57950E+000	9	...........
	52	0.706667	2.41424E-001	-9.92291E-005	0.00000E+000	-2.39563E-005	-5.99601E-002	2.41459E-001	3.57950E+000	9	...........
	53	0.72	2.32410E-001	-9.87145E-005	0.00000E+000	-2.29422E-005	-5.99601E-002	2.32446E-001	3.57950E+000	9	...........
	54	0.733333	2.23447E-001	-9.87520E-005	0.00000E+000	-2.20658E-005	-5.99601E-002	2.23482E-001	3.57950E+000	9	...........
	55	0.746667	2.14536E-001	-9.86426E-005	0.00000E+000	-2.11623E-005	-5.99601E-002	2.14569E-001	3.57950E+000	9	...........
	56	0.76	2.05682E-001	-9.92125E-005	0.00000E+000	-2.04062E-005	-5.99601E-002	2.05719E-001	3.57950E+000	9	...........
	57	0.773333	1.96887E-001	-9.95073E-005	0.00000E+000	-1.95917E-005	-5.99601E-002	1.96917E-001	3.57950E+000	9	...........
	58	0.786667	1.88148E-001	-9.83831E-005	0.00000E+000	-1.85106E-005	-5.99601E-002	1.88183E-001	3.57950E+000	9	...........
	59	0.8	1.79481E-001	-9.89187E-005	0.00000E+000	-1.77540E-005	-5.99601E-002	1.79507E-001	3.57950E+000	9	...........
	60	0.813333	1.70872E-001	-9.91583E-005	0.00000E+000	-1.69434E-005	-5.99601E-002	1.70903E-001	3.57950E+000	9	...........
	61	0.826667	1.62338E-001	-9.84957E-005	0.00000E+000	-1.59896E-005	-5.99601E-002	1.62359E-001	3.57950E+000	9	...........
	62	0.84	1.53865E-001	-9.78820E-005	0.00000E+000	-1.50606E-005	-5.99601E-002	1.53887E-001	3.57950E+000	9	...........
	63	0.853333	1.45466E-001	-9.87197E-005	0.00000E+000	-1.43603E-005	-5.99601E-002	1.45482E-001	3.57950E+000	9	...........
	64	0.866667	1.37132E-001	-9.90218E-005	0.00000E+000	-1.35791E-005	-5.99601E-002	1.37158E-001	3.58007E+000	9	...........
	65	0.88	1.28887E-001	-9.84665E-005	0.00000E+000	-1.26910E-005	-5.99601E-002	1.28895E-001	3.58010E+000	9	...........
	66	0.893333	1.20701E-001	-9.84644E-005	0.00000E+000	-1.18848E-005	-5.99601E-002	1.20718E-001	3.58010E+000	9	...........
	67	0.906667	1.12593E-001	-9.86749E-005	0.00000E+000	-1.11101E-005	-5.99601E-002	1.12607E-001	3.58010E+000	9	...........
	68	0.92	1.04563E-001	-9.90260E-005	0.00000E+000	-1.03544E-005	-5.99601E-002	1.04571E-001	3.58010E+000	9	...........
	69	0.933333	9.66009E-002	-9.85259E-005	0.00000E+000	-9.51769E-006	-5.99601E-002	9.66073E-002	3.58010E+000	9	...........
	70	0.946667	8.87092E-002	-9.92979E-005	0.00000E+000	-8.80864E-006	-5.99601E-002	8.87166E-002	3.58010E+000	9	...........
	71	0.96	8.08985E-002	-9.87895E-005	0.00000E+000	-7.99192E-006	-5.99601E-002	8.08971E-002	3.58010E+000	9	...........
	72	0.97333	7.31435E-002	-9.96334E-005	0.00000E+000	-7.28753E-006	-5.99601E-002	7.31435E-002	3.58010E+000	9	...........
	73	0.98667	6.54621E-002	-9.89072E-005	0.00000E+000	-6.47467E-006	-5.99601E-002	6.54607E-002	3.58010E+000	9	...........
	74	1	5.78491E-002	-9.85009E-005	0.00000E+000	-5.69818E-006	-5.99601E-002	5.78428E-002	3.58010E+000	9	...........
	75	1.01333	5.03012E-002	-9.87811E-005	0.00000E+000	-4.96881E-006	-5.99601E-002	5.02960E-002	3.58010E+000	9	...........
	76	1.02667	4.28459E-002	-9.90031E-005	0.00000E+000	-4.24187E-006	-5.99601E-002	4.28390E-002	3.58010E+000	9	...........
	77	1.04	3.54254E-002	-9.93594E-005	0.00000E+000	-3.51985E-006	-5.99601E-002	3.54144E-002	3.58010E+000	9	...........
	78	1.05333	2.80632E-002	-9.85707E-005	0.00000E+000	-2.76621E-006	-5.99601E-002	2.80439E-002	3.58010E+000	9	...........
	79	1.06667	2.07596E-002	-9.91520E-005	0.00000E+000	-2.05835E-006	-5.99601E-002	2.07369E-002	3.58010E+000	9	...........
	80	1.08	1.35132E-002	-9.94021E-005	0.00000E+000	-1.34324E-006	-5.99601E-002	1.34877E-002	3.58010E+000	9	...........
	81	1.09333	6.33201E-003	-9.98970E-005	0.00000E+000	-6.32548E-007	-5.99601E-002	6.30080E-003	3.58010E+000	9	...........
	82	1.1	9.79545E-004	-9.91854E-005	0.00000E+000	-9.71566E-008	-5.99601E-002	9.46844E-004	3.58010E+000	9	...........
STARTTIMEOFFSET	QUANT	1984.059	Start Time Offset (s)
