EXPLAIN
TAG	PWR800_DISCHARGE
TITLE	LABEL	PWR Cyclic Charge Discharge (Cell) - Discharge Step	Test &Identifier
DATE	LABEL	13-7-2017	Date
TIME	LABEL	15:43:35	Time
NOTES	NOTES	2	&Notes...
	supercap test cell
	6M KOH
PSTAT	PSTAT	IFC5000-01520	Potentiostat
CAPACITY	QUANT	1.00000E-003	Capacity (A-hr)
CELLTYPE	SELECTOR	1	&Cell Type
WORKINGCONNECTION	SELECTOR	0	&Working Lead
MAXDISCHARGETIME	VARIABLEANDUNITS	1.00000E+002	s	1.00000E+002	second(s)	Max &Discharge Time
DISCHARGEMODE	MULTIPARAM	0	1.00000E-004	&Discharge Mode	Constant Current	Amp(s)
SAMPLETIME	QUANT	1.00000E-002	Sa&mple Period (s)
DISCHARGESTOPAT1	MULTIPARAM	3	0.00000E+000	Discharge Stop At &1	Voltage < Limit	V
DISCHARGESTOPAT2	MULTIPARAM	0	0.00000E+000	Discharge Stop At &2	None	N/A
AESBHCSELECTOR	TOGGLE	F	Save Both Half Cells
IRCOMP	TOGGLE	F	IR &Measure
EOC	QUANT	0	Open Circuit (V)
SEQUENCER	TOGGLE	TRUE	Run as Sequence
PSTATMODEL	IQUANT	53	Pstat Model
PSTATSECTION	LABEL	IFC5000-01520	Pstat Section
PSTATSERIALNO	LABEL	01520	Pstat Serial Number
CTRLMODE	IQUANT	0	Control Mode
ELECTROMETER	IQUANT	1	RE=0 or CS=1
IESTAB	IQUANT	0	I/E Stability
CASPEED	IQUANT	4	Control Amp Speed
CONVENTION	IQUANT	1	Current Convention
ICHRANGE	IQUANT	2	Ich Range
ICHRANGEMODE	TOGGLE	T	Ich Auto Range
ICHOFFSETENABLE	TOGGLE	F	Ich Offset Enable
ICHOFFSET	QUANT	0	Ich Offset (V)
ICHFILTER	IQUANT	1	Ich Filter
VCHRANGE	IQUANT	2	Vch Range
VCHRANGEMODE	TOGGLE	T	Vch Auto Range
VCHOFFSETENABLE	TOGGLE	F	Vch Offset Enable
VCHOFFSET	QUANT	0	Vch Offset (V)
VCHFILTER	IQUANT	1	Vch Filter
IERANGELOWERLIMIT	IQUANT	9	I/E Range Lower Limit
IERANGEMODE	TOGGLE	F	I/E AutoRange
IERANGE	IQUANT	9	I/E Range
ACHSELECT	IQUANT	1	Ach Select
ACHRANGE	IQUANT	2	Ach Range
ACHOFFSETENABLE	TOGGLE	F	Ach Offset Enable
ACHOFFSET	QUANT	0	Ach Offset (V)
ACHFILTER	IQUANT	1	Ach Filter
CABLEID	IQUANT	14	Cable ID
DCCALDATE	LABEL	5-7-2017	DC Calibration Date
ACCALDATE	LABEL	12/3/2015	AC Calibration Date
FRAMEWORKVERSION	QUANT	7.01	Framework Version
INSTRUMENTVERSION	LABEL	4.00	Instrument Version
CURVE	TABLE	86
	Pt	T	Vf	Im	Vu	Pwr	Sig	Ach	Temp	IERange	Over
	#	s	V	A	V	W	V	V	deg C	#	bits
	0	0.013333	8.45768E-001	-9.90562E-005	0.00000E+000	-8.37785E-005	-5.99601E-002	8.46084E-001	3.58000E+000	9	...........
	1	0.026667	8.31484E-001	-9.87613E-005	0.00000E+000	-8.21184E-005	-5.99601E-002	8.31785E-001	3.58000E+000	9	...........
	2	0.04	8.18031E-001	-9.88072E-005	0.00000E+000	-8.08274E-005	-5.99601E-002	8.18350E-001	3.58000E+000	9	...........
	3	0.053333	8.05176E-001	-9.91187E-005	0.00000E+000	-7.98081E-005	-5.99601E-002	8.05473E-001	3.58000E+000	9	...........
	4	0.066667	7.92716E-001	-9.92635E-005	0.00000E+000	-7.86877E-005	-5.99601E-002	7.93021E-001	3.58000E+000	9	...........
	5	0.08	7.80537E-001	-9.95396E-005	0.00000E+000	-7.76944E-005	-5.99601E-002	7.80831E-001	3.58000E+000	9	...........
	6	0.093333	7.68589E-001	-9.89780E-005	0.00000E+000	-7.60735E-005	-5.99601E-002	7.68871E-001	3.58000E+000	9	...........
	7	0.106667	7.56776E-001	-9.80601E-005	0.00000E+000	-7.42096E-005	-5.99601E-002	7.57066E-001	3.58000E+000	9	...........
	8	0.12	7.45122E-001	-9.89770E-005	0.00000E+000	-7.37499E-005	-5.99601E-002	7.45429E-001	3.58000E+000	9	...........
	9	0.133333	7.33538E-001	-9.96886E-005	0.00000E+000	-7.31253E-005	-5.99601E-002	7.33843E-001	3.58000E+000	9	...........
	10	0.146667	7.22063E-001	-9.85644E-005	0.00000E+000	-7.11698E-005	-5.99601E-002	7.22323E-001	3.58000E+000	9	...........
	11	0.16	7.10553E-001	-9.90895E-005	0.00000E+000	-7.04083E-005	-5.99601E-002	7.10856E-001	3.58000E+000	9	...........
	12	0.173333	6.99190E-001	-9.88020E-005	0.00000E+000	-6.90813E-005	-5.99601E-002	6.99448E-001	3.58000E+000	9	...........
	13	0.186667	6.87808E-001	-9.81216E-005	0.00000E+000	-6.74888E-005	-5.99601E-002	6.88049E-001	3.58000E+000	9	...........
	14	0.2	6.76466E-001	-9.83560E-005	0.00000E+000	-6.65346E-005	-5.99601E-002	6.76740E-001	3.58000E+000	9	...........
	15	0.213333	6.65175E-001	-9.81060E-005	0.00000E+000	-6.52576E-005	-5.99601E-002	6.65438E-001	3.58000E+000	9	...........
	16	0.226667	6.53902E-001	-9.81550E-005	0.00000E+000	-6.41837E-005	-5.99601E-002	6.54148E-001	3.58000E+000	9	...........
	17	0.24	6.42624E-001	-9.87843E-005	0.00000E+000	-6.34811E-005	-5.99601E-002	6.42877E-001	3.58000E+000	9	...........
	18	0.253333	6.31396E-001	-9.86988E-005	0.00000E+000	-6.23180E-005	-5.99601E-002	6.31649E-001	3.58000E+000	9	...........
	19	0.266667	6.20201E-001	-9.90322E-005	0.00000E+000	-6.14199E-005	-5.99601E-002	6.20436E-001	3.58000E+000	9	...........
	20	0.28	6.08973E-001	-9.85227E-005	0.00000E+000	-5.99977E-005	-5.99601E-002	6.09261E-001	3.58000E+000	9	...........
	21	0.293333	5.97825E-001	-9.90354E-005	0.00000E+000	-5.92058E-005	-5.99601E-002	5.98110E-001	3.58000E+000	9	...........
	22	0.306667	5.86690E-001	-9.92781E-005	0.00000E+000	-5.82454E-005	-5.99601E-002	5.86953E-001	3.58000E+000	9	...........
	23	0.32	5.75590E-001	-9.93917E-005	0.00000E+000	-5.72089E-005	-5.99601E-002	5.75837E-001	3.58000E+000	9	...........
	24	0.333333	5.64538E-001	-9.88864E-005	0.00000E+000	-5.58251E-005	-5.99601E-002	5.64779E-001	3.58000E+000	9	...........
	25	0.346667	5.53520E-001	-9.87593E-005	0.00000E+000	-5.46652E-005	-5.99601E-002	5.53741E-001	3.57982E+000	9	...........
	26	0.36	5.42521E-001	-9.98803E-005	0.00000E+000	-5.41871E-005	-5.99601E-002	5.42744E-001	3.57860E+000	9	...........
	27	0.373333	5.31565E-001	-9.93854E-005	0.00000E+000	-5.28298E-005	-5.99601E-002	5.31781E-001	3.57860E+000	9	...........
	28	0.386667	5.20676E-001	-9.83456E-005	0.00000E+000	-5.12062E-005	-5.99601E-002	5.20884E-001	3.57860E+000	9	...........
	29	0.4	5.09804E-001	-9.84238E-005	0.00000E+000	-5.01768E-005	-5.99601E-002	5.10023E-001	3.57860E+000	9	...........
	30	0.413333	4.98992E-001	-9.90979E-005	0.00000E+000	-4.94491E-005	-5.99601E-002	4.99248E-001	3.57860E+000	9	...........
	31	0.426667	4.88308E-001	-9.85686E-005	0.00000E+000	-4.81318E-005	-5.99601E-002	4.88537E-001	3.57860E+000	9	...........
	32	0.44	4.77949E-001	-9.98126E-005	0.00000E+000	-4.77053E-005	-5.99601E-002	4.78048E-001	3.57860E+000	9	...........
	33	0.453333	4.67331E-001	-9.93406E-005	0.00000E+000	-4.64249E-005	-5.99601E-002	4.67424E-001	3.57860E+000	9	...........
	34	0.466667	4.56774E-001	-9.88155E-005	0.00000E+000	-4.51364E-005	-5.99601E-002	4.56875E-001	3.57860E+000	9	...........
	35	0.48	4.46292E-001	-9.86780E-005	0.00000E+000	-4.40392E-005	-5.99601E-002	4.46383E-001	3.57860E+000	9	...........
	36	0.493333	4.35873E-001	-9.91302E-005	0.00000E+000	-4.32081E-005	-5.99601E-002	4.35963E-001	3.57860E+000	9	...........
	37	0.506667	4.25518E-001	-9.83185E-005	0.00000E+000	-4.18364E-005	-5.99601E-002	4.25609E-001	3.57860E+000	9	...........
	38	0.52	4.15233E-001	-9.84561E-005	0.00000E+000	-4.08822E-005	-5.99601E-002	4.15323E-001	3.57860E+000	9	...........
	39	0.533333	4.05016E-001	-9.92479E-005	0.00000E+000	-4.01970E-005	-5.99601E-002	4.05100E-001	3.57860E+000	9	...........
	40	0.546667	3.94865E-001	-9.92604E-005	0.00000E+000	-3.91945E-005	-5.99601E-002	3.94942E-001	3.57860E+000	9	...........
	41	0.56	3.84784E-001	-9.90510E-005	0.00000E+000	-3.81132E-005	-5.99601E-002	3.84862E-001	3.57860E+000	9	...........
	42	0.573333	3.74762E-001	-9.91083E-005	0.00000E+000	-3.71420E-005	-5.99601E-002	3.74840E-001	3.57860E+000	9	...........
	43	0.586667	3.64815E-001	-9.85123E-005	0.00000E+000	-3.59388E-005	-5.99601E-002	3.64885E-001	3.57860E+000	9	...........
	44	0.6	3.54920E-001	-9.95563E-005	0.00000E+000	-3.53345E-005	-5.99601E-002	3.54992E-001	3.57860E+000	9	...........
	45	0.613333	3.45088E-001	-9.78632E-005	0.00000E+000	-3.37715E-005	-5.99601E-002	3.45156E-001	3.57860E+000	9	...........
	46	0.626667	3.35312E-001	-9.99678E-005	0.00000E+000	-3.35204E-005	-5.99601E-002	3.35384E-001	3.57860E+000	9	...........
	47	0.64	3.25609E-001	-9.92458E-005	0.00000E+000	-3.23153E-005	-5.99601E-002	3.25668E-001	3.57860E+000	9	...........
	48	0.653333	3.15953E-001	-9.93094E-005	0.00000E+000	-3.13770E-005	-5.99601E-002	3.16015E-001	3.57860E+000	9	...........
	49	0.666667	3.06348E-001	-9.95657E-005	0.00000E+000	-3.05017E-005	-5.99601E-002	3.06413E-001	3.57860E+000	9	...........
	50	0.68	2.96807E-001	-9.91948E-005	0.00000E+000	-2.94417E-005	-5.99601E-002	2.96865E-001	3.57860E+000	9	...........
	51	0.693333	2.87314E-001	-9.90135E-005	0.00000E+000	-2.84479E-005	-5.99601E-002	2.87367E-001	3.57860E+000	9	...........
	52	0.706667	2.77875E-001	-9.97386E-005	0.00000E+000	-2.77149E-005	-5.99601E-002	2.77929E-001	3.57860E+000	9	...........
	53	0.72	2.68487E-001	-9.93312E-005	0.00000E+000	-2.66691E-005	-5.99601E-002	2.68537E-001	3.57860E+000	9	...........
	54	0.733333	2.59149E-001	-9.98074E-005	0.00000E+000	-2.58650E-005	-5.99601E-002	2.59200E-001	3.57860E+000	9	...........
	55	0.746667	2.49861E-001	-9.89124E-005	0.00000E+000	-2.47144E-005	-5.99601E-002	2.49908E-001	3.57860E+000	9	...........
	56	0.76	2.40627E-001	-9.94438E-005	0.00000E+000	-2.39288E-005	-5.99601E-002	2.40662E-001	3.57860E+000	9	...........
	57	0.773333	2.31436E-001	-9.95219E-005	0.00000E+000	-2.30330E-005	-5.99601E-002	2.31474E-001	3.57860E+000	9	...........
	58	0.786667	2.22301E-001	-9.79351E-005	0.00000E+000	-2.17710E-005	-5.99601E-002	2.22336E-001	3.57860E+000	9	...........
	59	0.8	2.13215E-001	-9.94396E-005	0.00000E+000	-2.12020E-005	-5.99601E-002	2.13246E-001	3.57860E+000	9	...........
	60	0.813333	2.04179E-001	-9.90468E-005	0.00000E+000	-2.02233E-005	-5.99601E-002	2.04215E-001	3.57860E+000	9	...........
	61	0.826667	1.95206E-001	-9.87770E-005	0.00000E+000	-1.92819E-005	-5.99601E-002	1.95233E-001	3.57860E+000	9	...........
	62	0.84	1.86286E-001	-9.92656E-005	0.00000E+000	-1.84918E-005	-5.99601E-002	1.86319E-001	3.57860E+000	9	...........
	63	0.853333	1.77430E-001	-9.88384E-005	0.00000E+000	-1.75369E-005	-5.99601E-002	1.77463E-001	3.57860E+000	9	...........
	64	0.866667	1.68641E-001	-9.88916E-005	0.00000E+000	-1.66772E-005	-5.99601E-002	1.68669E-001	3.57860E+000	9	...........
	65	0.88	1.59918E-001	-9.87124E-005	0.00000E+000	-1.57859E-005	-5.99601E-002	1.59941E-001	3.57860E+000	9	...........
	66	0.893333	1.51255E-001	-9.86759E-005	0.00000E+000	-1.49253E-005	-5.99601E-002	1.51281E-001	3.57860E+000	9	...........
	67	0.906667	1.42671E-001	-9.90645E-005	0.00000E+000	-1.41336E-005	-5.99601E-002	1.42687E-001	3.57860E+000	9	...........
	68	0.92	1.34154E-001	-9.98418E-005	0.00000E+000	-1.33942E-005	-5.99601E-002	1.34168E-001	3.57860E+000	9	...........
	69	0.933333	1.25711E-001	-9.90937E-005	0.00000E+000	-1.24571E-005	-5.99601E-002	1.25725E-001	3.57860E+000	9	...........
	70	0.946667	1.17342E-001	-9.88343E-005	0.00000E+000	-1.15974E-005	-5.99601E-002	1.17352E-001	3.57860E+000	9	...........
	71	0.96	1.09045E-001	-9.89551E-005	0.00000E+000	-1.07905E-005	-5.99601E-002	1.09058E-001	3.57860E+000	9	...........
	72	0.97333	1.00830E-001	-9.94625E-005	0.00000E+000	-1.00288E-005	-5.99601E-002	1.00841E-001	3.57860E+000	9	...........
	73	0.98667	9.26887E-002	-9.86967E-005	0.00000E+000	-9.14807E-006	-5.99601E-002	9.26913E-002	3.57860E+000	9	...........
	74	1	8.46191E-002	-9.87405E-005	0.00000E+000	-8.35533E-006	-5.99601E-002	8.46248E-002	3.57860E+000	9	...........
	75	1.01333	7.66316E-002	-9.85217E-005	0.00000E+000	-7.54988E-006	-5.99601E-002	7.66241E-002	3.57860E+000	9	...........
	76	1.02667	6.87081E-002	-9.87707E-005	0.00000E+000	-6.78635E-006	-5.99601E-002	6.87041E-002	3.57860E+000	9	...........
	77	1.04	6.08586E-002	-1.00239E-004	0.00000E+000	-6.10039E-006	-5.99601E-002	6.08490E-002	3.57860E+000	9	...........
	78	1.05333	5.30787E-002	-9.89176E-005	0.00000E+000	-5.25042E-006	-5.99601E-002	5.30716E-002	3.57860E+000	9	...........
	79	1.06667	4.54053E-002	-9.92343E-005	0.00000E+000	-4.50576E-006	-5.99601E-002	4.53949E-002	3.57860E+000	9	...........
	80	1.08	3.77756E-002	-9.94625E-005	0.00000E+000	-3.75725E-006	-5.99601E-002	3.77643E-002	3.57860E+000	9	...........
	81	1.09333	3.02071E-002	-9.90208E-005	0.00000E+000	-2.99113E-006	-5.99601E-002	3.01902E-002	3.57860E+000	9	...........
	82	1.10667	2.27074E-002	-9.80747E-005	0.00000E+000	-2.22702E-006	-5.99601E-002	2.26876E-002	3.57860E+000	9	...........
	83	1.12	1.52758E-002	-9.94792E-005	0.00000E+000	-1.51962E-006	-5.99601E-002	1.52421E-002	3.57860E+000	9	...........
	84	1.13333	7.90190E-003	-9.87436E-005	0.00000E+000	-7.80262E-007	-5.99601E-002	7.87232E-003	3.57860E+000	9	...........
	85	1.14333	1.50609E-003	-9.94813E-005	0.00000E+000	-1.49828E-007	-5.99601E-002	1.47082E-003	3.57860E+000	9	...........
STARTTIMEOFFSET	QUANT	1878.895	Start Time Offset (s)
