EXPLAIN
TAG	PWR800_DISCHARGE
TITLE	LABEL	PWR Cyclic Charge Discharge (Cell) - Discharge Step	Test &Identifier
DATE	LABEL	13-7-2017	Date
TIME	LABEL	15:22:57	Time
NOTES	NOTES	2	&Notes...
	supercap test cell
	6M KOH
PSTAT	PSTAT	IFC5000-01520	Potentiostat
CAPACITY	QUANT	1.00000E-003	Capacity (A-hr)
CELLTYPE	SELECTOR	1	&Cell Type
WORKINGCONNECTION	SELECTOR	0	&Working Lead
MAXDISCHARGETIME	VARIABLEANDUNITS	1.00000E+002	s	1.00000E+002	second(s)	Max &Discharge Time
DISCHARGEMODE	MULTIPARAM	0	1.00000E-004	&Discharge Mode	Constant Current	Amp(s)
SAMPLETIME	QUANT	1.00000E-002	Sa&mple Period (s)
DISCHARGESTOPAT1	MULTIPARAM	3	0.00000E+000	Discharge Stop At &1	Voltage < Limit	V
DISCHARGESTOPAT2	MULTIPARAM	0	0.00000E+000	Discharge Stop At &2	None	N/A
AESBHCSELECTOR	TOGGLE	F	Save Both Half Cells
IRCOMP	TOGGLE	F	IR &Measure
EOC	QUANT	0	Open Circuit (V)
SEQUENCER	TOGGLE	TRUE	Run as Sequence
PSTATMODEL	IQUANT	53	Pstat Model
PSTATSECTION	LABEL	IFC5000-01520	Pstat Section
PSTATSERIALNO	LABEL	01520	Pstat Serial Number
CTRLMODE	IQUANT	0	Control Mode
ELECTROMETER	IQUANT	1	RE=0 or CS=1
IESTAB	IQUANT	0	I/E Stability
CASPEED	IQUANT	4	Control Amp Speed
CONVENTION	IQUANT	1	Current Convention
ICHRANGE	IQUANT	2	Ich Range
ICHRANGEMODE	TOGGLE	T	Ich Auto Range
ICHOFFSETENABLE	TOGGLE	F	Ich Offset Enable
ICHOFFSET	QUANT	0	Ich Offset (V)
ICHFILTER	IQUANT	1	Ich Filter
VCHRANGE	IQUANT	2	Vch Range
VCHRANGEMODE	TOGGLE	T	Vch Auto Range
VCHOFFSETENABLE	TOGGLE	F	Vch Offset Enable
VCHOFFSET	QUANT	0	Vch Offset (V)
VCHFILTER	IQUANT	1	Vch Filter
IERANGELOWERLIMIT	IQUANT	9	I/E Range Lower Limit
IERANGEMODE	TOGGLE	F	I/E AutoRange
IERANGE	IQUANT	9	I/E Range
ACHSELECT	IQUANT	1	Ach Select
ACHRANGE	IQUANT	2	Ach Range
ACHOFFSETENABLE	TOGGLE	F	Ach Offset Enable
ACHOFFSET	QUANT	0	Ach Offset (V)
ACHFILTER	IQUANT	1	Ach Filter
CABLEID	IQUANT	14	Cable ID
DCCALDATE	LABEL	5-7-2017	DC Calibration Date
ACCALDATE	LABEL	12/3/2015	AC Calibration Date
FRAMEWORKVERSION	QUANT	7.01	Framework Version
INSTRUMENTVERSION	LABEL	4.00	Instrument Version
CURVE	TABLE	89
	Pt	T	Vf	Im	Vu	Pwr	Sig	Ach	Temp	IERange	Over
	#	s	V	A	V	W	V	V	deg C	#	bits
	0	0.013333	8.50522E-001	-9.85092E-005	0.00000E+000	-8.37843E-005	-5.99601E-002	8.50877E-001	3.58000E+000	9	...........
	1	0.026667	8.36727E-001	-9.87072E-005	0.00000E+000	-8.25909E-005	-5.99601E-002	8.37096E-001	3.58000E+000	9	...........
	2	0.04	8.23827E-001	-9.79768E-005	0.00000E+000	-8.07159E-005	-5.99601E-002	8.24195E-001	3.58000E+000	9	...........
	3	0.053333	8.11439E-001	-9.79976E-005	0.00000E+000	-7.95191E-005	-5.99601E-002	8.11802E-001	3.58000E+000	9	...........
	4	0.066667	7.99511E-001	-9.83810E-005	0.00000E+000	-7.86567E-005	-5.99601E-002	7.99850E-001	3.58000E+000	9	...........
	5	0.08	7.87839E-001	-9.86196E-005	0.00000E+000	-7.76964E-005	-5.99601E-002	7.88169E-001	3.58000E+000	9	...........
	6	0.093333	7.76392E-001	-9.84915E-005	0.00000E+000	-7.64680E-005	-5.99601E-002	7.76722E-001	3.58000E+000	9	...........
	7	0.106667	7.65123E-001	-9.82925E-005	0.00000E+000	-7.52058E-005	-5.99601E-002	7.65427E-001	3.58000E+000	9	...........
	8	0.12	7.53963E-001	-9.93448E-005	0.00000E+000	-7.49023E-005	-5.99601E-002	7.54277E-001	3.58000E+000	9	...........
	9	0.133333	7.42895E-001	-9.83685E-005	0.00000E+000	-7.30775E-005	-5.99601E-002	7.43214E-001	3.58000E+000	9	...........
	10	0.146667	7.31917E-001	-9.89405E-005	0.00000E+000	-7.24163E-005	-5.99601E-002	7.32234E-001	3.58000E+000	9	...........
	11	0.16	7.20998E-001	-9.88572E-005	0.00000E+000	-7.12758E-005	-5.99601E-002	7.21308E-001	3.58000E+000	9	...........
	12	0.173333	7.10108E-001	-9.83196E-005	0.00000E+000	-6.98175E-005	-5.99601E-002	7.10400E-001	3.58000E+000	9	...........
	13	0.186667	6.99256E-001	-9.80633E-005	0.00000E+000	-6.85713E-005	-5.99601E-002	6.99562E-001	3.58000E+000	9	...........
	14	0.2	6.88432E-001	-9.93875E-005	0.00000E+000	-6.84215E-005	-5.99601E-002	6.88747E-001	3.58000E+000	9	...........
	15	0.213333	6.77662E-001	-9.86196E-005	0.00000E+000	-6.68308E-005	-5.99601E-002	6.77950E-001	3.58000E+000	9	...........
	16	0.226667	6.66884E-001	-9.81831E-005	0.00000E+000	-6.54768E-005	-5.99601E-002	6.67172E-001	3.58000E+000	9	...........
	17	0.24	6.56120E-001	-9.91552E-005	0.00000E+000	-6.50577E-005	-5.99601E-002	6.56407E-001	3.58000E+000	9	...........
	18	0.253333	6.45406E-001	-9.87947E-005	0.00000E+000	-6.37627E-005	-5.99601E-002	6.45662E-001	3.57963E+000	9	...........
	19	0.266667	6.34651E-001	-9.88791E-005	0.00000E+000	-6.27537E-005	-5.99601E-002	6.34918E-001	3.57850E+000	9	...........
	20	0.28	6.23946E-001	-9.91447E-005	0.00000E+000	-6.18609E-005	-5.99601E-002	6.24203E-001	3.57850E+000	9	...........
	21	0.293333	6.13219E-001	-9.92302E-005	0.00000E+000	-6.08499E-005	-5.99601E-002	6.13496E-001	3.57850E+000	9	...........
	22	0.306667	6.02515E-001	-9.94198E-005	0.00000E+000	-5.99020E-005	-5.99601E-002	6.02820E-001	3.57850E+000	9	...........
	23	0.32	5.91859E-001	-9.88957E-005	0.00000E+000	-5.85323E-005	-5.99601E-002	5.92147E-001	3.57850E+000	9	...........
	24	0.333333	5.81191E-001	-9.91968E-005	0.00000E+000	-5.76523E-005	-5.99601E-002	5.81460E-001	3.57850E+000	9	...........
	25	0.346667	5.70567E-001	-9.97063E-005	0.00000E+000	-5.68892E-005	-5.99601E-002	5.70810E-001	3.57850E+000	9	...........
	26	0.36	5.59940E-001	-9.89093E-005	0.00000E+000	-5.53832E-005	-5.99601E-002	5.60208E-001	3.57850E+000	9	...........
	27	0.373333	5.49372E-001	-9.99105E-005	0.00000E+000	-5.48880E-005	-5.99601E-002	5.49634E-001	3.57850E+000	9	...........
	28	0.386667	5.38822E-001	-9.84998E-005	0.00000E+000	-5.30739E-005	-5.99601E-002	5.39066E-001	3.57850E+000	9	...........
	29	0.4	5.28292E-001	-9.95750E-005	0.00000E+000	-5.26047E-005	-5.99601E-002	5.28544E-001	3.57850E+000	9	...........
	30	0.413333	5.17819E-001	-9.91458E-005	0.00000E+000	-5.13396E-005	-5.99601E-002	5.18050E-001	3.57850E+000	9	...........
	31	0.426667	5.07344E-001	-9.86415E-005	0.00000E+000	-5.00452E-005	-5.99601E-002	5.07616E-001	3.57850E+000	9	...........
	32	0.44	4.96963E-001	-9.78924E-005	0.00000E+000	-4.86489E-005	-5.99601E-002	4.97209E-001	3.57850E+000	9	...........
	33	0.453333	4.86691E-001	-9.97355E-005	0.00000E+000	-4.85404E-005	-5.99601E-002	4.86895E-001	3.57850E+000	9	...........
	34	0.466667	4.76664E-001	-9.90572E-005	0.00000E+000	-4.72170E-005	-5.99601E-002	4.76764E-001	3.57850E+000	9	...........
	35	0.48	4.66402E-001	-9.96209E-005	0.00000E+000	-4.64633E-005	-5.99601E-002	4.66501E-001	3.57850E+000	9	...........
	36	0.493333	4.56192E-001	-9.79705E-005	0.00000E+000	-4.46933E-005	-5.99601E-002	4.56288E-001	3.57850E+000	9	...........
	37	0.506667	4.46040E-001	-9.94375E-005	0.00000E+000	-4.43531E-005	-5.99601E-002	4.46134E-001	3.57850E+000	9	...........
	38	0.52	4.35941E-001	-9.87520E-005	0.00000E+000	-4.30500E-005	-5.99601E-002	4.36032E-001	3.57850E+000	9	...........
	39	0.533333	4.25894E-001	-9.89728E-005	0.00000E+000	-4.21519E-005	-5.99601E-002	4.25988E-001	3.57850E+000	9	...........
	40	0.546667	4.15910E-001	-9.83133E-005	0.00000E+000	-4.08895E-005	-5.99601E-002	4.15996E-001	3.57850E+000	9	...........
	41	0.56	4.05978E-001	-9.84456E-005	0.00000E+000	-3.99668E-005	-5.99601E-002	4.06059E-001	3.57850E+000	9	...........
	42	0.573333	3.96100E-001	-1.00067E-004	0.00000E+000	-3.96365E-005	-5.99601E-002	3.96175E-001	3.57850E+000	9	...........
	43	0.586667	3.86286E-001	-9.87311E-005	0.00000E+000	-3.81385E-005	-5.99601E-002	3.86361E-001	3.57850E+000	9	...........
	44	0.6	3.76523E-001	-9.94281E-005	0.00000E+000	-3.74370E-005	-5.99601E-002	3.76597E-001	3.57850E+000	9	...........
	45	0.613333	3.66809E-001	-9.91187E-005	0.00000E+000	-3.63577E-005	-5.99601E-002	3.66885E-001	3.57850E+000	9	...........
	46	0.626667	3.57160E-001	-9.82873E-005	0.00000E+000	-3.51043E-005	-5.99601E-002	3.57231E-001	3.57850E+000	9	...........
	47	0.64	3.47557E-001	-9.88197E-005	0.00000E+000	-3.43455E-005	-5.99601E-002	3.47632E-001	3.57850E+000	9	...........
	48	0.653333	3.38010E-001	-9.99262E-005	0.00000E+000	-3.37760E-005	-5.99601E-002	3.38074E-001	3.57850E+000	9	...........
	49	0.666667	3.28510E-001	-9.85457E-005	0.00000E+000	-3.23732E-005	-5.99601E-002	3.28576E-001	3.57850E+000	9	...........
	50	0.68	3.19065E-001	-9.84581E-005	0.00000E+000	-3.14146E-005	-5.99601E-002	3.19125E-001	3.57850E+000	9	...........
	51	0.693333	3.09665E-001	-9.89999E-005	0.00000E+000	-3.06568E-005	-5.99601E-002	3.09725E-001	3.57850E+000	9	...........
	52	0.706667	3.00314E-001	-9.77799E-005	0.00000E+000	-2.93647E-005	-5.99601E-002	3.00369E-001	3.57850E+000	9	...........
	53	0.72	2.91006E-001	-9.85425E-005	0.00000E+000	-2.86764E-005	-5.99601E-002	2.91061E-001	3.57850E+000	9	...........
	54	0.733333	2.81745E-001	-9.91885E-005	0.00000E+000	-2.79459E-005	-5.99601E-002	2.81799E-001	3.57850E+000	9	...........
	55	0.746667	2.72526E-001	-9.81706E-005	0.00000E+000	-2.67541E-005	-5.99601E-002	2.72581E-001	3.57850E+000	9	...........
	56	0.76	2.63350E-001	-9.90166E-005	0.00000E+000	-2.60761E-005	-5.99601E-002	2.63404E-001	3.57850E+000	9	...........
	57	0.773333	2.54226E-001	-9.90801E-005	0.00000E+000	-2.51887E-005	-5.99601E-002	2.54271E-001	3.57850E+000	9	...........
	58	0.786667	2.45137E-001	-9.90458E-005	0.00000E+000	-2.42798E-005	-5.99601E-002	2.45181E-001	3.57850E+000	9	...........
	59	0.8	2.36097E-001	-9.83717E-005	0.00000E+000	-2.32253E-005	-5.99601E-002	2.36135E-001	3.57850E+000	9	...........
	60	0.813333	2.27095E-001	-9.91135E-005	0.00000E+000	-2.25082E-005	-5.99601E-002	2.27135E-001	3.57850E+000	9	...........
	61	0.826667	2.18142E-001	-9.86624E-005	0.00000E+000	-2.15224E-005	-5.99601E-002	2.18171E-001	3.57850E+000	9	...........
	62	0.84	2.09228E-001	-9.93604E-005	0.00000E+000	-2.07890E-005	-5.99601E-002	2.09262E-001	3.57850E+000	9	...........
	63	0.853333	2.00364E-001	-9.91604E-005	0.00000E+000	-1.98682E-005	-5.99601E-002	2.00403E-001	3.57850E+000	9	...........
	64	0.866667	1.91552E-001	-9.96824E-005	0.00000E+000	-1.90944E-005	-5.99601E-002	1.91588E-001	3.57850E+000	9	...........
	65	0.88	1.82792E-001	-9.81320E-005	0.00000E+000	-1.79377E-005	-5.99601E-002	1.82825E-001	3.57850E+000	9	...........
	66	0.893333	1.74070E-001	-9.92156E-005	0.00000E+000	-1.72704E-005	-5.99601E-002	1.74103E-001	3.57850E+000	9	...........
	67	0.906667	1.65418E-001	-9.86915E-005	0.00000E+000	-1.63253E-005	-5.99601E-002	1.65444E-001	3.57850E+000	9	...........
	68	0.92	1.56818E-001	-9.84342E-005	0.00000E+000	-1.54362E-005	-5.99601E-002	1.56842E-001	3.57850E+000	9	...........
	69	0.933333	1.48286E-001	-9.81175E-005	0.00000E+000	-1.45494E-005	-5.99601E-002	1.48304E-001	3.57850E+000	9	...........
	70	0.946667	1.39799E-001	-9.84165E-005	0.00000E+000	-1.37585E-005	-5.99601E-002	1.39821E-001	3.57850E+000	9	...........
	71	0.96	1.31391E-001	-9.86519E-005	0.00000E+000	-1.29619E-005	-5.99601E-002	1.31407E-001	3.57850E+000	9	...........
	72	0.97333	1.23042E-001	-9.97365E-005	0.00000E+000	-1.22718E-005	-5.99601E-002	1.23059E-001	3.57850E+000	9	...........
	73	0.98667	1.14764E-001	-9.87613E-005	0.00000E+000	-1.13343E-005	-5.99601E-002	1.14786E-001	3.57850E+000	9	...........
	74	1	1.06560E-001	-9.89197E-005	0.00000E+000	-1.05409E-005	-5.99601E-002	1.06576E-001	3.57850E+000	9	...........
	75	1.01333	9.84190E-002	-9.84675E-005	0.00000E+000	-9.69108E-006	-5.99601E-002	9.84361E-002	3.57850E+000	9	...........
	76	1.02667	9.03587E-002	-9.79070E-005	0.00000E+000	-8.84675E-006	-5.99601E-002	9.03676E-002	3.57850E+000	9	...........
	77	1.04	8.23636E-002	-9.80216E-005	0.00000E+000	-8.07341E-006	-5.99601E-002	8.23689E-002	3.57850E+000	9	...........
	78	1.05333	7.44404E-002	-9.85780E-005	0.00000E+000	-7.33818E-006	-5.99601E-002	7.44441E-002	3.57850E+000	9	...........
	79	1.06667	6.65814E-002	-9.88645E-005	0.00000E+000	-6.58254E-006	-5.99601E-002	6.65826E-002	3.57850E+000	9	...........
	80	1.08	5.87928E-002	-9.93813E-005	0.00000E+000	-5.84290E-006	-5.99601E-002	5.87909E-002	3.57850E+000	9	...........
	81	1.09333	5.10758E-002	-9.93156E-005	0.00000E+000	-5.07263E-006	-5.99601E-002	5.10668E-002	3.57850E+000	9	...........
	82	1.10667	4.34616E-002	-9.89385E-005	0.00000E+000	-4.30003E-006	-5.99601E-002	4.34543E-002	3.57850E+000	9	...........
	83	1.12	3.58710E-002	-9.96219E-005	0.00000E+000	-3.57354E-006	-5.99601E-002	3.58608E-002	3.57850E+000	9	...........
	84	1.13333	2.83501E-002	-9.97709E-005	0.00000E+000	-2.82852E-006	-5.99601E-002	2.83321E-002	3.57850E+000	9	...........
	85	1.14667	2.08889E-002	-9.87895E-005	0.00000E+000	-2.06360E-006	-5.99601E-002	2.08710E-002	3.57850E+000	9	...........
	86	1.16	1.34943E-002	-9.90541E-005	0.00000E+000	-1.33667E-006	-5.99601E-002	1.34682E-002	3.57850E+000	9	...........
	87	1.17333	6.16238E-003	-9.88634E-005	0.00000E+000	-6.09234E-007	-5.99601E-002	6.12956E-003	3.57850E+000	9	...........
	88	1.18	7.02290E-004	-9.98793E-005	0.00000E+000	-7.01442E-008	-5.99601E-002	6.66537E-004	3.57850E+000	9	...........
STARTTIMEOFFSET	QUANT	947.9468	Start Time Offset (s)
