EXPLAIN
TAG	PWR800_DISCHARGE
TITLE	LABEL	PWR Cyclic Charge Discharge (Cell) - Discharge Step	Test &Identifier
DATE	LABEL	13-7-2017	Date
TIME	LABEL	15:18:46	Time
NOTES	NOTES	2	&Notes...
	supercap test cell
	6M KOH
PSTAT	PSTAT	IFC5000-01520	Potentiostat
CAPACITY	QUANT	1.00000E-003	Capacity (A-hr)
CELLTYPE	SELECTOR	1	&Cell Type
WORKINGCONNECTION	SELECTOR	0	&Working Lead
MAXDISCHARGETIME	VARIABLEANDUNITS	1.00000E+002	s	1.00000E+002	second(s)	Max &Discharge Time
DISCHARGEMODE	MULTIPARAM	0	1.00000E-004	&Discharge Mode	Constant Current	Amp(s)
SAMPLETIME	QUANT	1.00000E-002	Sa&mple Period (s)
DISCHARGESTOPAT1	MULTIPARAM	3	0.00000E+000	Discharge Stop At &1	Voltage < Limit	V
DISCHARGESTOPAT2	MULTIPARAM	0	0.00000E+000	Discharge Stop At &2	None	N/A
AESBHCSELECTOR	TOGGLE	F	Save Both Half Cells
IRCOMP	TOGGLE	F	IR &Measure
EOC	QUANT	0	Open Circuit (V)
SEQUENCER	TOGGLE	TRUE	Run as Sequence
PSTATMODEL	IQUANT	53	Pstat Model
PSTATSECTION	LABEL	IFC5000-01520	Pstat Section
PSTATSERIALNO	LABEL	01520	Pstat Serial Number
CTRLMODE	IQUANT	0	Control Mode
ELECTROMETER	IQUANT	1	RE=0 or CS=1
IESTAB	IQUANT	0	I/E Stability
CASPEED	IQUANT	4	Control Amp Speed
CONVENTION	IQUANT	1	Current Convention
ICHRANGE	IQUANT	2	Ich Range
ICHRANGEMODE	TOGGLE	T	Ich Auto Range
ICHOFFSETENABLE	TOGGLE	F	Ich Offset Enable
ICHOFFSET	QUANT	0	Ich Offset (V)
ICHFILTER	IQUANT	1	Ich Filter
VCHRANGE	IQUANT	2	Vch Range
VCHRANGEMODE	TOGGLE	T	Vch Auto Range
VCHOFFSETENABLE	TOGGLE	F	Vch Offset Enable
VCHOFFSET	QUANT	0	Vch Offset (V)
VCHFILTER	IQUANT	1	Vch Filter
IERANGELOWERLIMIT	IQUANT	9	I/E Range Lower Limit
IERANGEMODE	TOGGLE	F	I/E AutoRange
IERANGE	IQUANT	9	I/E Range
ACHSELECT	IQUANT	1	Ach Select
ACHRANGE	IQUANT	2	Ach Range
ACHOFFSETENABLE	TOGGLE	F	Ach Offset Enable
ACHOFFSET	QUANT	0	Ach Offset (V)
ACHFILTER	IQUANT	1	Ach Filter
CABLEID	IQUANT	14	Cable ID
DCCALDATE	LABEL	5-7-2017	DC Calibration Date
ACCALDATE	LABEL	12/3/2015	AC Calibration Date
FRAMEWORKVERSION	QUANT	7.01	Framework Version
INSTRUMENTVERSION	LABEL	4.00	Instrument Version
CURVE	TABLE	90
	Pt	T	Vf	Im	Vu	Pwr	Sig	Ach	Temp	IERange	Over
	#	s	V	A	V	W	V	V	deg C	#	bits
	0	0.013333	8.51793E-001	-9.86842E-005	0.00000E+000	-8.40585E-005	-5.99601E-002	8.52139E-001	3.58000E+000	9	...........
	1	0.026667	8.38137E-001	-9.88145E-005	0.00000E+000	-8.28201E-005	-5.99601E-002	8.38476E-001	3.58000E+000	9	...........
	2	0.04	8.25334E-001	-9.95375E-005	0.00000E+000	-8.21517E-005	-5.99601E-002	8.25688E-001	3.58000E+000	9	...........
	3	0.053333	8.13102E-001	-9.82727E-005	0.00000E+000	-7.99057E-005	-5.99601E-002	8.13426E-001	3.58000E+000	9	...........
	4	0.066667	8.01279E-001	-9.89478E-005	0.00000E+000	-7.92848E-005	-5.99601E-002	8.01597E-001	3.58000E+000	9	...........
	5	0.08	7.89761E-001	-9.82748E-005	0.00000E+000	-7.76136E-005	-5.99601E-002	7.90044E-001	3.58000E+000	9	...........
	6	0.093333	7.78434E-001	-9.87009E-005	0.00000E+000	-7.68322E-005	-5.99601E-002	7.78729E-001	3.58000E+000	9	...........
	7	0.106667	7.67285E-001	-9.94834E-005	0.00000E+000	-7.63321E-005	-5.99601E-002	7.67589E-001	3.58000E+000	9	...........
	8	0.12	7.56282E-001	-9.95261E-005	0.00000E+000	-7.52698E-005	-5.99601E-002	7.56575E-001	3.58000E+000	9	...........
	9	0.133333	7.45353E-001	-9.85040E-005	0.00000E+000	-7.34203E-005	-5.99601E-002	7.45647E-001	3.58000E+000	9	...........
	10	0.146667	7.34488E-001	-9.93469E-005	0.00000E+000	-7.29691E-005	-5.99601E-002	7.34790E-001	3.58000E+000	9	...........
	11	0.16	7.23726E-001	-9.86999E-005	0.00000E+000	-7.14317E-005	-5.99601E-002	7.23995E-001	3.58000E+000	9	...........
	12	0.173333	7.12951E-001	-9.81289E-005	0.00000E+000	-6.99611E-005	-5.99601E-002	7.13255E-001	3.58000E+000	9	...........
	13	0.186667	7.02243E-001	-9.91531E-005	0.00000E+000	-6.96296E-005	-5.99601E-002	7.02543E-001	3.58000E+000	9	...........
	14	0.2	6.91596E-001	-9.88926E-005	0.00000E+000	-6.83937E-005	-5.99601E-002	6.91853E-001	3.58000E+000	9	...........
	15	0.213333	6.80933E-001	-9.93990E-005	0.00000E+000	-6.76840E-005	-5.99601E-002	6.81205E-001	3.58000E+000	9	...........
	16	0.226667	6.70308E-001	-1.00008E-004	0.00000E+000	-6.70365E-005	-5.99601E-002	6.70579E-001	3.58000E+000	9	...........
	17	0.24	6.59685E-001	-9.91531E-005	0.00000E+000	-6.54098E-005	-5.99601E-002	6.59939E-001	3.57890E+000	9	...........
	18	0.253333	6.49089E-001	-9.84696E-005	0.00000E+000	-6.39155E-005	-5.99601E-002	6.49323E-001	3.57890E+000	9	...........
	19	0.266667	6.38470E-001	-9.89239E-005	0.00000E+000	-6.31599E-005	-5.99601E-002	6.38708E-001	3.57890E+000	9	...........
	20	0.28	6.27889E-001	-9.93437E-005	0.00000E+000	-6.23768E-005	-5.99601E-002	6.28132E-001	3.57890E+000	9	...........
	21	0.293333	6.17336E-001	-9.93000E-005	0.00000E+000	-6.13014E-005	-5.99601E-002	6.17571E-001	3.57890E+000	9	...........
	22	0.306667	6.06732E-001	-9.95063E-005	0.00000E+000	-6.03736E-005	-5.99601E-002	6.07007E-001	3.57890E+000	9	...........
	23	0.32	5.96201E-001	-9.79560E-005	0.00000E+000	-5.84014E-005	-5.99601E-002	5.96466E-001	3.57890E+000	9	...........
	24	0.333333	5.85664E-001	-9.88791E-005	0.00000E+000	-5.79099E-005	-5.99601E-002	5.85935E-001	3.57890E+000	9	...........
	25	0.346667	5.75158E-001	-9.89499E-005	0.00000E+000	-5.69118E-005	-5.99601E-002	5.75425E-001	3.57890E+000	9	...........
	26	0.36	5.64675E-001	-9.85519E-005	0.00000E+000	-5.56498E-005	-5.99601E-002	5.64940E-001	3.57890E+000	9	...........
	27	0.373333	5.54181E-001	-9.88426E-005	0.00000E+000	-5.47767E-005	-5.99601E-002	5.54445E-001	3.57890E+000	9	...........
	28	0.386667	5.43744E-001	-9.99376E-005	0.00000E+000	-5.43404E-005	-5.99601E-002	5.44006E-001	3.57890E+000	9	...........
	29	0.4	5.33332E-001	-9.90260E-005	0.00000E+000	-5.28137E-005	-5.99601E-002	5.33590E-001	3.57890E+000	9	...........
	30	0.413333	5.22957E-001	-9.87051E-005	0.00000E+000	-5.16185E-005	-5.99601E-002	5.23199E-001	3.57890E+000	9	...........
	31	0.426667	5.12575E-001	-9.81737E-005	0.00000E+000	-5.03214E-005	-5.99601E-002	5.12856E-001	3.57890E+000	9	...........
	32	0.44	5.02247E-001	-9.84957E-005	0.00000E+000	-4.94692E-005	-5.99601E-002	5.02531E-001	3.57890E+000	9	...........
	33	0.453333	4.91981E-001	-9.87645E-005	0.00000E+000	-4.85902E-005	-5.99601E-002	4.92249E-001	3.57890E+000	9	...........
	34	0.466667	4.82036E-001	-9.87770E-005	0.00000E+000	-4.76140E-005	-5.99601E-002	4.82167E-001	3.57890E+000	9	...........
	35	0.48	4.71959E-001	-9.86686E-005	0.00000E+000	-4.65675E-005	-5.99601E-002	4.72059E-001	3.57890E+000	9	...........
	36	0.493333	4.61822E-001	-9.75569E-005	0.00000E+000	-4.50539E-005	-5.99601E-002	4.61918E-001	3.57890E+000	9	...........
	37	0.506667	4.51734E-001	-9.83863E-005	0.00000E+000	-4.44445E-005	-5.99601E-002	4.51825E-001	3.57890E+000	9	...........
	38	0.52	4.41687E-001	-9.90135E-005	0.00000E+000	-4.37330E-005	-5.99601E-002	4.41781E-001	3.57890E+000	9	...........
	39	0.533333	4.31706E-001	-9.80508E-005	0.00000E+000	-4.23291E-005	-5.99601E-002	4.31787E-001	3.57890E+000	9	...........
	40	0.546667	4.21761E-001	-9.86134E-005	0.00000E+000	-4.15913E-005	-5.99601E-002	4.21851E-001	3.57890E+000	9	...........
	41	0.56	4.11885E-001	-9.89009E-005	0.00000E+000	-4.07358E-005	-5.99601E-002	4.11966E-001	3.57890E+000	9	...........
	42	0.573333	4.02057E-001	-9.85769E-005	0.00000E+000	-3.96335E-005	-5.99601E-002	4.02133E-001	3.57890E+000	9	...........
	43	0.586667	3.92288E-001	-9.84602E-005	0.00000E+000	-3.86247E-005	-5.99601E-002	3.92363E-001	3.57890E+000	9	...........
	44	0.6	3.82566E-001	-9.88426E-005	0.00000E+000	-3.78138E-005	-5.99601E-002	3.82639E-001	3.57890E+000	9	...........
	45	0.613333	3.72898E-001	-9.94615E-005	0.00000E+000	-3.70889E-005	-5.99601E-002	3.72971E-001	3.57890E+000	9	...........
	46	0.626667	3.63284E-001	-9.91687E-005	0.00000E+000	-3.60264E-005	-5.99601E-002	3.63358E-001	3.57890E+000	9	...........
	47	0.64	3.53718E-001	-9.87426E-005	0.00000E+000	-3.49270E-005	-5.99601E-002	3.53790E-001	3.57890E+000	9	...........
	48	0.653333	3.44205E-001	-9.88530E-005	0.00000E+000	-3.40257E-005	-5.99601E-002	3.44270E-001	3.57890E+000	9	...........
	49	0.666667	3.34742E-001	-9.85040E-005	0.00000E+000	-3.29735E-005	-5.99601E-002	3.34808E-001	3.57890E+000	9	...........
	50	0.68	3.25322E-001	-9.94698E-005	0.00000E+000	-3.23598E-005	-5.99601E-002	3.25384E-001	3.57890E+000	9	...........
	51	0.693333	3.15953E-001	-9.91270E-005	0.00000E+000	-3.13194E-005	-5.99601E-002	3.16018E-001	3.57890E+000	9	...........
	52	0.706667	3.06634E-001	-9.82487E-005	0.00000E+000	-3.01264E-005	-5.99601E-002	3.06693E-001	3.57890E+000	9	...........
	53	0.72	2.97353E-001	-9.89770E-005	0.00000E+000	-2.94311E-005	-5.99601E-002	2.97414E-001	3.57890E+000	9	...........
	54	0.733333	2.88122E-001	-9.87728E-005	0.00000E+000	-2.84586E-005	-5.99601E-002	2.88178E-001	3.57890E+000	9	...........
	55	0.746667	2.78936E-001	-9.92281E-005	0.00000E+000	-2.76783E-005	-5.99601E-002	2.78986E-001	3.57890E+000	9	...........
	56	0.76	2.69784E-001	-9.91771E-005	0.00000E+000	-2.67564E-005	-5.99601E-002	2.69832E-001	3.57890E+000	9	...........
	57	0.773333	2.60676E-001	-9.88864E-005	0.00000E+000	-2.57773E-005	-5.99601E-002	2.60724E-001	3.57890E+000	9	...........
	58	0.786667	2.51607E-001	-9.92990E-005	0.00000E+000	-2.49844E-005	-5.99601E-002	2.51658E-001	3.57890E+000	9	...........
	59	0.8	2.42587E-001	-9.86665E-005	0.00000E+000	-2.39352E-005	-5.99601E-002	2.42632E-001	3.57890E+000	9	...........
	60	0.813333	2.33605E-001	-9.90916E-005	0.00000E+000	-2.31483E-005	-5.99601E-002	2.33647E-001	3.57890E+000	9	...........
	61	0.826667	2.24666E-001	-9.83654E-005	0.00000E+000	-2.20994E-005	-5.99601E-002	2.24703E-001	3.57890E+000	9	...........
	62	0.84	2.15764E-001	-9.93052E-005	0.00000E+000	-2.14265E-005	-5.99601E-002	2.15800E-001	3.57890E+000	9	...........
	63	0.853333	2.06909E-001	-9.90103E-005	0.00000E+000	-2.04861E-005	-5.99601E-002	2.06944E-001	3.57890E+000	9	...........
	64	0.866667	1.98100E-001	-9.81414E-005	0.00000E+000	-1.94418E-005	-5.99601E-002	1.98131E-001	3.57890E+000	9	...........
	65	0.88	1.89339E-001	-9.82373E-005	0.00000E+000	-1.86001E-005	-5.99601E-002	1.89369E-001	3.57890E+000	9	...........
	66	0.893333	1.80618E-001	-9.98251E-005	0.00000E+000	-1.80302E-005	-5.99601E-002	1.80650E-001	3.57890E+000	9	...........
	67	0.906667	1.71959E-001	-9.83467E-005	0.00000E+000	-1.69116E-005	-5.99601E-002	1.71989E-001	3.57890E+000	9	...........
	68	0.92	1.63356E-001	-9.95928E-005	0.00000E+000	-1.62691E-005	-5.99601E-002	1.63376E-001	3.57890E+000	9	...........
	69	0.933333	1.54807E-001	-9.82769E-005	0.00000E+000	-1.52139E-005	-5.99601E-002	1.54824E-001	3.57890E+000	9	...........
	70	0.946667	1.46316E-001	-9.88718E-005	0.00000E+000	-1.44665E-005	-5.99601E-002	1.46333E-001	3.57890E+000	9	...........
	71	0.96	1.37883E-001	-9.95782E-005	0.00000E+000	-1.37302E-005	-5.99601E-002	1.37897E-001	3.57890E+000	9	...........
	72	0.97333	1.29512E-001	-9.83779E-005	0.00000E+000	-1.27411E-005	-5.99601E-002	1.29524E-001	3.57890E+000	9	...........
	73	0.98667	1.21211E-001	-9.85561E-005	0.00000E+000	-1.19461E-005	-5.99601E-002	1.21224E-001	3.57890E+000	9	...........
	74	1	1.12972E-001	-9.83331E-005	0.00000E+000	-1.11089E-005	-5.99601E-002	1.12981E-001	3.57890E+000	9	...........
	75	1.01333	1.04802E-001	-9.83613E-005	0.00000E+000	-1.03084E-005	-5.99601E-002	1.04812E-001	3.57890E+000	9	...........
	76	1.02667	9.66994E-002	-9.93385E-005	0.00000E+000	-9.60597E-006	-5.99601E-002	9.67083E-002	3.57890E+000	9	...........
	77	1.04	8.86641E-002	-9.82789E-005	0.00000E+000	-8.71381E-006	-5.99601E-002	8.86757E-002	3.57890E+000	9	...........
	78	1.05333	8.07028E-002	-9.87738E-005	0.00000E+000	-7.97133E-006	-5.99601E-002	8.07117E-002	3.57890E+000	9	...........
	79	1.06667	7.28096E-002	-9.91718E-005	0.00000E+000	-7.22067E-006	-5.99601E-002	7.28094E-002	3.57890E+000	9	...........
	80	1.08	6.49836E-002	-9.87353E-005	0.00000E+000	-6.41618E-006	-5.99601E-002	6.49779E-002	3.57890E+000	9	...........
	81	1.09333	5.72186E-002	-9.86571E-005	0.00000E+000	-5.64503E-006	-5.99601E-002	5.72129E-002	3.57890E+000	9	...........
	82	1.10667	4.95343E-002	-9.85269E-005	0.00000E+000	-4.88046E-006	-5.99601E-002	4.95288E-002	3.57890E+000	9	...........
	83	1.12	4.19328E-002	-9.91531E-005	0.00000E+000	-4.15777E-006	-5.99601E-002	4.19231E-002	3.57890E+000	9	...........
	84	1.13333	3.43624E-002	-9.94281E-005	0.00000E+000	-3.41659E-006	-5.99601E-002	3.43498E-002	3.57890E+000	9	...........
	85	1.14667	2.68570E-002	-9.90614E-005	0.00000E+000	-2.66049E-006	-5.99601E-002	2.68434E-002	3.57890E+000	9	...........
	86	1.16	1.94228E-002	-9.90103E-005	0.00000E+000	-1.92306E-006	-5.99601E-002	1.93989E-002	3.57890E+000	9	...........
	87	1.17333	1.20493E-002	-9.85019E-005	0.00000E+000	-1.18687E-006	-5.99601E-002	1.20175E-002	3.57890E+000	9	...........
	88	1.18667	4.73364E-003	-9.81925E-005	0.00000E+000	-4.64808E-007	-5.99601E-002	4.69977E-003	3.57890E+000	9	...........
	89	1.19	1.82266E-004	-1.00052E-004	0.00000E+000	-1.82362E-008	-5.99601E-002	1.54776E-004	3.57890E+000	9	...........
STARTTIMEOFFSET	QUANT	758.4128	Start Time Offset (s)
