EXPLAIN
TAG	PWR800_DISCHARGE
TITLE	LABEL	PWR Cyclic Charge Discharge (Cell) - Discharge Step	Test &Identifier
DATE	LABEL	13-7-2017	Date
TIME	LABEL	15:37:32	Time
NOTES	NOTES	2	&Notes...
	supercap test cell
	6M KOH
PSTAT	PSTAT	IFC5000-01520	Potentiostat
CAPACITY	QUANT	1.00000E-003	Capacity (A-hr)
CELLTYPE	SELECTOR	1	&Cell Type
WORKINGCONNECTION	SELECTOR	0	&Working Lead
MAXDISCHARGETIME	VARIABLEANDUNITS	1.00000E+002	s	1.00000E+002	second(s)	Max &Discharge Time
DISCHARGEMODE	MULTIPARAM	0	1.00000E-004	&Discharge Mode	Constant Current	Amp(s)
SAMPLETIME	QUANT	1.00000E-002	Sa&mple Period (s)
DISCHARGESTOPAT1	MULTIPARAM	3	0.00000E+000	Discharge Stop At &1	Voltage < Limit	V
DISCHARGESTOPAT2	MULTIPARAM	0	0.00000E+000	Discharge Stop At &2	None	N/A
AESBHCSELECTOR	TOGGLE	F	Save Both Half Cells
IRCOMP	TOGGLE	F	IR &Measure
EOC	QUANT	0	Open Circuit (V)
SEQUENCER	TOGGLE	TRUE	Run as Sequence
PSTATMODEL	IQUANT	53	Pstat Model
PSTATSECTION	LABEL	IFC5000-01520	Pstat Section
PSTATSERIALNO	LABEL	01520	Pstat Serial Number
CTRLMODE	IQUANT	0	Control Mode
ELECTROMETER	IQUANT	1	RE=0 or CS=1
IESTAB	IQUANT	0	I/E Stability
CASPEED	IQUANT	4	Control Amp Speed
CONVENTION	IQUANT	1	Current Convention
ICHRANGE	IQUANT	2	Ich Range
ICHRANGEMODE	TOGGLE	T	Ich Auto Range
ICHOFFSETENABLE	TOGGLE	F	Ich Offset Enable
ICHOFFSET	QUANT	0	Ich Offset (V)
ICHFILTER	IQUANT	1	Ich Filter
VCHRANGE	IQUANT	2	Vch Range
VCHRANGEMODE	TOGGLE	T	Vch Auto Range
VCHOFFSETENABLE	TOGGLE	F	Vch Offset Enable
VCHOFFSET	QUANT	0	Vch Offset (V)
VCHFILTER	IQUANT	1	Vch Filter
IERANGELOWERLIMIT	IQUANT	9	I/E Range Lower Limit
IERANGEMODE	TOGGLE	F	I/E AutoRange
IERANGE	IQUANT	9	I/E Range
ACHSELECT	IQUANT	1	Ach Select
ACHRANGE	IQUANT	2	Ach Range
ACHOFFSETENABLE	TOGGLE	F	Ach Offset Enable
ACHOFFSET	QUANT	0	Ach Offset (V)
ACHFILTER	IQUANT	1	Ach Filter
CABLEID	IQUANT	14	Cable ID
DCCALDATE	LABEL	5-7-2017	DC Calibration Date
ACCALDATE	LABEL	12/3/2015	AC Calibration Date
FRAMEWORKVERSION	QUANT	7.01	Framework Version
INSTRUMENTVERSION	LABEL	4.00	Instrument Version
CURVE	TABLE	87
	Pt	T	Vf	Im	Vu	Pwr	Sig	Ach	Temp	IERange	Over
	#	s	V	A	V	W	V	V	deg C	#	bits
	0	0.013333	8.46882E-001	-9.91896E-005	0.00000E+000	-8.40018E-005	-5.99601E-002	8.47188E-001	3.57900E+000	9	...........
	1	0.026667	8.32707E-001	-9.86863E-005	0.00000E+000	-8.21768E-005	-5.99601E-002	8.32983E-001	3.57900E+000	9	...........
	2	0.04	8.19391E-001	-9.86373E-005	0.00000E+000	-8.08225E-005	-5.99601E-002	8.19650E-001	3.57900E+000	9	...........
	3	0.053333	8.06641E-001	-9.86957E-005	0.00000E+000	-7.96120E-005	-5.99601E-002	8.06896E-001	3.57900E+000	9	...........
	4	0.066667	7.94314E-001	-9.89114E-005	0.00000E+000	-7.85667E-005	-5.99601E-002	7.94561E-001	3.57900E+000	9	...........
	5	0.08	7.82242E-001	-9.88041E-005	0.00000E+000	-7.72887E-005	-5.99601E-002	7.82501E-001	3.57900E+000	9	...........
	6	0.093333	7.70424E-001	-9.85926E-005	0.00000E+000	-7.59580E-005	-5.99601E-002	7.70675E-001	3.57900E+000	9	...........
	7	0.106667	7.58754E-001	-9.89041E-005	0.00000E+000	-7.50439E-005	-5.99601E-002	7.58979E-001	3.57900E+000	9	...........
	8	0.12	7.47201E-001	-9.91771E-005	0.00000E+000	-7.41052E-005	-5.99601E-002	7.47430E-001	3.57900E+000	9	...........
	9	0.133333	7.35716E-001	-9.87290E-005	0.00000E+000	-7.26365E-005	-5.99601E-002	7.35979E-001	3.57900E+000	9	...........
	10	0.146667	7.24380E-001	-9.89593E-005	0.00000E+000	-7.16842E-005	-5.99601E-002	7.24624E-001	3.57900E+000	9	...........
	11	0.16	7.13042E-001	-9.85113E-005	0.00000E+000	-7.02427E-005	-5.99601E-002	7.13285E-001	3.57900E+000	9	...........
	12	0.173333	7.01763E-001	-9.87499E-005	0.00000E+000	-6.92990E-005	-5.99601E-002	7.02018E-001	3.57900E+000	9	...........
	13	0.186667	6.90518E-001	-9.89134E-005	0.00000E+000	-6.83015E-005	-5.99601E-002	6.90800E-001	3.57900E+000	9	...........
	14	0.2	6.79330E-001	-9.93594E-005	0.00000E+000	-6.74978E-005	-5.99601E-002	6.79602E-001	3.57900E+000	9	...........
	15	0.213333	6.68137E-001	-9.97428E-005	0.00000E+000	-6.66419E-005	-5.99601E-002	6.68403E-001	3.57900E+000	9	...........
	16	0.226667	6.56981E-001	-9.85936E-005	0.00000E+000	-6.47741E-005	-5.99601E-002	6.57225E-001	3.57900E+000	9	...........
	17	0.24	6.45838E-001	-9.87228E-005	0.00000E+000	-6.37589E-005	-5.99601E-002	6.46072E-001	3.57900E+000	9	...........
	18	0.253333	6.34720E-001	-9.89166E-005	0.00000E+000	-6.27843E-005	-5.99601E-002	6.34942E-001	3.57900E+000	9	...........
	19	0.266667	6.23642E-001	-9.93198E-005	0.00000E+000	-6.19400E-005	-5.99601E-002	6.23871E-001	3.57900E+000	9	...........
	20	0.28	6.12533E-001	-9.94636E-005	0.00000E+000	-6.09247E-005	-5.99601E-002	6.12809E-001	3.57900E+000	9	...........
	21	0.293333	6.01462E-001	-9.94229E-005	0.00000E+000	-5.97992E-005	-5.99601E-002	6.01766E-001	3.57900E+000	9	...........
	22	0.306667	5.90471E-001	-9.94188E-005	0.00000E+000	-5.87039E-005	-5.99601E-002	5.90735E-001	3.57900E+000	9	...........
	23	0.32	5.79448E-001	-9.82612E-005	0.00000E+000	-5.69373E-005	-5.99601E-002	5.79741E-001	3.57900E+000	9	...........
	24	0.333333	5.68523E-001	-9.83269E-005	0.00000E+000	-5.59011E-005	-5.99601E-002	5.68771E-001	3.57900E+000	9	...........
	25	0.346667	5.57539E-001	-9.84665E-005	0.00000E+000	-5.48989E-005	-5.99601E-002	5.57802E-001	3.57900E+000	9	...........
	26	0.36	5.46661E-001	-9.89687E-005	0.00000E+000	-5.41023E-005	-5.99601E-002	5.46917E-001	3.57900E+000	9	...........
	27	0.373333	5.35781E-001	-9.84967E-005	0.00000E+000	-5.27726E-005	-5.99601E-002	5.36055E-001	3.57900E+000	9	...........
	28	0.386667	5.24948E-001	-9.86728E-005	0.00000E+000	-5.17981E-005	-5.99601E-002	5.25220E-001	3.57900E+000	9	...........
	29	0.4	5.14200E-001	-9.95334E-005	0.00000E+000	-5.11801E-005	-5.99601E-002	5.14460E-001	3.57900E+000	9	...........
	30	0.413333	5.03449E-001	-9.93271E-005	0.00000E+000	-5.00061E-005	-5.99601E-002	5.03738E-001	3.57900E+000	9	...........
	31	0.426667	4.92811E-001	-9.90239E-005	0.00000E+000	-4.88001E-005	-5.99601E-002	4.93063E-001	3.57900E+000	9	...........
	32	0.44	4.82474E-001	-9.97938E-005	0.00000E+000	-4.81479E-005	-5.99601E-002	4.82589E-001	3.57900E+000	9	...........
	33	0.453333	4.72010E-001	-9.94354E-005	0.00000E+000	-4.69345E-005	-5.99601E-002	4.72113E-001	3.57900E+000	9	...........
	34	0.466667	4.61512E-001	-9.93906E-005	0.00000E+000	-4.58699E-005	-5.99601E-002	4.61616E-001	3.57900E+000	9	...........
	35	0.48	4.51084E-001	-9.84779E-005	0.00000E+000	-4.44218E-005	-5.99601E-002	4.51178E-001	3.57900E+000	9	...........
	36	0.493333	4.40717E-001	-9.92667E-005	0.00000E+000	-4.37485E-005	-5.99601E-002	4.40807E-001	3.57900E+000	9	...........
	37	0.506667	4.30411E-001	-9.88728E-005	0.00000E+000	-4.25559E-005	-5.99601E-002	4.30502E-001	3.57900E+000	9	...........
	38	0.52	4.20172E-001	-9.89916E-005	0.00000E+000	-4.15935E-005	-5.99601E-002	4.20258E-001	3.57900E+000	9	...........
	39	0.533333	4.09996E-001	-9.77455E-005	0.00000E+000	-4.00753E-005	-5.99601E-002	4.10078E-001	3.57900E+000	9	...........
	40	0.546667	3.99886E-001	-9.90447E-005	0.00000E+000	-3.96066E-005	-5.99601E-002	3.99958E-001	3.57900E+000	9	...........
	41	0.56	3.89840E-001	-9.82894E-005	0.00000E+000	-3.83171E-005	-5.99601E-002	3.89916E-001	3.57900E+000	9	...........
	42	0.573333	3.79860E-001	-9.87884E-005	0.00000E+000	-3.75258E-005	-5.99601E-002	3.79931E-001	3.57900E+000	9	...........
	43	0.586667	3.69949E-001	-9.88468E-005	0.00000E+000	-3.65682E-005	-5.99601E-002	3.70011E-001	3.57900E+000	9	...........
	44	0.6	3.60088E-001	-9.82810E-005	0.00000E+000	-3.53898E-005	-5.99601E-002	3.60163E-001	3.57900E+000	9	...........
	45	0.613333	3.50291E-001	-9.81925E-005	0.00000E+000	-3.43960E-005	-5.99601E-002	3.50358E-001	3.57900E+000	9	...........
	46	0.626667	3.40551E-001	-9.91573E-005	0.00000E+000	-3.37681E-005	-5.99601E-002	3.40612E-001	3.57900E+000	9	...........
	47	0.64	3.30876E-001	-9.85290E-005	0.00000E+000	-3.26009E-005	-5.99601E-002	3.30936E-001	3.57900E+000	9	...........
	48	0.653333	3.21259E-001	-9.85571E-005	0.00000E+000	-3.16623E-005	-5.99601E-002	3.21314E-001	3.57900E+000	9	...........
	49	0.666667	3.11684E-001	-9.87957E-005	0.00000E+000	-3.07931E-005	-5.99601E-002	3.11747E-001	3.57900E+000	9	...........
	50	0.68	3.02173E-001	-9.92312E-005	0.00000E+000	-2.99850E-005	-5.99601E-002	3.02224E-001	3.57900E+000	9	...........
	51	0.693333	2.92705E-001	-9.78945E-005	0.00000E+000	-2.86542E-005	-5.99601E-002	2.92763E-001	3.57900E+000	9	...........
	52	0.706667	2.83291E-001	-9.84686E-005	0.00000E+000	-2.78953E-005	-5.99601E-002	2.83344E-001	3.57900E+000	9	...........
	53	0.72	2.73926E-001	-9.85603E-005	0.00000E+000	-2.69982E-005	-5.99601E-002	2.73977E-001	3.57900E+000	9	...........
	54	0.733333	2.64609E-001	-9.84196E-005	0.00000E+000	-2.60427E-005	-5.99601E-002	2.64659E-001	3.57900E+000	9	...........
	55	0.746667	2.55344E-001	-9.93062E-005	0.00000E+000	-2.53572E-005	-5.99601E-002	2.55392E-001	3.57900E+000	9	...........
	56	0.76	2.46127E-001	-9.88176E-005	0.00000E+000	-2.43217E-005	-5.99601E-002	2.46173E-001	3.57900E+000	9	...........
	57	0.773333	2.36962E-001	-9.75611E-005	0.00000E+000	-2.31183E-005	-5.99601E-002	2.37001E-001	3.57900E+000	9	...........
	58	0.786667	2.27843E-001	-9.86582E-005	0.00000E+000	-2.24786E-005	-5.99601E-002	2.27883E-001	3.57900E+000	9	...........
	59	0.8	2.18775E-001	-9.81133E-005	0.00000E+000	-2.14647E-005	-5.99601E-002	2.18810E-001	3.57900E+000	9	...........
	60	0.813333	2.09761E-001	-9.87134E-005	0.00000E+000	-2.07062E-005	-5.99601E-002	2.09790E-001	3.57900E+000	9	...........
	61	0.826667	2.00792E-001	-9.84998E-005	0.00000E+000	-1.97780E-005	-5.99601E-002	2.00825E-001	3.57900E+000	9	...........
	62	0.84	1.91883E-001	-9.85655E-005	0.00000E+000	-1.89130E-005	-5.99601E-002	1.91917E-001	3.57900E+000	9	...........
	63	0.853333	1.83024E-001	-9.88582E-005	0.00000E+000	-1.80934E-005	-5.99601E-002	1.83059E-001	3.57900E+000	9	...........
	64	0.866667	1.74234E-001	-9.87395E-005	0.00000E+000	-1.72038E-005	-5.99601E-002	1.74259E-001	3.57900E+000	9	...........
	65	0.88	1.65505E-001	-9.82289E-005	0.00000E+000	-1.62574E-005	-5.99601E-002	1.65528E-001	3.57900E+000	9	...........
	66	0.893333	1.56834E-001	-9.92229E-005	0.00000E+000	-1.55615E-005	-5.99601E-002	1.56860E-001	3.57900E+000	9	...........
	67	0.906667	1.48238E-001	-9.84415E-005	0.00000E+000	-1.45928E-005	-5.99601E-002	1.48258E-001	3.57900E+000	9	...........
	68	0.92	1.39704E-001	-9.94729E-005	0.00000E+000	-1.38968E-005	-5.99601E-002	1.39723E-001	3.57900E+000	9	...........
	69	0.933333	1.31246E-001	-9.81768E-005	0.00000E+000	-1.28853E-005	-5.99601E-002	1.31260E-001	3.57900E+000	9	...........
	70	0.946667	1.22857E-001	-1.00118E-004	0.00000E+000	-1.23002E-005	-5.99601E-002	1.22874E-001	3.57900E+000	9	...........
	71	0.96	1.14542E-001	-9.86519E-005	0.00000E+000	-1.12997E-005	-5.99601E-002	1.14553E-001	3.57900E+000	9	...........
	72	0.97333	1.06299E-001	-9.87290E-005	0.00000E+000	-1.04948E-005	-5.99601E-002	1.06314E-001	3.57900E+000	9	...........
	73	0.98667	9.81370E-002	-9.90395E-005	0.00000E+000	-9.71944E-006	-5.99601E-002	9.81444E-002	3.57900E+000	9	...........
	74	1	9.00479E-002	-9.97136E-005	0.00000E+000	-8.97900E-006	-5.99601E-002	9.00519E-002	3.57900E+000	9	...........
	75	1.01333	8.20300E-002	-9.84946E-005	0.00000E+000	-8.07951E-006	-5.99601E-002	8.20333E-002	3.57900E+000	9	...........
	76	1.02667	7.40880E-002	-9.84071E-005	0.00000E+000	-7.29079E-006	-5.99601E-002	7.40817E-002	3.57900E+000	9	...........
	77	1.04	6.62139E-002	-9.89239E-005	0.00000E+000	-6.55014E-006	-5.99601E-002	6.62073E-002	3.57900E+000	9	...........
	78	1.05333	5.84084E-002	-9.76017E-005	0.00000E+000	-5.70076E-006	-5.99601E-002	5.84020E-002	3.57900E+000	9	...........
	79	1.06667	5.06777E-002	-9.85582E-005	0.00000E+000	-4.99470E-006	-5.99601E-002	5.06698E-002	3.57900E+000	9	...........
	80	1.08	4.30483E-002	-9.78851E-005	0.00000E+000	-4.21379E-006	-5.99601E-002	4.30412E-002	3.57900E+000	9	...........
	81	1.09333	3.54554E-002	-9.90124E-005	0.00000E+000	-3.51053E-006	-5.99601E-002	3.54374E-002	3.57900E+000	9	...........
	82	1.10667	2.79252E-002	-9.88593E-005	0.00000E+000	-2.76066E-006	-5.99601E-002	2.79080E-002	3.57900E+000	9	...........
	83	1.12	2.04601E-002	-9.86915E-005	0.00000E+000	-2.01924E-006	-5.99601E-002	2.04378E-002	3.57900E+000	9	...........
	84	1.13333	1.30592E-002	-9.80820E-005	0.00000E+000	-1.28088E-006	-5.99601E-002	1.30321E-002	3.57900E+000	9	...........
	85	1.14667	5.72475E-003	-9.89009E-005	0.00000E+000	-5.66183E-007	-5.99601E-002	5.69411E-003	3.57900E+000	9	...........
	86	1.15167	7.08747E-004	-1.00177E-004	0.00000E+000	-7.10003E-008	-5.99601E-002	6.83088E-004	3.57900E+000	9	...........
STARTTIMEOFFSET	QUANT	1606.445	Start Time Offset (s)
