EXPLAIN
TAG	PWR800_DISCHARGE
TITLE	LABEL	PWR Cyclic Charge Discharge (Cell) - Discharge Step	Test &Identifier
DATE	LABEL	13-7-2017	Date
TIME	LABEL	15:43:17	Time
NOTES	NOTES	2	&Notes...
	supercap test cell
	6M KOH
PSTAT	PSTAT	IFC5000-01520	Potentiostat
CAPACITY	QUANT	1.00000E-003	Capacity (A-hr)
CELLTYPE	SELECTOR	1	&Cell Type
WORKINGCONNECTION	SELECTOR	0	&Working Lead
MAXDISCHARGETIME	VARIABLEANDUNITS	1.00000E+002	s	1.00000E+002	second(s)	Max &Discharge Time
DISCHARGEMODE	MULTIPARAM	0	1.00000E-004	&Discharge Mode	Constant Current	Amp(s)
SAMPLETIME	QUANT	1.00000E-002	Sa&mple Period (s)
DISCHARGESTOPAT1	MULTIPARAM	3	0.00000E+000	Discharge Stop At &1	Voltage < Limit	V
DISCHARGESTOPAT2	MULTIPARAM	0	0.00000E+000	Discharge Stop At &2	None	N/A
AESBHCSELECTOR	TOGGLE	F	Save Both Half Cells
IRCOMP	TOGGLE	F	IR &Measure
EOC	QUANT	0	Open Circuit (V)
SEQUENCER	TOGGLE	TRUE	Run as Sequence
PSTATMODEL	IQUANT	53	Pstat Model
PSTATSECTION	LABEL	IFC5000-01520	Pstat Section
PSTATSERIALNO	LABEL	01520	Pstat Serial Number
CTRLMODE	IQUANT	0	Control Mode
ELECTROMETER	IQUANT	1	RE=0 or CS=1
IESTAB	IQUANT	0	I/E Stability
CASPEED	IQUANT	4	Control Amp Speed
CONVENTION	IQUANT	1	Current Convention
ICHRANGE	IQUANT	2	Ich Range
ICHRANGEMODE	TOGGLE	T	Ich Auto Range
ICHOFFSETENABLE	TOGGLE	F	Ich Offset Enable
ICHOFFSET	QUANT	0	Ich Offset (V)
ICHFILTER	IQUANT	1	Ich Filter
VCHRANGE	IQUANT	2	Vch Range
VCHRANGEMODE	TOGGLE	T	Vch Auto Range
VCHOFFSETENABLE	TOGGLE	F	Vch Offset Enable
VCHOFFSET	QUANT	0	Vch Offset (V)
VCHFILTER	IQUANT	1	Vch Filter
IERANGELOWERLIMIT	IQUANT	9	I/E Range Lower Limit
IERANGEMODE	TOGGLE	F	I/E AutoRange
IERANGE	IQUANT	9	I/E Range
ACHSELECT	IQUANT	1	Ach Select
ACHRANGE	IQUANT	2	Ach Range
ACHOFFSETENABLE	TOGGLE	F	Ach Offset Enable
ACHOFFSET	QUANT	0	Ach Offset (V)
ACHFILTER	IQUANT	1	Ach Filter
CABLEID	IQUANT	14	Cable ID
DCCALDATE	LABEL	5-7-2017	DC Calibration Date
ACCALDATE	LABEL	12/3/2015	AC Calibration Date
FRAMEWORKVERSION	QUANT	7.01	Framework Version
INSTRUMENTVERSION	LABEL	4.00	Instrument Version
CURVE	TABLE	86
	Pt	T	Vf	Im	Vu	Pwr	Sig	Ach	Temp	IERange	Over
	#	s	V	A	V	W	V	V	deg C	#	bits
	0	0.013333	8.45823E-001	-9.87697E-005	0.00000E+000	-8.35416E-005	-5.99601E-002	8.46141E-001	3.57990E+000	9	...........
	1	0.026667	8.31549E-001	-9.88645E-005	0.00000E+000	-8.22106E-005	-5.99601E-002	8.31861E-001	3.57990E+000	9	...........
	2	0.04	8.18104E-001	-9.83373E-005	0.00000E+000	-8.04501E-005	-5.99601E-002	8.18425E-001	3.57990E+000	9	...........
	3	0.053333	8.05267E-001	-9.84644E-005	0.00000E+000	-7.92901E-005	-5.99601E-002	8.05558E-001	3.57990E+000	9	...........
	4	0.066667	7.92832E-001	-9.89135E-005	0.00000E+000	-7.84217E-005	-5.99601E-002	7.93104E-001	3.57990E+000	9	...........
	5	0.08	7.80636E-001	-9.90885E-005	0.00000E+000	-7.73521E-005	-5.99601E-002	7.80924E-001	3.57990E+000	9	...........
	6	0.093333	7.68676E-001	-9.98918E-005	0.00000E+000	-7.67844E-005	-5.99601E-002	7.68964E-001	3.57990E+000	9	...........
	7	0.106667	7.56884E-001	-9.78622E-005	0.00000E+000	-7.40703E-005	-5.99601E-002	7.57165E-001	3.57976E+000	9	...........
	8	0.12	7.45231E-001	-9.95219E-005	0.00000E+000	-7.41668E-005	-5.99601E-002	7.45509E-001	3.57880E+000	9	...........
	9	0.133333	7.33660E-001	-9.89624E-005	0.00000E+000	-7.26048E-005	-5.99601E-002	7.33923E-001	3.57880E+000	9	...........
	10	0.146667	7.22163E-001	-9.95167E-005	0.00000E+000	-7.18673E-005	-5.99601E-002	7.22449E-001	3.57880E+000	9	...........
	11	0.16	7.10697E-001	-9.88697E-005	0.00000E+000	-7.02664E-005	-5.99601E-002	7.11000E-001	3.57880E+000	9	...........
	12	0.173333	6.99310E-001	-9.81362E-005	0.00000E+000	-6.86276E-005	-5.99601E-002	6.99620E-001	3.57880E+000	9	...........
	13	0.186667	6.87967E-001	-9.84519E-005	0.00000E+000	-6.77316E-005	-5.99601E-002	6.88265E-001	3.57880E+000	9	...........
	14	0.2	6.76641E-001	-9.97240E-005	0.00000E+000	-6.74774E-005	-5.99601E-002	6.76953E-001	3.57880E+000	9	...........
	15	0.213333	6.65347E-001	-9.86446E-005	0.00000E+000	-6.56330E-005	-5.99601E-002	6.65632E-001	3.57880E+000	9	...........
	16	0.226667	6.54073E-001	-9.84384E-005	0.00000E+000	-6.43859E-005	-5.99601E-002	6.54354E-001	3.57880E+000	9	...........
	17	0.24	6.42838E-001	-9.80310E-005	0.00000E+000	-6.30180E-005	-5.99601E-002	6.43088E-001	3.57880E+000	9	...........
	18	0.253333	6.31605E-001	-9.79237E-005	0.00000E+000	-6.18491E-005	-5.99601E-002	6.31858E-001	3.57880E+000	9	...........
	19	0.266667	6.20421E-001	-9.86394E-005	0.00000E+000	-6.11979E-005	-5.99601E-002	6.20656E-001	3.57880E+000	9	...........
	20	0.28	6.09182E-001	-9.83529E-005	0.00000E+000	-5.99148E-005	-5.99601E-002	6.09470E-001	3.57880E+000	9	...........
	21	0.293333	5.98016E-001	-9.91958E-005	0.00000E+000	-5.93207E-005	-5.99601E-002	5.98303E-001	3.57880E+000	9	...........
	22	0.306667	5.86901E-001	-9.86051E-005	0.00000E+000	-5.78714E-005	-5.99601E-002	5.87192E-001	3.57880E+000	9	...........
	23	0.32	5.75819E-001	-9.88895E-005	0.00000E+000	-5.69425E-005	-5.99601E-002	5.76083E-001	3.57880E+000	9	...........
	24	0.333333	5.64753E-001	-9.91552E-005	0.00000E+000	-5.59981E-005	-5.99601E-002	5.65021E-001	3.57880E+000	9	...........
	25	0.346667	5.53727E-001	-9.75684E-005	0.00000E+000	-5.40263E-005	-5.99601E-002	5.53986E-001	3.57880E+000	9	...........
	26	0.36	5.42745E-001	-9.79820E-005	0.00000E+000	-5.31792E-005	-5.99601E-002	5.42989E-001	3.57880E+000	9	...........
	27	0.373333	5.31782E-001	-9.90229E-005	0.00000E+000	-5.26585E-005	-5.99601E-002	5.32036E-001	3.57880E+000	9	...........
	28	0.386667	5.20893E-001	-9.95125E-005	0.00000E+000	-5.18353E-005	-5.99601E-002	5.21139E-001	3.57880E+000	9	...........
	29	0.4	5.10021E-001	-9.88041E-005	0.00000E+000	-5.03922E-005	-5.99601E-002	5.10296E-001	3.57880E+000	9	...........
	30	0.413333	4.99232E-001	-9.87072E-005	0.00000E+000	-4.92778E-005	-5.99601E-002	4.99488E-001	3.57880E+000	9	...........
	31	0.426667	4.88555E-001	-9.87947E-005	0.00000E+000	-4.82666E-005	-5.99601E-002	4.88764E-001	3.57880E+000	9	...........
	32	0.44	4.78206E-001	-9.89207E-005	0.00000E+000	-4.73045E-005	-5.99601E-002	4.78305E-001	3.57880E+000	9	...........
	33	0.453333	4.67594E-001	-9.96240E-005	0.00000E+000	-4.65836E-005	-5.99601E-002	4.67688E-001	3.57880E+000	9	...........
	34	0.466667	4.57045E-001	-9.86499E-005	0.00000E+000	-4.50874E-005	-5.99601E-002	4.57135E-001	3.57880E+000	9	...........
	35	0.48	4.46558E-001	-9.89989E-005	0.00000E+000	-4.42087E-005	-5.99601E-002	4.46649E-001	3.57880E+000	9	...........
	36	0.493333	4.36141E-001	-9.97011E-005	0.00000E+000	-4.34838E-005	-5.99601E-002	4.36233E-001	3.57880E+000	9	...........
	37	0.506667	4.25785E-001	-9.90749E-005	0.00000E+000	-4.21846E-005	-5.99601E-002	4.25878E-001	3.57880E+000	9	...........
	38	0.52	4.15505E-001	-9.85061E-005	0.00000E+000	-4.09298E-005	-5.99601E-002	4.15595E-001	3.57880E+000	9	...........
	39	0.533333	4.05294E-001	-9.86790E-005	0.00000E+000	-3.99940E-005	-5.99601E-002	4.05373E-001	3.57880E+000	9	...........
	40	0.546667	3.95147E-001	-9.87415E-005	0.00000E+000	-3.90174E-005	-5.99601E-002	3.95226E-001	3.57880E+000	9	...........
	41	0.56	3.85066E-001	-9.93594E-005	0.00000E+000	-3.82599E-005	-5.99601E-002	3.85141E-001	3.57880E+000	9	...........
	42	0.573333	3.75054E-001	-9.84644E-005	0.00000E+000	-3.69295E-005	-5.99601E-002	3.75124E-001	3.57880E+000	9	...........
	43	0.586667	3.65107E-001	-9.80643E-005	0.00000E+000	-3.58039E-005	-5.99601E-002	3.65173E-001	3.57880E+000	9	...........
	44	0.6	3.55221E-001	-9.87645E-005	0.00000E+000	-3.50832E-005	-5.99601E-002	3.55287E-001	3.57880E+000	9	...........
	45	0.613333	3.45399E-001	-9.94865E-005	0.00000E+000	-3.43625E-005	-5.99601E-002	3.45459E-001	3.57880E+000	9	...........
	46	0.626667	3.35630E-001	-9.94167E-005	0.00000E+000	-3.33672E-005	-5.99601E-002	3.35694E-001	3.57880E+000	9	...........
	47	0.64	3.25930E-001	-9.90874E-005	0.00000E+000	-3.22956E-005	-5.99601E-002	3.25988E-001	3.57880E+000	9	...........
	48	0.653333	3.16282E-001	-9.92354E-005	0.00000E+000	-3.13863E-005	-5.99601E-002	3.16342E-001	3.57880E+000	9	...........
	49	0.666667	3.06689E-001	-9.87290E-005	0.00000E+000	-3.02791E-005	-5.99601E-002	3.06749E-001	3.57880E+000	9	...........
	50	0.68	2.97155E-001	-9.91270E-005	0.00000E+000	-2.94561E-005	-5.99601E-002	2.97211E-001	3.57880E+000	9	...........
	51	0.693333	2.87668E-001	-9.90010E-005	0.00000E+000	-2.84794E-005	-5.99601E-002	2.87724E-001	3.57880E+000	9	...........
	52	0.706667	2.78241E-001	-9.83498E-005	0.00000E+000	-2.73649E-005	-5.99601E-002	2.78295E-001	3.57880E+000	9	...........
	53	0.72	2.68857E-001	-9.96980E-005	0.00000E+000	-2.68045E-005	-5.99601E-002	2.68905E-001	3.57880E+000	9	...........
	54	0.733333	2.59526E-001	-9.91375E-005	0.00000E+000	-2.57288E-005	-5.99601E-002	2.59574E-001	3.57880E+000	9	...........
	55	0.746667	2.50241E-001	-9.86530E-005	0.00000E+000	-2.46870E-005	-5.99601E-002	2.50297E-001	3.57880E+000	9	...........
	56	0.76	2.41017E-001	-9.85175E-005	0.00000E+000	-2.37444E-005	-5.99601E-002	2.41057E-001	3.57880E+000	9	...........
	57	0.773333	2.31839E-001	-9.83758E-005	0.00000E+000	-2.28073E-005	-5.99601E-002	2.31878E-001	3.57880E+000	9	...........
	58	0.786667	2.22711E-001	-9.88614E-005	0.00000E+000	-2.20175E-005	-5.99601E-002	2.22751E-001	3.57880E+000	9	...........
	59	0.8	2.13637E-001	-9.91447E-005	0.00000E+000	-2.11810E-005	-5.99601E-002	2.13672E-001	3.57880E+000	9	...........
	60	0.813333	2.04610E-001	-9.83279E-005	0.00000E+000	-2.01189E-005	-5.99601E-002	2.04649E-001	3.57880E+000	9	...........
	61	0.826667	1.95657E-001	-9.85582E-005	0.00000E+000	-1.92836E-005	-5.99601E-002	1.95691E-001	3.57880E+000	9	...........
	62	0.84	1.86749E-001	-9.87051E-005	0.00000E+000	-1.84330E-005	-5.99601E-002	1.86783E-001	3.57880E+000	9	...........
	63	0.853333	1.77904E-001	-9.87530E-005	0.00000E+000	-1.75686E-005	-5.99601E-002	1.77934E-001	3.57880E+000	9	...........
	64	0.866667	1.69124E-001	-9.92187E-005	0.00000E+000	-1.67803E-005	-5.99601E-002	1.69153E-001	3.57880E+000	9	...........
	65	0.88	1.60412E-001	-9.95104E-005	0.00000E+000	-1.59627E-005	-5.99601E-002	1.60439E-001	3.57880E+000	9	...........
	66	0.893333	1.51762E-001	-9.93177E-005	0.00000E+000	-1.50727E-005	-5.99601E-002	1.51785E-001	3.57880E+000	9	...........
	67	0.906667	1.43190E-001	-9.91854E-005	0.00000E+000	-1.42024E-005	-5.99601E-002	1.43207E-001	3.57880E+000	9	...........
	68	0.92	1.34687E-001	-9.90114E-005	0.00000E+000	-1.33356E-005	-5.99601E-002	1.34707E-001	3.57880E+000	9	...........
	69	0.933333	1.26256E-001	-9.91416E-005	0.00000E+000	-1.25173E-005	-5.99601E-002	1.26270E-001	3.57880E+000	9	...........
	70	0.946667	1.17896E-001	-9.89082E-005	0.00000E+000	-1.16609E-005	-5.99601E-002	1.17910E-001	3.57880E+000	9	...........
	71	0.96	1.09621E-001	-9.88207E-005	0.00000E+000	-1.08328E-005	-5.99601E-002	1.09628E-001	3.57880E+000	9	...........
	72	0.97333	1.01411E-001	-9.83435E-005	0.00000E+000	-9.97312E-006	-5.99601E-002	1.01423E-001	3.57880E+000	9	...........
	73	0.98667	9.32874E-002	-9.77288E-005	0.00000E+000	-9.11687E-006	-5.99601E-002	9.32920E-002	3.57880E+000	9	...........
	74	1	8.52290E-002	-9.82248E-005	0.00000E+000	-8.37160E-006	-5.99601E-002	8.52359E-002	3.57880E+000	9	...........
	75	1.01333	7.72488E-002	-9.90968E-005	0.00000E+000	-7.65511E-006	-5.99601E-002	7.72490E-002	3.57880E+000	9	...........
	76	1.02667	6.93401E-002	-9.90499E-005	0.00000E+000	-6.86813E-006	-5.99601E-002	6.93367E-002	3.57880E+000	9	...........
	77	1.04	6.14969E-002	-9.90926E-005	0.00000E+000	-6.09389E-006	-5.99601E-002	6.14952E-002	3.57880E+000	9	...........
	78	1.05333	5.37289E-002	-9.95553E-005	0.00000E+000	-5.34900E-006	-5.99601E-002	5.37226E-002	3.57880E+000	9	...........
	79	1.06667	4.60600E-002	-9.91823E-005	0.00000E+000	-4.56833E-006	-5.99601E-002	4.60523E-002	3.57880E+000	9	...........
	80	1.08	3.84423E-002	-9.87561E-005	0.00000E+000	-3.79641E-006	-5.99601E-002	3.84312E-002	3.57880E+000	9	...........
	81	1.09333	3.08795E-002	-9.90614E-005	0.00000E+000	-3.05897E-006	-5.99601E-002	3.08683E-002	3.57880E+000	9	...........
	82	1.10667	2.33842E-002	-9.88093E-005	0.00000E+000	-2.31058E-006	-5.99601E-002	2.33676E-002	3.57890E+000	9	...........
	83	1.12	1.59582E-002	-9.78226E-005	0.00000E+000	-1.56107E-006	-5.99601E-002	1.59314E-002	3.57960E+000	9	...........
	84	1.13333	8.59767E-003	-9.90051E-005	0.00000E+000	-8.51213E-007	-5.99601E-002	8.56525E-003	3.57960E+000	9	...........
	85	1.14333	2.20686E-003	-9.84936E-005	0.00000E+000	-2.17362E-007	-5.99601E-002	2.17327E-003	3.57960E+000	9	...........
STARTTIMEOFFSET	QUANT	1864.857	Start Time Offset (s)
