EXPLAIN
TAG	PWR800_DISCHARGE
TITLE	LABEL	PWR Cyclic Charge Discharge (Cell) - Discharge Step	Test &Identifier
DATE	LABEL	13-7-2017	Date
TIME	LABEL	15:39:50	Time
NOTES	NOTES	2	&Notes...
	supercap test cell
	6M KOH
PSTAT	PSTAT	IFC5000-01520	Potentiostat
CAPACITY	QUANT	1.00000E-003	Capacity (A-hr)
CELLTYPE	SELECTOR	1	&Cell Type
WORKINGCONNECTION	SELECTOR	0	&Working Lead
MAXDISCHARGETIME	VARIABLEANDUNITS	1.00000E+002	s	1.00000E+002	second(s)	Max &Discharge Time
DISCHARGEMODE	MULTIPARAM	0	1.00000E-004	&Discharge Mode	Constant Current	Amp(s)
SAMPLETIME	QUANT	1.00000E-002	Sa&mple Period (s)
DISCHARGESTOPAT1	MULTIPARAM	3	0.00000E+000	Discharge Stop At &1	Voltage < Limit	V
DISCHARGESTOPAT2	MULTIPARAM	0	0.00000E+000	Discharge Stop At &2	None	N/A
AESBHCSELECTOR	TOGGLE	F	Save Both Half Cells
IRCOMP	TOGGLE	F	IR &Measure
EOC	QUANT	0	Open Circuit (V)
SEQUENCER	TOGGLE	TRUE	Run as Sequence
PSTATMODEL	IQUANT	53	Pstat Model
PSTATSECTION	LABEL	IFC5000-01520	Pstat Section
PSTATSERIALNO	LABEL	01520	Pstat Serial Number
CTRLMODE	IQUANT	0	Control Mode
ELECTROMETER	IQUANT	1	RE=0 or CS=1
IESTAB	IQUANT	0	I/E Stability
CASPEED	IQUANT	4	Control Amp Speed
CONVENTION	IQUANT	1	Current Convention
ICHRANGE	IQUANT	2	Ich Range
ICHRANGEMODE	TOGGLE	T	Ich Auto Range
ICHOFFSETENABLE	TOGGLE	F	Ich Offset Enable
ICHOFFSET	QUANT	0	Ich Offset (V)
ICHFILTER	IQUANT	1	Ich Filter
VCHRANGE	IQUANT	2	Vch Range
VCHRANGEMODE	TOGGLE	T	Vch Auto Range
VCHOFFSETENABLE	TOGGLE	F	Vch Offset Enable
VCHOFFSET	QUANT	0	Vch Offset (V)
VCHFILTER	IQUANT	1	Vch Filter
IERANGELOWERLIMIT	IQUANT	9	I/E Range Lower Limit
IERANGEMODE	TOGGLE	F	I/E AutoRange
IERANGE	IQUANT	9	I/E Range
ACHSELECT	IQUANT	1	Ach Select
ACHRANGE	IQUANT	2	Ach Range
ACHOFFSETENABLE	TOGGLE	F	Ach Offset Enable
ACHOFFSET	QUANT	0	Ach Offset (V)
ACHFILTER	IQUANT	1	Ach Filter
CABLEID	IQUANT	14	Cable ID
DCCALDATE	LABEL	5-7-2017	DC Calibration Date
ACCALDATE	LABEL	12/3/2015	AC Calibration Date
FRAMEWORKVERSION	QUANT	7.01	Framework Version
INSTRUMENTVERSION	LABEL	4.00	Instrument Version
CURVE	TABLE	87
	Pt	T	Vf	Im	Vu	Pwr	Sig	Ach	Temp	IERange	Over
	#	s	V	A	V	W	V	V	deg C	#	bits
	0	0.013333	8.46053E-001	-9.87613E-005	0.00000E+000	-8.35573E-005	-5.99601E-002	8.46376E-001	3.58130E+000	9	...........
	1	0.026667	8.31863E-001	-9.80820E-005	0.00000E+000	-8.15908E-005	-5.99601E-002	8.32180E-001	3.58130E+000	9	...........
	2	0.04	8.18506E-001	-9.95719E-005	0.00000E+000	-8.15003E-005	-5.99601E-002	8.18825E-001	3.58130E+000	9	...........
	3	0.053333	8.05735E-001	-9.85196E-005	0.00000E+000	-7.93807E-005	-5.99601E-002	8.06028E-001	3.58130E+000	9	...........
	4	0.066667	7.93357E-001	-9.89468E-005	0.00000E+000	-7.85001E-005	-5.99601E-002	7.93646E-001	3.57994E+000	9	...........
	5	0.08	7.81250E-001	-9.87311E-005	0.00000E+000	-7.71337E-005	-5.99601E-002	7.81532E-001	3.57920E+000	9	...........
	6	0.093333	7.69363E-001	-9.84300E-005	0.00000E+000	-7.57284E-005	-5.99601E-002	7.69675E-001	3.57920E+000	9	...........
	7	0.106667	7.57661E-001	-9.90520E-005	0.00000E+000	-7.50479E-005	-5.99601E-002	7.57932E-001	3.57920E+000	9	...........
	8	0.12	7.46050E-001	-9.90447E-005	0.00000E+000	-7.38923E-005	-5.99601E-002	7.46355E-001	3.57920E+000	9	...........
	9	0.133333	7.34554E-001	-1.00213E-004	0.00000E+000	-7.36116E-005	-5.99601E-002	7.34849E-001	3.57920E+000	9	...........
	10	0.146667	7.23159E-001	-9.89072E-005	0.00000E+000	-7.15256E-005	-5.99601E-002	7.23413E-001	3.57920E+000	9	...........
	11	0.16	7.11752E-001	-9.85644E-005	0.00000E+000	-7.01534E-005	-5.99601E-002	7.12013E-001	3.57920E+000	9	...........
	12	0.173333	7.00443E-001	-9.91698E-005	0.00000E+000	-6.94627E-005	-5.99601E-002	7.00690E-001	3.57920E+000	9	...........
	13	0.186667	6.89151E-001	-9.88166E-005	0.00000E+000	-6.80995E-005	-5.99601E-002	6.89410E-001	3.57920E+000	9	...........
	14	0.2	6.77912E-001	-9.89833E-005	0.00000E+000	-6.71019E-005	-5.99601E-002	6.78155E-001	3.57920E+000	9	...........
	15	0.213333	6.66664E-001	-9.81685E-005	0.00000E+000	-6.54454E-005	-5.99601E-002	6.66940E-001	3.57920E+000	9	...........
	16	0.226667	6.55450E-001	-9.91145E-005	0.00000E+000	-6.49646E-005	-5.99601E-002	6.55749E-001	3.57920E+000	9	...........
	17	0.24	6.44286E-001	-9.91104E-005	0.00000E+000	-6.38554E-005	-5.99601E-002	6.44572E-001	3.57920E+000	9	...........
	18	0.253333	6.33114E-001	-9.91135E-005	0.00000E+000	-6.27502E-005	-5.99601E-002	6.33391E-001	3.57920E+000	9	...........
	19	0.266667	6.22018E-001	-9.89280E-005	0.00000E+000	-6.15350E-005	-5.99601E-002	6.22268E-001	3.57920E+000	9	...........
	20	0.28	6.10852E-001	-9.88791E-005	0.00000E+000	-6.04005E-005	-5.99601E-002	6.11142E-001	3.57920E+000	9	...........
	21	0.293333	5.99754E-001	-9.87488E-005	0.00000E+000	-5.92250E-005	-5.99601E-002	6.00042E-001	3.57920E+000	9	...........
	22	0.306667	5.88686E-001	-9.88218E-005	0.00000E+000	-5.81750E-005	-5.99601E-002	5.88973E-001	3.57920E+000	9	...........
	23	0.32	5.77667E-001	-9.87572E-005	0.00000E+000	-5.70488E-005	-5.99601E-002	5.77921E-001	3.57920E+000	9	...........
	24	0.333333	5.66672E-001	-9.88937E-005	0.00000E+000	-5.60403E-005	-5.99601E-002	5.66941E-001	3.57920E+000	9	...........
	25	0.346667	5.55664E-001	-9.96063E-005	0.00000E+000	-5.53477E-005	-5.99601E-002	5.55956E-001	3.57920E+000	9	...........
	26	0.36	5.44754E-001	-9.89260E-005	0.00000E+000	-5.38903E-005	-5.99601E-002	5.45006E-001	3.57920E+000	9	...........
	27	0.373333	5.33854E-001	-9.95667E-005	0.00000E+000	-5.31541E-005	-5.99601E-002	5.34129E-001	3.57920E+000	9	...........
	28	0.386667	5.22991E-001	-9.85717E-005	0.00000E+000	-5.15521E-005	-5.99601E-002	5.23272E-001	3.57920E+000	9	...........
	29	0.4	5.12199E-001	-9.88624E-005	0.00000E+000	-5.06373E-005	-5.99601E-002	5.12473E-001	3.57920E+000	9	...........
	30	0.413333	5.01413E-001	-9.92062E-005	0.00000E+000	-4.97433E-005	-5.99601E-002	5.01709E-001	3.57920E+000	9	...........
	31	0.426667	4.90763E-001	-9.87249E-005	0.00000E+000	-4.84505E-005	-5.99601E-002	4.91025E-001	3.57920E+000	9	...........
	32	0.44	4.80434E-001	-9.95480E-005	0.00000E+000	-4.78262E-005	-5.99601E-002	4.80571E-001	3.57920E+000	9	...........
	33	0.453333	4.69918E-001	-9.85801E-005	0.00000E+000	-4.63245E-005	-5.99601E-002	4.70018E-001	3.57920E+000	9	...........
	34	0.466667	4.59406E-001	-9.85936E-005	0.00000E+000	-4.52945E-005	-5.99601E-002	4.59506E-001	3.57920E+000	9	...........
	35	0.48	4.48960E-001	-9.84832E-005	0.00000E+000	-4.42150E-005	-5.99601E-002	4.49053E-001	3.57920E+000	9	...........
	36	0.493333	4.38568E-001	-9.97272E-005	0.00000E+000	-4.37371E-005	-5.99601E-002	4.38670E-001	3.57920E+000	9	...........
	37	0.506667	4.28254E-001	-9.79612E-005	0.00000E+000	-4.19523E-005	-5.99601E-002	4.28347E-001	3.57920E+000	9	...........
	38	0.52	4.18000E-001	-9.89874E-005	0.00000E+000	-4.13768E-005	-5.99601E-002	4.18092E-001	3.57920E+000	9	...........
	39	0.533333	4.07821E-001	-9.92083E-005	0.00000E+000	-4.04592E-005	-5.99601E-002	4.07905E-001	3.57920E+000	9	...........
	40	0.546667	3.97699E-001	-9.87988E-005	0.00000E+000	-3.92922E-005	-5.99601E-002	3.97777E-001	3.57920E+000	9	...........
	41	0.56	3.87649E-001	-9.91218E-005	0.00000E+000	-3.84244E-005	-5.99601E-002	3.87724E-001	3.57920E+000	9	...........
	42	0.573333	3.77653E-001	-9.92552E-005	0.00000E+000	-3.74840E-005	-5.99601E-002	3.77726E-001	3.57920E+000	9	...........
	43	0.586667	3.67722E-001	-9.88238E-005	0.00000E+000	-3.63397E-005	-5.99601E-002	3.67803E-001	3.57920E+000	9	...........
	44	0.6	3.57867E-001	-9.84133E-005	0.00000E+000	-3.52188E-005	-5.99601E-002	3.57935E-001	3.57920E+000	9	...........
	45	0.613333	3.48065E-001	-9.94354E-005	0.00000E+000	-3.46100E-005	-5.99601E-002	3.48128E-001	3.57920E+000	9	...........
	46	0.626667	3.38321E-001	-9.84061E-005	0.00000E+000	-3.32928E-005	-5.99601E-002	3.38381E-001	3.57920E+000	9	...........
	47	0.64	3.28632E-001	-9.90249E-005	0.00000E+000	-3.25428E-005	-5.99601E-002	3.28692E-001	3.57920E+000	9	...........
	48	0.653333	3.19002E-001	-9.95948E-005	0.00000E+000	-3.17709E-005	-5.99601E-002	3.19059E-001	3.57920E+000	9	...........
	49	0.666667	3.09429E-001	-9.95042E-005	0.00000E+000	-3.07895E-005	-5.99601E-002	3.09483E-001	3.57920E+000	9	...........
	50	0.68	2.99902E-001	-9.90312E-005	0.00000E+000	-2.96996E-005	-5.99601E-002	2.99955E-001	3.57920E+000	9	...........
	51	0.693333	2.90431E-001	-9.94365E-005	0.00000E+000	-2.88794E-005	-5.99601E-002	2.90484E-001	3.57920E+000	9	...........
	52	0.706667	2.81013E-001	-9.89405E-005	0.00000E+000	-2.78036E-005	-5.99601E-002	2.81063E-001	3.57920E+000	9	...........
	53	0.72	2.71641E-001	-9.92062E-005	0.00000E+000	-2.69485E-005	-5.99601E-002	2.71693E-001	3.57920E+000	9	...........
	54	0.733333	2.62328E-001	-9.79393E-005	0.00000E+000	-2.56922E-005	-5.99601E-002	2.62376E-001	3.57920E+000	9	...........
	55	0.746667	2.53062E-001	-9.88791E-005	0.00000E+000	-2.50225E-005	-5.99601E-002	2.53108E-001	3.57920E+000	9	...........
	56	0.76	2.43848E-001	-9.93271E-005	0.00000E+000	-2.42207E-005	-5.99601E-002	2.43887E-001	3.57920E+000	9	...........
	57	0.773333	2.34678E-001	-9.84727E-005	0.00000E+000	-2.31094E-005	-5.99601E-002	2.34710E-001	3.57920E+000	9	...........
	58	0.786667	2.25554E-001	-9.93260E-005	0.00000E+000	-2.24034E-005	-5.99601E-002	2.25587E-001	3.57920E+000	9	...........
	59	0.8	2.16485E-001	-9.88624E-005	0.00000E+000	-2.14023E-005	-5.99601E-002	2.16517E-001	3.57920E+000	9	...........
	60	0.813333	2.07464E-001	-9.87353E-005	0.00000E+000	-2.04840E-005	-5.99601E-002	2.07494E-001	3.57920E+000	9	...........
	61	0.826667	1.98500E-001	-9.91010E-005	0.00000E+000	-1.96715E-005	-5.99601E-002	1.98534E-001	3.57920E+000	9	...........
	62	0.84	1.89594E-001	-9.86446E-005	0.00000E+000	-1.87025E-005	-5.99601E-002	1.89628E-001	3.57920E+000	9	...........
	63	0.853333	1.80742E-001	-9.88572E-005	0.00000E+000	-1.78677E-005	-5.99601E-002	1.80771E-001	3.57920E+000	9	...........
	64	0.866667	1.71954E-001	-9.93865E-005	0.00000E+000	-1.70899E-005	-5.99601E-002	1.71980E-001	3.57920E+000	9	...........
	65	0.88	1.63232E-001	-9.94313E-005	0.00000E+000	-1.62303E-005	-5.99601E-002	1.63256E-001	3.57920E+000	9	...........
	66	0.893333	1.54580E-001	-9.94917E-005	0.00000E+000	-1.53794E-005	-5.99601E-002	1.54601E-001	3.57920E+000	9	...........
	67	0.906667	1.45994E-001	-9.88989E-005	0.00000E+000	-1.44386E-005	-5.99601E-002	1.46013E-001	3.57920E+000	9	...........
	68	0.92	1.37480E-001	-9.83810E-005	0.00000E+000	-1.35255E-005	-5.99601E-002	1.37494E-001	3.57920E+000	9	...........
	69	0.933333	1.29031E-001	-9.95021E-005	0.00000E+000	-1.28389E-005	-5.99601E-002	1.29040E-001	3.57920E+000	9	...........
	70	0.946667	1.20658E-001	-9.80393E-005	0.00000E+000	-1.18292E-005	-5.99601E-002	1.20672E-001	3.57920E+000	9	...........
	71	0.96	1.12362E-001	-9.89218E-005	0.00000E+000	-1.11150E-005	-5.99601E-002	1.12370E-001	3.57920E+000	9	...........
	72	0.97333	1.04141E-001	-9.97178E-005	0.00000E+000	-1.03847E-005	-5.99601E-002	1.04150E-001	3.57920E+000	9	...........
	73	0.98667	9.59898E-002	-9.97459E-005	0.00000E+000	-9.57459E-006	-5.99601E-002	9.59999E-002	3.57920E+000	9	...........
	74	1	8.79139E-002	-9.82779E-005	0.00000E+000	-8.64000E-006	-5.99601E-002	8.79212E-002	3.57920E+000	9	...........
	75	1.01333	7.99163E-002	-9.80799E-005	0.00000E+000	-7.83819E-006	-5.99601E-002	7.99170E-002	3.57920E+000	9	...........
	76	1.02667	7.19830E-002	-9.93500E-005	0.00000E+000	-7.15151E-006	-5.99601E-002	7.19859E-002	3.57920E+000	9	...........
	77	1.04	6.41298E-002	-9.90041E-005	0.00000E+000	-6.34911E-006	-5.99601E-002	6.41269E-002	3.57920E+000	9	...........
	78	1.05333	5.63449E-002	-9.93146E-005	0.00000E+000	-5.59587E-006	-5.99601E-002	5.63406E-002	3.57920E+000	9	...........
	79	1.06667	4.86482E-002	-9.90374E-005	0.00000E+000	-4.81799E-006	-5.99601E-002	4.86399E-002	3.57907E+000	9	...........
	80	1.08	4.10279E-002	-9.84581E-005	0.00000E+000	-4.03953E-006	-5.99601E-002	4.10190E-002	3.57900E+000	9	...........
	81	1.09333	3.34486E-002	-9.89541E-005	0.00000E+000	-3.30987E-006	-5.99601E-002	3.34356E-002	3.57900E+000	9	...........
	82	1.10667	2.59380E-002	-9.91573E-005	0.00000E+000	-2.57194E-006	-5.99601E-002	2.59194E-002	3.57900E+000	9	...........
	83	1.12	1.84933E-002	-9.93333E-005	0.00000E+000	-1.83701E-006	-5.99601E-002	1.84722E-002	3.57900E+000	9	...........
	84	1.13333	1.11142E-002	-9.89593E-005	0.00000E+000	-1.09985E-006	-5.99601E-002	1.10845E-002	3.57900E+000	9	...........
	85	1.14667	3.79676E-003	-9.88874E-005	0.00000E+000	-3.75452E-007	-5.99601E-002	3.76319E-003	3.57900E+000	9	...........
	86	1.14833	-2.88452E-004	-9.72016E-005	0.00000E+000	2.80380E-008	-5.99601E-002	-3.20646E-004	3.57900E+000	9	...........
STARTTIMEOFFSET	QUANT	1710.065	Start Time Offset (s)
