EXPLAIN
TAG	PWR800_DISCHARGE
TITLE	LABEL	PWR Cyclic Charge Discharge (Cell) - Discharge Step	Test &Identifier
DATE	LABEL	13-7-2017	Date
TIME	LABEL	15:18:24	Time
NOTES	NOTES	2	&Notes...
	supercap test cell
	6M KOH
PSTAT	PSTAT	IFC5000-01520	Potentiostat
CAPACITY	QUANT	1.00000E-003	Capacity (A-hr)
CELLTYPE	SELECTOR	1	&Cell Type
WORKINGCONNECTION	SELECTOR	0	&Working Lead
MAXDISCHARGETIME	VARIABLEANDUNITS	1.00000E+002	s	1.00000E+002	second(s)	Max &Discharge Time
DISCHARGEMODE	MULTIPARAM	0	1.00000E-004	&Discharge Mode	Constant Current	Amp(s)
SAMPLETIME	QUANT	1.00000E-002	Sa&mple Period (s)
DISCHARGESTOPAT1	MULTIPARAM	3	0.00000E+000	Discharge Stop At &1	Voltage < Limit	V
DISCHARGESTOPAT2	MULTIPARAM	0	0.00000E+000	Discharge Stop At &2	None	N/A
AESBHCSELECTOR	TOGGLE	F	Save Both Half Cells
IRCOMP	TOGGLE	F	IR &Measure
EOC	QUANT	0	Open Circuit (V)
SEQUENCER	TOGGLE	TRUE	Run as Sequence
PSTATMODEL	IQUANT	53	Pstat Model
PSTATSECTION	LABEL	IFC5000-01520	Pstat Section
PSTATSERIALNO	LABEL	01520	Pstat Serial Number
CTRLMODE	IQUANT	0	Control Mode
ELECTROMETER	IQUANT	1	RE=0 or CS=1
IESTAB	IQUANT	0	I/E Stability
CASPEED	IQUANT	4	Control Amp Speed
CONVENTION	IQUANT	1	Current Convention
ICHRANGE	IQUANT	2	Ich Range
ICHRANGEMODE	TOGGLE	T	Ich Auto Range
ICHOFFSETENABLE	TOGGLE	F	Ich Offset Enable
ICHOFFSET	QUANT	0	Ich Offset (V)
ICHFILTER	IQUANT	1	Ich Filter
VCHRANGE	IQUANT	2	Vch Range
VCHRANGEMODE	TOGGLE	T	Vch Auto Range
VCHOFFSETENABLE	TOGGLE	F	Vch Offset Enable
VCHOFFSET	QUANT	0	Vch Offset (V)
VCHFILTER	IQUANT	1	Vch Filter
IERANGELOWERLIMIT	IQUANT	9	I/E Range Lower Limit
IERANGEMODE	TOGGLE	F	I/E AutoRange
IERANGE	IQUANT	9	I/E Range
ACHSELECT	IQUANT	1	Ach Select
ACHRANGE	IQUANT	2	Ach Range
ACHOFFSETENABLE	TOGGLE	F	Ach Offset Enable
ACHOFFSET	QUANT	0	Ach Offset (V)
ACHFILTER	IQUANT	1	Ach Filter
CABLEID	IQUANT	14	Cable ID
DCCALDATE	LABEL	5-7-2017	DC Calibration Date
ACCALDATE	LABEL	12/3/2015	AC Calibration Date
FRAMEWORKVERSION	QUANT	7.01	Framework Version
INSTRUMENTVERSION	LABEL	4.00	Instrument Version
CURVE	TABLE	90
	Pt	T	Vf	Im	Vu	Pwr	Sig	Ach	Temp	IERange	Over
	#	s	V	A	V	W	V	V	deg C	#	bits
	0	0.013333	8.49682E-001	-9.80935E-005	0.00000E+000	-8.33482E-005	-5.99601E-002	8.50032E-001	3.57950E+000	9	...........
	1	0.026667	8.36089E-001	-9.88218E-005	0.00000E+000	-8.26238E-005	-5.99601E-002	8.36413E-001	3.57950E+000	9	...........
	2	0.04	8.23356E-001	-9.87582E-005	0.00000E+000	-8.13131E-005	-5.99601E-002	8.23658E-001	3.57950E+000	9	...........
	3	0.053333	8.11151E-001	-9.91302E-005	0.00000E+000	-8.04096E-005	-5.99601E-002	8.11467E-001	3.57950E+000	9	...........
	4	0.066667	7.99369E-001	-9.89791E-005	0.00000E+000	-7.91209E-005	-5.99601E-002	7.99670E-001	3.57950E+000	9	...........
	5	0.08	7.87838E-001	-9.85498E-005	0.00000E+000	-7.76413E-005	-5.99601E-002	7.88140E-001	3.57950E+000	9	...........
	6	0.093333	7.76558E-001	-9.86363E-005	0.00000E+000	-7.65969E-005	-5.99601E-002	7.76869E-001	3.57950E+000	9	...........
	7	0.106667	7.65433E-001	-9.89166E-005	0.00000E+000	-7.57140E-005	-5.99601E-002	7.65746E-001	3.57950E+000	9	...........
	8	0.12	7.54439E-001	-9.91447E-005	0.00000E+000	-7.47987E-005	-5.99601E-002	7.54731E-001	3.57950E+000	9	...........
	9	0.133333	7.43549E-001	-9.90218E-005	0.00000E+000	-7.36275E-005	-5.99601E-002	7.43820E-001	3.57950E+000	9	...........
	10	0.146667	7.32702E-001	-9.84331E-005	0.00000E+000	-7.21222E-005	-5.99601E-002	7.32991E-001	3.57950E+000	9	...........
	11	0.16	7.21953E-001	-9.89218E-005	0.00000E+000	-7.14169E-005	-5.99601E-002	7.22234E-001	3.57950E+000	9	...........
	12	0.173333	7.11201E-001	-9.95115E-005	0.00000E+000	-7.07726E-005	-5.99601E-002	7.11484E-001	3.57950E+000	9	...........
	13	0.186667	7.00512E-001	-9.92833E-005	0.00000E+000	-6.95491E-005	-5.99601E-002	7.00820E-001	3.57950E+000	9	...........
	14	0.2	6.89874E-001	-9.88801E-005	0.00000E+000	-6.82148E-005	-5.99601E-002	6.90143E-001	3.57950E+000	9	...........
	15	0.213333	6.79231E-001	-9.90197E-005	0.00000E+000	-6.72573E-005	-5.99601E-002	6.79519E-001	3.57950E+000	9	...........
	16	0.226667	6.68629E-001	-9.93729E-005	0.00000E+000	-6.64436E-005	-5.99601E-002	6.68904E-001	3.57950E+000	9	...........
	17	0.24	6.58018E-001	-9.82696E-005	0.00000E+000	-6.46632E-005	-5.99601E-002	6.58292E-001	3.57950E+000	9	...........
	18	0.253333	6.47437E-001	-9.88093E-005	0.00000E+000	-6.39728E-005	-5.99601E-002	6.47677E-001	3.57950E+000	9	...........
	19	0.266667	6.36834E-001	-9.94198E-005	0.00000E+000	-6.33139E-005	-5.99601E-002	6.37098E-001	3.57950E+000	9	...........
	20	0.28	6.26289E-001	-9.79310E-005	0.00000E+000	-6.13331E-005	-5.99601E-002	6.26521E-001	3.57950E+000	9	...........
	21	0.293333	6.15714E-001	-9.87051E-005	0.00000E+000	-6.07741E-005	-5.99601E-002	6.15976E-001	3.57950E+000	9	...........
	22	0.306667	6.05136E-001	-9.94969E-005	0.00000E+000	-6.02092E-005	-5.99601E-002	6.05442E-001	3.57950E+000	9	...........
	23	0.32	5.94641E-001	-9.95730E-005	0.00000E+000	-5.92102E-005	-5.99601E-002	5.94907E-001	3.57950E+000	9	...........
	24	0.333333	5.84109E-001	-9.85790E-005	0.00000E+000	-5.75808E-005	-5.99601E-002	5.84395E-001	3.57950E+000	9	...........
	25	0.346667	5.73632E-001	-9.87322E-005	0.00000E+000	-5.66359E-005	-5.99601E-002	5.73878E-001	3.57950E+000	9	...........
	26	0.36	5.63151E-001	-9.83758E-005	0.00000E+000	-5.54004E-005	-5.99601E-002	5.63392E-001	3.57950E+000	9	...........
	27	0.373333	5.52688E-001	-9.86530E-005	0.00000E+000	-5.45243E-005	-5.99601E-002	5.52932E-001	3.57950E+000	9	...........
	28	0.386667	5.42277E-001	-9.99210E-005	0.00000E+000	-5.41848E-005	-5.99601E-002	5.42524E-001	3.57950E+000	9	...........
	29	0.4	5.31855E-001	-9.86853E-005	0.00000E+000	-5.24863E-005	-5.99601E-002	5.32107E-001	3.57950E+000	9	...........
	30	0.413333	5.21530E-001	-9.88311E-005	0.00000E+000	-5.15434E-005	-5.99601E-002	5.21740E-001	3.57950E+000	9	...........
	31	0.426667	5.11169E-001	-9.95417E-005	0.00000E+000	-5.08826E-005	-5.99601E-002	5.11398E-001	3.57950E+000	9	...........
	32	0.44	5.00862E-001	-9.92469E-005	0.00000E+000	-4.97089E-005	-5.99601E-002	5.01111E-001	3.57950E+000	9	...........
	33	0.453333	4.90633E-001	-9.90624E-005	0.00000E+000	-4.86033E-005	-5.99601E-002	4.90873E-001	3.57950E+000	9	...........
	34	0.466667	4.80737E-001	-9.91062E-005	0.00000E+000	-4.76441E-005	-5.99601E-002	4.80864E-001	3.57950E+000	9	...........
	35	0.48	4.70621E-001	-9.83112E-005	0.00000E+000	-4.62673E-005	-5.99601E-002	4.70715E-001	3.57950E+000	9	...........
	36	0.493333	4.60497E-001	-9.87488E-005	0.00000E+000	-4.54735E-005	-5.99601E-002	4.60594E-001	3.57950E+000	9	...........
	37	0.506667	4.50431E-001	-9.89405E-005	0.00000E+000	-4.45659E-005	-5.99601E-002	4.50523E-001	3.57950E+000	9	...........
	38	0.52	4.40411E-001	-9.91145E-005	0.00000E+000	-4.36511E-005	-5.99601E-002	4.40499E-001	3.57950E+000	9	...........
	39	0.533333	4.30444E-001	-9.89624E-005	0.00000E+000	-4.25978E-005	-5.99601E-002	4.30533E-001	3.57950E+000	9	...........
	40	0.546667	4.20534E-001	-1.00086E-004	0.00000E+000	-4.20893E-005	-5.99601E-002	4.20623E-001	3.57950E+000	9	...........
	41	0.56	4.10680E-001	-9.91458E-005	0.00000E+000	-4.07172E-005	-5.99601E-002	4.10760E-001	3.57950E+000	9	...........
	42	0.573333	4.00872E-001	-9.89645E-005	0.00000E+000	-3.96721E-005	-5.99601E-002	4.00952E-001	3.57950E+000	9	...........
	43	0.586667	3.91113E-001	-9.81466E-005	0.00000E+000	-3.83864E-005	-5.99601E-002	3.91196E-001	3.57950E+000	9	...........
	44	0.6	3.81416E-001	-9.89030E-005	0.00000E+000	-3.77232E-005	-5.99601E-002	3.81493E-001	3.57950E+000	9	...........
	45	0.613333	3.71764E-001	-9.88061E-005	0.00000E+000	-3.67325E-005	-5.99601E-002	3.71836E-001	3.57950E+000	9	...........
	46	0.626667	3.62161E-001	-9.86978E-005	0.00000E+000	-3.57445E-005	-5.99601E-002	3.62229E-001	3.57950E+000	9	...........
	47	0.64	3.52615E-001	-9.81247E-005	0.00000E+000	-3.46003E-005	-5.99601E-002	3.52679E-001	3.57950E+000	9	...........
	48	0.653333	3.43115E-001	-9.91020E-005	0.00000E+000	-3.40034E-005	-5.99601E-002	3.43177E-001	3.57950E+000	9	...........
	49	0.666667	3.33661E-001	-9.95230E-005	0.00000E+000	-3.32070E-005	-5.99601E-002	3.33724E-001	3.57950E+000	9	...........
	50	0.68	3.24265E-001	-9.88603E-005	0.00000E+000	-3.20570E-005	-5.99601E-002	3.24328E-001	3.57950E+000	9	...........
	51	0.693333	3.14907E-001	-9.85415E-005	0.00000E+000	-3.10314E-005	-5.99601E-002	3.14967E-001	3.57950E+000	9	...........
	52	0.706667	3.05595E-001	-9.93917E-005	0.00000E+000	-3.03736E-005	-5.99601E-002	3.05656E-001	3.57987E+000	9	...........
	53	0.72	2.96326E-001	-9.87040E-005	0.00000E+000	-2.92486E-005	-5.99601E-002	2.96386E-001	3.58010E+000	9	...........
	54	0.733333	2.87110E-001	-9.95167E-005	0.00000E+000	-2.85723E-005	-5.99601E-002	2.87164E-001	3.58010E+000	9	...........
	55	0.746667	2.77931E-001	-9.93979E-005	0.00000E+000	-2.76258E-005	-5.99601E-002	2.77984E-001	3.58010E+000	9	...........
	56	0.76	2.68797E-001	-9.88416E-005	0.00000E+000	-2.65683E-005	-5.99601E-002	2.68851E-001	3.58010E+000	9	...........
	57	0.773333	2.59702E-001	-9.93010E-005	0.00000E+000	-2.57887E-005	-5.99601E-002	2.59749E-001	3.58010E+000	9	...........
	58	0.786667	2.50648E-001	-9.87509E-005	0.00000E+000	-2.47517E-005	-5.99601E-002	2.50698E-001	3.58010E+000	9	...........
	59	0.8	2.41636E-001	-9.95032E-005	0.00000E+000	-2.40436E-005	-5.99601E-002	2.41673E-001	3.58010E+000	9	...........
	60	0.813333	2.32661E-001	-9.91343E-005	0.00000E+000	-2.30647E-005	-5.99601E-002	2.32700E-001	3.58010E+000	9	...........
	61	0.826667	2.23731E-001	-9.88134E-005	0.00000E+000	-2.21076E-005	-5.99601E-002	2.23772E-001	3.58010E+000	9	...........
	62	0.84	2.14845E-001	-9.98657E-005	0.00000E+000	-2.14557E-005	-5.99601E-002	2.14885E-001	3.58010E+000	9	...........
	63	0.853333	2.06009E-001	-9.87488E-005	0.00000E+000	-2.03431E-005	-5.99601E-002	2.06043E-001	3.58010E+000	9	...........
	64	0.866667	1.97209E-001	-9.83956E-005	0.00000E+000	-1.94045E-005	-5.99601E-002	1.97242E-001	3.58010E+000	9	...........
	65	0.88	1.88460E-001	-9.85415E-005	0.00000E+000	-1.85711E-005	-5.99601E-002	1.88488E-001	3.58010E+000	9	...........
	66	0.893333	1.79748E-001	-9.88124E-005	0.00000E+000	-1.77613E-005	-5.99601E-002	1.79784E-001	3.58010E+000	9	...........
	67	0.906667	1.71103E-001	-9.86842E-005	0.00000E+000	-1.68851E-005	-5.99601E-002	1.71128E-001	3.58010E+000	9	...........
	68	0.92	1.62503E-001	-9.87290E-005	0.00000E+000	-1.60438E-005	-5.99601E-002	1.62531E-001	3.58010E+000	9	...........
	69	0.933333	1.53965E-001	-9.88447E-005	0.00000E+000	-1.52186E-005	-5.99601E-002	1.53984E-001	3.58010E+000	9	...........
	70	0.946667	1.45480E-001	-9.93521E-005	0.00000E+000	-1.44537E-005	-5.99601E-002	1.45502E-001	3.58010E+000	9	...........
	71	0.96	1.37052E-001	-9.88895E-005	0.00000E+000	-1.35530E-005	-5.99601E-002	1.37070E-001	3.58010E+000	9	...........
	72	0.97333	1.28691E-001	-9.88749E-005	0.00000E+000	-1.27244E-005	-5.99601E-002	1.28705E-001	3.58010E+000	9	...........
	73	0.98667	1.20394E-001	-9.87436E-005	0.00000E+000	-1.18881E-005	-5.99601E-002	1.20413E-001	3.58010E+000	9	...........
	74	1	1.12168E-001	-9.91124E-005	0.00000E+000	-1.11172E-005	-5.99601E-002	1.12181E-001	3.58010E+000	9	...........
	75	1.01333	1.04008E-001	-9.86842E-005	0.00000E+000	-1.02639E-005	-5.99601E-002	1.04019E-001	3.58010E+000	9	...........
	76	1.02667	9.59123E-002	-9.85467E-005	0.00000E+000	-9.45184E-006	-5.99601E-002	9.59197E-002	3.58010E+000	9	...........
	77	1.04	8.78888E-002	-9.77924E-005	0.00000E+000	-8.59486E-006	-5.99601E-002	8.78918E-002	3.58010E+000	9	...........
	78	1.05333	7.99334E-002	-9.85311E-005	0.00000E+000	-7.87593E-006	-5.99601E-002	7.99374E-002	3.58010E+000	9	...........
	79	1.06667	7.20445E-002	-9.85769E-005	0.00000E+000	-7.10192E-006	-5.99601E-002	7.20467E-002	3.58010E+000	9	...........
	80	1.08	6.42287E-002	-9.90479E-005	0.00000E+000	-6.36172E-006	-5.99601E-002	6.42272E-002	3.58010E+000	9	...........
	81	1.09333	5.64733E-002	-9.92364E-005	0.00000E+000	-5.60420E-006	-5.99601E-002	5.64694E-002	3.58010E+000	9	...........
	82	1.10667	4.88011E-002	-9.85384E-005	0.00000E+000	-4.80878E-006	-5.99601E-002	4.87964E-002	3.58010E+000	9	...........
	83	1.12	4.12013E-002	-9.91823E-005	0.00000E+000	-4.08644E-006	-5.99601E-002	4.11950E-002	3.58010E+000	9	...........
	84	1.13333	3.36463E-002	-9.87061E-005	0.00000E+000	-3.32110E-006	-5.99601E-002	3.36317E-002	3.58010E+000	9	...........
	85	1.14667	2.61508E-002	-9.93406E-005	0.00000E+000	-2.59784E-006	-5.99601E-002	2.61319E-002	3.58010E+000	9	...........
	86	1.16	1.87206E-002	-9.88582E-005	0.00000E+000	-1.85068E-006	-5.99601E-002	1.86985E-002	3.58010E+000	9	...........
	87	1.17333	1.13508E-002	-9.84894E-005	0.00000E+000	-1.11793E-006	-5.99601E-002	1.13250E-002	3.58010E+000	9	...........
	88	1.18667	4.04103E-003	-9.92583E-005	0.00000E+000	-4.01106E-007	-5.99601E-002	4.00462E-003	3.58010E+000	9	...........
	89	1.18833	-4.21809E-005	-9.84852E-005	0.00000E+000	4.15419E-009	-5.99601E-002	-8.38861E-005	3.58010E+000	9	...........
STARTTIMEOFFSET	QUANT	741.3027	Start Time Offset (s)
