EXPLAIN
TAG	PWR800_DISCHARGE
TITLE	LABEL	PWR Cyclic Charge Discharge (Cell) - Discharge Step	Test &Identifier
DATE	LABEL	13-7-2017	Date
TIME	LABEL	15:29:07	Time
NOTES	NOTES	2	&Notes...
	supercap test cell
	6M KOH
PSTAT	PSTAT	IFC5000-01520	Potentiostat
CAPACITY	QUANT	1.00000E-003	Capacity (A-hr)
CELLTYPE	SELECTOR	1	&Cell Type
WORKINGCONNECTION	SELECTOR	0	&Working Lead
MAXDISCHARGETIME	VARIABLEANDUNITS	1.00000E+002	s	1.00000E+002	second(s)	Max &Discharge Time
DISCHARGEMODE	MULTIPARAM	0	1.00000E-004	&Discharge Mode	Constant Current	Amp(s)
SAMPLETIME	QUANT	1.00000E-002	Sa&mple Period (s)
DISCHARGESTOPAT1	MULTIPARAM	3	0.00000E+000	Discharge Stop At &1	Voltage < Limit	V
DISCHARGESTOPAT2	MULTIPARAM	0	0.00000E+000	Discharge Stop At &2	None	N/A
AESBHCSELECTOR	TOGGLE	F	Save Both Half Cells
IRCOMP	TOGGLE	F	IR &Measure
EOC	QUANT	0	Open Circuit (V)
SEQUENCER	TOGGLE	TRUE	Run as Sequence
PSTATMODEL	IQUANT	53	Pstat Model
PSTATSECTION	LABEL	IFC5000-01520	Pstat Section
PSTATSERIALNO	LABEL	01520	Pstat Serial Number
CTRLMODE	IQUANT	0	Control Mode
ELECTROMETER	IQUANT	1	RE=0 or CS=1
IESTAB	IQUANT	0	I/E Stability
CASPEED	IQUANT	4	Control Amp Speed
CONVENTION	IQUANT	1	Current Convention
ICHRANGE	IQUANT	2	Ich Range
ICHRANGEMODE	TOGGLE	T	Ich Auto Range
ICHOFFSETENABLE	TOGGLE	F	Ich Offset Enable
ICHOFFSET	QUANT	0	Ich Offset (V)
ICHFILTER	IQUANT	1	Ich Filter
VCHRANGE	IQUANT	2	Vch Range
VCHRANGEMODE	TOGGLE	T	Vch Auto Range
VCHOFFSETENABLE	TOGGLE	F	Vch Offset Enable
VCHOFFSET	QUANT	0	Vch Offset (V)
VCHFILTER	IQUANT	1	Vch Filter
IERANGELOWERLIMIT	IQUANT	9	I/E Range Lower Limit
IERANGEMODE	TOGGLE	F	I/E AutoRange
IERANGE	IQUANT	9	I/E Range
ACHSELECT	IQUANT	1	Ach Select
ACHRANGE	IQUANT	2	Ach Range
ACHOFFSETENABLE	TOGGLE	F	Ach Offset Enable
ACHOFFSET	QUANT	0	Ach Offset (V)
ACHFILTER	IQUANT	1	Ach Filter
CABLEID	IQUANT	14	Cable ID
DCCALDATE	LABEL	5-7-2017	DC Calibration Date
ACCALDATE	LABEL	12/3/2015	AC Calibration Date
FRAMEWORKVERSION	QUANT	7.01	Framework Version
INSTRUMENTVERSION	LABEL	4.00	Instrument Version
CURVE	TABLE	88
	Pt	T	Vf	Im	Vu	Pwr	Sig	Ach	Temp	IERange	Over
	#	s	V	A	V	W	V	V	deg C	#	bits
	0	0.013333	8.48754E-001	-9.88718E-005	0.00000E+000	-8.39178E-005	-5.99601E-002	8.49093E-001	3.57920E+000	9	...........
	1	0.026667	8.34799E-001	-9.80310E-005	0.00000E+000	-8.18361E-005	-5.99601E-002	8.35125E-001	3.57920E+000	9	...........
	2	0.04	8.21691E-001	-9.89489E-005	0.00000E+000	-8.13054E-005	-5.99601E-002	8.22011E-001	3.57920E+000	9	...........
	3	0.053333	8.09147E-001	-9.90635E-005	0.00000E+000	-8.01569E-005	-5.99601E-002	8.09442E-001	3.57920E+000	9	...........
	4	0.066667	7.97016E-001	-9.94729E-005	0.00000E+000	-7.92815E-005	-5.99601E-002	7.97305E-001	3.57920E+000	9	...........
	5	0.08	7.85174E-001	-9.89426E-005	0.00000E+000	-7.76872E-005	-5.99601E-002	7.85465E-001	3.57920E+000	9	...........
	6	0.093333	7.73537E-001	-9.93573E-005	0.00000E+000	-7.68566E-005	-5.99601E-002	7.73840E-001	3.57920E+000	9	...........
	7	0.106667	7.62066E-001	-9.84467E-005	0.00000E+000	-7.50228E-005	-5.99601E-002	7.62355E-001	3.57920E+000	9	...........
	8	0.12	7.50729E-001	-9.95323E-005	0.00000E+000	-7.47218E-005	-5.99601E-002	7.51030E-001	3.57920E+000	9	...........
	9	0.133333	7.39478E-001	-9.93187E-005	0.00000E+000	-7.34441E-005	-5.99601E-002	7.39766E-001	3.57920E+000	9	...........
	10	0.146667	7.28324E-001	-9.87957E-005	0.00000E+000	-7.19553E-005	-5.99601E-002	7.28598E-001	3.57920E+000	9	...........
	11	0.16	7.17208E-001	-9.86769E-005	0.00000E+000	-7.07719E-005	-5.99601E-002	7.17478E-001	3.57920E+000	9	...........
	12	0.173333	7.06114E-001	-9.85696E-005	0.00000E+000	-6.96014E-005	-5.99601E-002	7.06390E-001	3.57920E+000	9	...........
	13	0.186667	6.95098E-001	-9.88634E-005	0.00000E+000	-6.87198E-005	-5.99601E-002	6.95344E-001	3.57920E+000	9	...........
	14	0.2	6.84109E-001	-9.89593E-005	0.00000E+000	-6.76990E-005	-5.99601E-002	6.84337E-001	3.57920E+000	9	...........
	15	0.213333	6.73133E-001	-9.88030E-005	0.00000E+000	-6.65075E-005	-5.99601E-002	6.73363E-001	3.57920E+000	9	...........
	16	0.226667	6.62161E-001	-1.00053E-004	0.00000E+000	-6.62514E-005	-5.99601E-002	6.62422E-001	3.57920E+000	9	...........
	17	0.24	6.51220E-001	-9.85029E-005	0.00000E+000	-6.41471E-005	-5.99601E-002	6.51488E-001	3.57920E+000	9	...........
	18	0.253333	6.40304E-001	-9.91343E-005	0.00000E+000	-6.34761E-005	-5.99601E-002	6.40583E-001	3.57920E+000	9	...........
	19	0.266667	6.29390E-001	-9.79268E-005	0.00000E+000	-6.16342E-005	-5.99601E-002	6.29672E-001	3.57920E+000	9	...........
	20	0.28	6.18530E-001	-9.88301E-005	0.00000E+000	-6.11294E-005	-5.99601E-002	6.18783E-001	3.57920E+000	9	...........
	21	0.293333	6.07590E-001	-9.91802E-005	0.00000E+000	-6.02609E-005	-5.99601E-002	6.07901E-001	3.57920E+000	9	...........
	22	0.306667	5.96761E-001	-9.95584E-005	0.00000E+000	-5.94125E-005	-5.99601E-002	5.97057E-001	3.57920E+000	9	...........
	23	0.32	5.85942E-001	-9.99960E-005	0.00000E+000	-5.85918E-005	-5.99601E-002	5.86221E-001	3.57920E+000	9	...........
	24	0.333333	5.75152E-001	-9.93792E-005	0.00000E+000	-5.71581E-005	-5.99601E-002	5.75415E-001	3.57920E+000	9	...........
	25	0.346667	5.64363E-001	-9.91739E-005	0.00000E+000	-5.59700E-005	-5.99601E-002	5.64659E-001	3.57920E+000	9	...........
	26	0.36	5.53596E-001	-9.93229E-005	0.00000E+000	-5.49848E-005	-5.99601E-002	5.53882E-001	3.57920E+000	9	...........
	27	0.373333	5.42930E-001	-9.85009E-005	0.00000E+000	-5.34790E-005	-5.99601E-002	5.43184E-001	3.57920E+000	9	...........
	28	0.386667	5.32214E-001	-9.89270E-005	0.00000E+000	-5.26504E-005	-5.99601E-002	5.32472E-001	3.57920E+000	9	...........
	29	0.4	5.21597E-001	-9.86040E-005	0.00000E+000	-5.14315E-005	-5.99601E-002	5.21849E-001	3.57920E+000	9	...........
	30	0.413333	5.10964E-001	-9.88749E-005	0.00000E+000	-5.05215E-005	-5.99601E-002	5.11244E-001	3.57920E+000	9	...........
	31	0.426667	5.00414E-001	-9.83112E-005	0.00000E+000	-4.91963E-005	-5.99601E-002	5.00693E-001	3.57920E+000	9	...........
	32	0.44	4.89926E-001	-9.85790E-005	0.00000E+000	-4.82964E-005	-5.99601E-002	4.90171E-001	3.57920E+000	9	...........
	33	0.453333	4.79818E-001	-9.85738E-005	0.00000E+000	-4.72975E-005	-5.99601E-002	4.79894E-001	3.57920E+000	9	...........
	34	0.466667	4.69419E-001	-9.88739E-005	0.00000E+000	-4.64132E-005	-5.99601E-002	4.69515E-001	3.57920E+000	9	...........
	35	0.48	4.59068E-001	-9.87874E-005	0.00000E+000	-4.53501E-005	-5.99601E-002	4.59167E-001	3.57920E+000	9	...........
	36	0.493333	4.48784E-001	-9.88093E-005	0.00000E+000	-4.43440E-005	-5.99601E-002	4.48873E-001	3.57920E+000	9	...........
	37	0.506667	4.38560E-001	-9.79601E-005	0.00000E+000	-4.29614E-005	-5.99601E-002	4.38652E-001	3.57920E+000	9	...........
	38	0.52	4.28378E-001	-9.88374E-005	0.00000E+000	-4.23398E-005	-5.99601E-002	4.28474E-001	3.57920E+000	9	...........
	39	0.533333	4.18272E-001	-9.92833E-005	0.00000E+000	-4.15274E-005	-5.99601E-002	4.18359E-001	3.57920E+000	9	...........
	40	0.546667	4.08223E-001	-9.90718E-005	0.00000E+000	-4.04434E-005	-5.99601E-002	4.08309E-001	3.57920E+000	9	...........
	41	0.56	3.98240E-001	-9.93615E-005	0.00000E+000	-3.95697E-005	-5.99601E-002	3.98317E-001	3.57920E+000	9	...........
	42	0.573333	3.88306E-001	-9.92719E-005	0.00000E+000	-3.85479E-005	-5.99601E-002	3.88376E-001	3.57920E+000	9	...........
	43	0.586667	3.78440E-001	-9.83310E-005	0.00000E+000	-3.72124E-005	-5.99601E-002	3.78512E-001	3.57920E+000	9	...........
	44	0.6	3.68625E-001	-9.84540E-005	0.00000E+000	-3.62926E-005	-5.99601E-002	3.68698E-001	3.57920E+000	9	...........
	45	0.613333	3.58875E-001	-9.77351E-005	0.00000E+000	-3.50746E-005	-5.99601E-002	3.58940E-001	3.57920E+000	9	...........
	46	0.626667	3.49178E-001	-9.84102E-005	0.00000E+000	-3.43627E-005	-5.99601E-002	3.49242E-001	3.57920E+000	9	...........
	47	0.64	3.39536E-001	-9.82060E-005	0.00000E+000	-3.33444E-005	-5.99601E-002	3.39595E-001	3.57920E+000	9	...........
	48	0.653333	3.29951E-001	-9.88061E-005	0.00000E+000	-3.26012E-005	-5.99601E-002	3.30011E-001	3.57920E+000	9	...........
	49	0.666667	3.20413E-001	-9.97084E-005	0.00000E+000	-3.19479E-005	-5.99601E-002	3.20476E-001	3.57920E+000	9	...........
	50	0.68	3.10932E-001	-9.92844E-005	0.00000E+000	-3.08707E-005	-5.99601E-002	3.10990E-001	3.57920E+000	9	...........
	51	0.693333	3.01496E-001	-9.86665E-005	0.00000E+000	-2.97476E-005	-5.99601E-002	3.01552E-001	3.57920E+000	9	...........
	52	0.706667	2.92113E-001	-9.90656E-005	0.00000E+000	-2.89383E-005	-5.99601E-002	2.92165E-001	3.57920E+000	9	...........
	53	0.72	2.82775E-001	-9.88999E-005	0.00000E+000	-2.79664E-005	-5.99601E-002	2.82821E-001	3.57920E+000	9	...........
	54	0.733333	2.73483E-001	-9.96574E-005	0.00000E+000	-2.72546E-005	-5.99601E-002	2.73535E-001	3.57920E+000	9	...........
	55	0.746667	2.64242E-001	-9.85280E-005	0.00000E+000	-2.60353E-005	-5.99601E-002	2.64287E-001	3.57920E+000	9	...........
	56	0.76	2.55039E-001	-9.85738E-005	0.00000E+000	-2.51402E-005	-5.99601E-002	2.55086E-001	3.57920E+000	9	...........
	57	0.773333	2.45886E-001	-9.93062E-005	0.00000E+000	-2.44180E-005	-5.99601E-002	2.45928E-001	3.57920E+000	9	...........
	58	0.786667	2.36780E-001	-9.84311E-005	0.00000E+000	-2.33065E-005	-5.99601E-002	2.36816E-001	3.57920E+000	9	...........
	59	0.8	2.27717E-001	-9.96511E-005	0.00000E+000	-2.26923E-005	-5.99601E-002	2.27754E-001	3.57920E+000	9	...........
	60	0.813333	2.18698E-001	-9.83081E-005	0.00000E+000	-2.14998E-005	-5.99601E-002	2.18734E-001	3.57920E+000	9	...........
	61	0.826667	2.09731E-001	-9.87561E-005	0.00000E+000	-2.07122E-005	-5.99601E-002	2.09763E-001	3.57920E+000	9	...........
	62	0.84	2.00815E-001	-9.95646E-005	0.00000E+000	-1.99940E-005	-5.99601E-002	2.00844E-001	3.57920E+000	9	...........
	63	0.853333	1.91948E-001	-9.84144E-005	0.00000E+000	-1.88905E-005	-5.99601E-002	1.91970E-001	3.57920E+000	9	...........
	64	0.866667	1.83133E-001	-9.87895E-005	0.00000E+000	-1.80916E-005	-5.99601E-002	1.83157E-001	3.57920E+000	9	...........
	65	0.88	1.74377E-001	-9.95646E-005	0.00000E+000	-1.73618E-005	-5.99601E-002	1.74399E-001	3.58000E+000	9	...........
	66	0.893333	1.65682E-001	-9.85029E-005	0.00000E+000	-1.63201E-005	-5.99601E-002	1.65702E-001	3.58000E+000	9	...........
	67	0.906667	1.57046E-001	-1.00376E-004	0.00000E+000	-1.57637E-005	-5.99601E-002	1.57062E-001	3.58000E+000	9	...........
	68	0.92	1.48466E-001	-9.93000E-005	0.00000E+000	-1.47427E-005	-5.99601E-002	1.48482E-001	3.58000E+000	9	...........
	69	0.933333	1.39963E-001	-9.97417E-005	0.00000E+000	-1.39601E-005	-5.99601E-002	1.39976E-001	3.58000E+000	9	...........
	70	0.946667	1.31522E-001	-9.90354E-005	0.00000E+000	-1.30253E-005	-5.99601E-002	1.31534E-001	3.58000E+000	9	...........
	71	0.96	1.23145E-001	-9.90656E-005	0.00000E+000	-1.21994E-005	-5.99601E-002	1.23159E-001	3.58000E+000	9	...........
	72	0.97333	1.14850E-001	-9.88291E-005	0.00000E+000	-1.13505E-005	-5.99601E-002	1.14860E-001	3.58000E+000	9	...........
	73	0.98667	1.06625E-001	-9.85530E-005	0.00000E+000	-1.05082E-005	-5.99601E-002	1.06632E-001	3.58000E+000	9	...........
	74	1	9.84612E-002	-9.95198E-005	0.00000E+000	-9.79884E-006	-5.99601E-002	9.84751E-002	3.58000E+000	9	...........
	75	1.01333	9.03831E-002	-9.89510E-005	0.00000E+000	-8.94350E-006	-5.99601E-002	9.03911E-002	3.58000E+000	9	...........
	76	1.02667	8.23643E-002	-9.81675E-005	0.00000E+000	-8.08550E-006	-5.99601E-002	8.23694E-002	3.58000E+000	9	...........
	77	1.04	7.44276E-002	-9.88332E-005	0.00000E+000	-7.35592E-006	-5.99601E-002	7.44236E-002	3.58000E+000	9	...........
	78	1.05333	6.65522E-002	-9.92896E-005	0.00000E+000	-6.60794E-006	-5.99601E-002	6.65552E-002	3.58000E+000	9	...........
	79	1.06667	5.87550E-002	-9.96501E-005	0.00000E+000	-5.85494E-006	-5.99601E-002	5.87509E-002	3.58000E+000	9	...........
	80	1.08	5.10277E-002	-9.89676E-005	0.00000E+000	-5.05009E-006	-5.99601E-002	5.10205E-002	3.58000E+000	9	...........
	81	1.09333	4.33995E-002	-9.87905E-005	0.00000E+000	-4.28746E-006	-5.99601E-002	4.33904E-002	3.58000E+000	9	...........
	82	1.10667	3.58049E-002	-9.82685E-005	0.00000E+000	-3.51850E-006	-5.99601E-002	3.57918E-002	3.58000E+000	9	...........
	83	1.12	2.82751E-002	-9.83456E-005	0.00000E+000	-2.78073E-006	-5.99601E-002	2.82598E-002	3.58000E+000	9	...........
	84	1.13333	2.08132E-002	-9.85790E-005	0.00000E+000	-2.05175E-006	-5.99601E-002	2.07955E-002	3.58000E+000	9	...........
	85	1.14667	1.34120E-002	-9.89499E-005	0.00000E+000	-1.32711E-006	-5.99601E-002	1.33859E-002	3.58000E+000	9	...........
	86	1.16	6.07855E-003	-9.92260E-005	0.00000E+000	-6.03151E-007	-5.99601E-002	6.04179E-003	3.58000E+000	9	...........
	87	1.16667	6.12666E-004	-9.85519E-005	0.00000E+000	-6.03794E-008	-5.99601E-002	5.84196E-004	3.58000E+000	9	...........
STARTTIMEOFFSET	QUANT	1226.709	Start Time Offset (s)
