EXPLAIN
TAG	PWR800_DISCHARGE
TITLE	LABEL	PWR Cyclic Charge Discharge (Cell) - Discharge Step	Test &Identifier
DATE	LABEL	13-7-2017	Date
TIME	LABEL	15:25:41	Time
NOTES	NOTES	2	&Notes...
	supercap test cell
	6M KOH
PSTAT	PSTAT	IFC5000-01520	Potentiostat
CAPACITY	QUANT	1.00000E-003	Capacity (A-hr)
CELLTYPE	SELECTOR	1	&Cell Type
WORKINGCONNECTION	SELECTOR	0	&Working Lead
MAXDISCHARGETIME	VARIABLEANDUNITS	1.00000E+002	s	1.00000E+002	second(s)	Max &Discharge Time
DISCHARGEMODE	MULTIPARAM	0	1.00000E-004	&Discharge Mode	Constant Current	Amp(s)
SAMPLETIME	QUANT	1.00000E-002	Sa&mple Period (s)
DISCHARGESTOPAT1	MULTIPARAM	3	0.00000E+000	Discharge Stop At &1	Voltage < Limit	V
DISCHARGESTOPAT2	MULTIPARAM	0	0.00000E+000	Discharge Stop At &2	None	N/A
AESBHCSELECTOR	TOGGLE	F	Save Both Half Cells
IRCOMP	TOGGLE	F	IR &Measure
EOC	QUANT	0	Open Circuit (V)
SEQUENCER	TOGGLE	TRUE	Run as Sequence
PSTATMODEL	IQUANT	53	Pstat Model
PSTATSECTION	LABEL	IFC5000-01520	Pstat Section
PSTATSERIALNO	LABEL	01520	Pstat Serial Number
CTRLMODE	IQUANT	0	Control Mode
ELECTROMETER	IQUANT	1	RE=0 or CS=1
IESTAB	IQUANT	0	I/E Stability
CASPEED	IQUANT	4	Control Amp Speed
CONVENTION	IQUANT	1	Current Convention
ICHRANGE	IQUANT	2	Ich Range
ICHRANGEMODE	TOGGLE	T	Ich Auto Range
ICHOFFSETENABLE	TOGGLE	F	Ich Offset Enable
ICHOFFSET	QUANT	0	Ich Offset (V)
ICHFILTER	IQUANT	1	Ich Filter
VCHRANGE	IQUANT	2	Vch Range
VCHRANGEMODE	TOGGLE	T	Vch Auto Range
VCHOFFSETENABLE	TOGGLE	F	Vch Offset Enable
VCHOFFSET	QUANT	0	Vch Offset (V)
VCHFILTER	IQUANT	1	Vch Filter
IERANGELOWERLIMIT	IQUANT	9	I/E Range Lower Limit
IERANGEMODE	TOGGLE	F	I/E AutoRange
IERANGE	IQUANT	9	I/E Range
ACHSELECT	IQUANT	1	Ach Select
ACHRANGE	IQUANT	2	Ach Range
ACHOFFSETENABLE	TOGGLE	F	Ach Offset Enable
ACHOFFSET	QUANT	0	Ach Offset (V)
ACHFILTER	IQUANT	1	Ach Filter
CABLEID	IQUANT	14	Cable ID
DCCALDATE	LABEL	5-7-2017	DC Calibration Date
ACCALDATE	LABEL	12/3/2015	AC Calibration Date
FRAMEWORKVERSION	QUANT	7.01	Framework Version
INSTRUMENTVERSION	LABEL	4.00	Instrument Version
CURVE	TABLE	88
	Pt	T	Vf	Im	Vu	Pwr	Sig	Ach	Temp	IERange	Over
	#	s	V	A	V	W	V	V	deg C	#	bits
	0	0.013333	8.49916E-001	-9.90979E-005	0.00000E+000	-8.42248E-005	-5.99601E-002	8.50236E-001	3.57990E+000	9	...........
	1	0.026667	8.36058E-001	-9.80299E-005	0.00000E+000	-8.19587E-005	-5.99601E-002	8.36377E-001	3.57990E+000	9	...........
	2	0.04	8.23104E-001	-9.88853E-005	0.00000E+000	-8.13929E-005	-5.99601E-002	8.23405E-001	3.57990E+000	9	...........
	3	0.053333	8.10662E-001	-9.89510E-005	0.00000E+000	-8.02158E-005	-5.99601E-002	8.10945E-001	3.57990E+000	9	...........
	4	0.066667	7.98685E-001	-9.94219E-005	0.00000E+000	-7.94068E-005	-5.99601E-002	7.98930E-001	3.57990E+000	9	...........
	5	0.08	7.86904E-001	-9.85332E-005	0.00000E+000	-7.75361E-005	-5.99601E-002	7.87187E-001	3.57990E+000	9	...........
	6	0.093333	7.75404E-001	-9.86051E-005	0.00000E+000	-7.64588E-005	-5.99601E-002	7.75685E-001	3.57990E+000	9	...........
	7	0.106667	7.64046E-001	-9.84769E-005	0.00000E+000	-7.52409E-005	-5.99601E-002	7.64309E-001	3.57990E+000	9	...........
	8	0.12	7.52816E-001	-9.82519E-005	0.00000E+000	-7.39656E-005	-5.99601E-002	7.53090E-001	3.57990E+000	9	...........
	9	0.133333	7.41657E-001	-9.84842E-005	0.00000E+000	-7.30415E-005	-5.99601E-002	7.41964E-001	3.57990E+000	9	...........
	10	0.146667	7.30608E-001	-9.86967E-005	0.00000E+000	-7.21086E-005	-5.99601E-002	7.30879E-001	3.57929E+000	9	...........
	11	0.16	7.19596E-001	-9.92667E-005	0.00000E+000	-7.14319E-005	-5.99601E-002	7.19890E-001	3.57850E+000	9	...........
	12	0.173333	7.08616E-001	-9.85946E-005	0.00000E+000	-6.98657E-005	-5.99601E-002	7.08915E-001	3.57850E+000	9	...........
	13	0.186667	6.97699E-001	-9.86686E-005	0.00000E+000	-6.88410E-005	-5.99601E-002	6.97984E-001	3.57850E+000	9	...........
	14	0.2	6.86787E-001	-9.92135E-005	0.00000E+000	-6.81385E-005	-5.99601E-002	6.87094E-001	3.57850E+000	9	...........
	15	0.213333	6.75944E-001	-9.83060E-005	0.00000E+000	-6.64493E-005	-5.99601E-002	6.76220E-001	3.57850E+000	9	...........
	16	0.226667	6.65067E-001	-9.85998E-005	0.00000E+000	-6.55755E-005	-5.99601E-002	6.65369E-001	3.57850E+000	9	...........
	17	0.24	6.54237E-001	-9.87572E-005	0.00000E+000	-6.46106E-005	-5.99601E-002	6.54524E-001	3.57850E+000	9	...........
	18	0.253333	6.43385E-001	-9.86571E-005	0.00000E+000	-6.34746E-005	-5.99601E-002	6.43684E-001	3.57850E+000	9	...........
	19	0.266667	6.32578E-001	-9.84904E-005	0.00000E+000	-6.23029E-005	-5.99601E-002	6.32857E-001	3.57850E+000	9	...........
	20	0.28	6.21812E-001	-9.87613E-005	0.00000E+000	-6.14110E-005	-5.99601E-002	6.22066E-001	3.57850E+000	9	...........
	21	0.293333	6.10994E-001	-9.94907E-005	0.00000E+000	-6.07881E-005	-5.99601E-002	6.11291E-001	3.57850E+000	9	...........
	22	0.306667	6.00219E-001	-9.85894E-005	0.00000E+000	-5.91753E-005	-5.99601E-002	6.00532E-001	3.57850E+000	9	...........
	23	0.32	5.89501E-001	-9.80549E-005	0.00000E+000	-5.78034E-005	-5.99601E-002	5.89786E-001	3.57850E+000	9	...........
	24	0.333333	5.78773E-001	-9.82018E-005	0.00000E+000	-5.68366E-005	-5.99601E-002	5.79040E-001	3.57850E+000	9	...........
	25	0.346667	5.68093E-001	-9.94771E-005	0.00000E+000	-5.65122E-005	-5.99601E-002	5.68348E-001	3.57850E+000	9	...........
	26	0.36	5.57380E-001	-9.97334E-005	0.00000E+000	-5.55894E-005	-5.99601E-002	5.57680E-001	3.57850E+000	9	...........
	27	0.373333	5.46770E-001	-9.83779E-005	0.00000E+000	-5.37901E-005	-5.99601E-002	5.47026E-001	3.57850E+000	9	...........
	28	0.386667	5.36146E-001	-9.85082E-005	0.00000E+000	-5.28147E-005	-5.99601E-002	5.36406E-001	3.57850E+000	9	...........
	29	0.4	5.25579E-001	-9.99043E-005	0.00000E+000	-5.25076E-005	-5.99601E-002	5.25822E-001	3.57850E+000	9	...........
	30	0.413333	5.15044E-001	-9.81362E-005	0.00000E+000	-5.05445E-005	-5.99601E-002	5.15275E-001	3.57850E+000	9	...........
	31	0.426667	5.04493E-001	-9.82060E-005	0.00000E+000	-4.95442E-005	-5.99601E-002	5.04754E-001	3.57850E+000	9	...........
	32	0.44	4.94068E-001	-9.86311E-005	0.00000E+000	-4.87304E-005	-5.99601E-002	4.94311E-001	3.57850E+000	9	...........
	33	0.453333	4.83847E-001	-9.85613E-005	0.00000E+000	-4.76886E-005	-5.99601E-002	4.84026E-001	3.57850E+000	9	...........
	34	0.466667	4.73678E-001	-9.87551E-005	0.00000E+000	-4.67781E-005	-5.99601E-002	4.73782E-001	3.57850E+000	9	...........
	35	0.48	4.63376E-001	-9.84863E-005	0.00000E+000	-4.56362E-005	-5.99601E-002	4.63472E-001	3.57850E+000	9	...........
	36	0.493333	4.53121E-001	-9.95990E-005	0.00000E+000	-4.51304E-005	-5.99601E-002	4.53219E-001	3.57850E+000	9	...........
	37	0.506667	4.42921E-001	-9.99585E-005	0.00000E+000	-4.42737E-005	-5.99601E-002	4.43019E-001	3.57850E+000	9	...........
	38	0.52	4.32790E-001	-9.86144E-005	0.00000E+000	-4.26793E-005	-5.99601E-002	4.32876E-001	3.57850E+000	9	...........
	39	0.533333	4.22702E-001	-9.90135E-005	0.00000E+000	-4.18532E-005	-5.99601E-002	4.22792E-001	3.57850E+000	9	...........
	40	0.546667	4.12683E-001	-9.89239E-005	0.00000E+000	-4.08242E-005	-5.99601E-002	4.12765E-001	3.57850E+000	9	...........
	41	0.56	4.02722E-001	-9.84029E-005	0.00000E+000	-3.96290E-005	-5.99601E-002	4.02801E-001	3.57850E+000	9	...........
	42	0.573333	3.92819E-001	-9.91062E-005	0.00000E+000	-3.89308E-005	-5.99601E-002	3.92898E-001	3.57850E+000	9	...........
	43	0.586667	3.82967E-001	-9.90614E-005	0.00000E+000	-3.79372E-005	-5.99601E-002	3.83042E-001	3.57850E+000	9	...........
	44	0.6	3.73178E-001	-9.88270E-005	0.00000E+000	-3.68801E-005	-5.99601E-002	3.73257E-001	3.57850E+000	9	...........
	45	0.613333	3.63446E-001	-9.80216E-005	0.00000E+000	-3.56255E-005	-5.99601E-002	3.63518E-001	3.57850E+000	9	...........
	46	0.626667	3.53766E-001	-9.83321E-005	0.00000E+000	-3.47866E-005	-5.99601E-002	3.53837E-001	3.57850E+000	9	...........
	47	0.64	3.44142E-001	-9.86446E-005	0.00000E+000	-3.39478E-005	-5.99601E-002	3.44210E-001	3.57850E+000	9	...........
	48	0.653333	3.34567E-001	-9.92667E-005	0.00000E+000	-3.32114E-005	-5.99601E-002	3.34632E-001	3.57850E+000	9	...........
	49	0.666667	3.25052E-001	-9.88061E-005	0.00000E+000	-3.21172E-005	-5.99601E-002	3.25116E-001	3.57850E+000	9	...........
	50	0.68	3.15586E-001	-9.91072E-005	0.00000E+000	-3.12768E-005	-5.99601E-002	3.15649E-001	3.57850E+000	9	...........
	51	0.693333	3.06162E-001	-9.86228E-005	0.00000E+000	-3.01945E-005	-5.99601E-002	3.06225E-001	3.57850E+000	9	...........
	52	0.706667	2.96791E-001	-9.87343E-005	0.00000E+000	-2.93034E-005	-5.99601E-002	2.96853E-001	3.57850E+000	9	...........
	53	0.72	2.87463E-001	-9.81685E-005	0.00000E+000	-2.82198E-005	-5.99601E-002	2.87517E-001	3.57850E+000	9	...........
	54	0.733333	2.78188E-001	-9.88895E-005	0.00000E+000	-2.75099E-005	-5.99601E-002	2.78239E-001	3.57850E+000	9	...........
	55	0.746667	2.68950E-001	-9.98261E-005	0.00000E+000	-2.68482E-005	-5.99601E-002	2.69003E-001	3.57850E+000	9	...........
	56	0.76	2.59755E-001	-9.89947E-005	0.00000E+000	-2.57143E-005	-5.99601E-002	2.59804E-001	3.57850E+000	9	...........
	57	0.773333	2.50609E-001	-9.90843E-005	0.00000E+000	-2.48314E-005	-5.99601E-002	2.50660E-001	3.57850E+000	9	...........
	58	0.786667	2.41507E-001	-9.88405E-005	0.00000E+000	-2.38707E-005	-5.99601E-002	2.41550E-001	3.57850E+000	9	...........
	59	0.8	2.32444E-001	-9.80226E-005	0.00000E+000	-2.27848E-005	-5.99601E-002	2.32482E-001	3.57850E+000	9	...........
	60	0.813333	2.23428E-001	-9.80143E-005	0.00000E+000	-2.18992E-005	-5.99601E-002	2.23468E-001	3.57850E+000	9	...........
	61	0.826667	2.14460E-001	-9.87551E-005	0.00000E+000	-2.11791E-005	-5.99601E-002	2.14502E-001	3.57850E+000	9	...........
	62	0.84	2.05537E-001	-9.83081E-005	0.00000E+000	-2.02060E-005	-5.99601E-002	2.05574E-001	3.57850E+000	9	...........
	63	0.853333	1.96667E-001	-9.86624E-005	0.00000E+000	-1.94037E-005	-5.99601E-002	1.96701E-001	3.57850E+000	9	...........
	64	0.866667	1.87842E-001	-9.90687E-005	0.00000E+000	-1.86093E-005	-5.99601E-002	1.87880E-001	3.57850E+000	9	...........
	65	0.88	1.79070E-001	-9.91854E-005	0.00000E+000	-1.77612E-005	-5.99601E-002	1.79106E-001	3.57850E+000	9	...........
	66	0.893333	1.70361E-001	-9.88884E-005	0.00000E+000	-1.68467E-005	-5.99601E-002	1.70392E-001	3.57850E+000	9	...........
	67	0.906667	1.61710E-001	-9.94083E-005	0.00000E+000	-1.60753E-005	-5.99601E-002	1.61737E-001	3.57850E+000	9	...........
	68	0.92	1.53116E-001	-9.96594E-005	0.00000E+000	-1.52595E-005	-5.99601E-002	1.53144E-001	3.57850E+000	9	...........
	69	0.933333	1.44584E-001	-9.90885E-005	0.00000E+000	-1.43266E-005	-5.99601E-002	1.44608E-001	3.57850E+000	9	...........
	70	0.946667	1.36123E-001	-9.85686E-005	0.00000E+000	-1.34174E-005	-5.99601E-002	1.36138E-001	3.57850E+000	9	...........
	71	0.96	1.27721E-001	-9.88780E-005	0.00000E+000	-1.26288E-005	-5.99601E-002	1.27736E-001	3.57850E+000	9	...........
	72	0.97333	1.19386E-001	-9.96438E-005	0.00000E+000	-1.18961E-005	-5.99601E-002	1.19403E-001	3.57850E+000	9	...........
	73	0.98667	1.11129E-001	-1.00029E-004	0.00000E+000	-1.11162E-005	-5.99601E-002	1.11143E-001	3.57850E+000	9	...........
	74	1	1.02937E-001	-9.87686E-005	0.00000E+000	-1.01669E-005	-5.99601E-002	1.02950E-001	3.57850E+000	9	...........
	75	1.01333	9.48190E-002	-9.95271E-005	0.00000E+000	-9.43706E-006	-5.99601E-002	9.48282E-002	3.57850E+000	9	...........
	76	1.02667	8.67669E-002	-9.97094E-005	0.00000E+000	-8.65148E-006	-5.99601E-002	8.67783E-002	3.57850E+000	9	...........
	77	1.04	7.87991E-002	-9.88968E-005	0.00000E+000	-7.79297E-006	-5.99601E-002	7.87960E-002	3.57850E+000	9	...........
	78	1.05333	7.08920E-002	-9.92489E-005	0.00000E+000	-7.03595E-006	-5.99601E-002	7.08846E-002	3.57850E+000	9	...........
	79	1.06667	6.30514E-002	-9.84821E-005	0.00000E+000	-6.20944E-006	-5.99601E-002	6.30487E-002	3.57850E+000	9	...........
	80	1.08	5.52810E-002	-9.89134E-005	0.00000E+000	-5.46803E-006	-5.99601E-002	5.52724E-002	3.57850E+000	9	...........
	81	1.09333	4.75913E-002	-9.85207E-005	0.00000E+000	-4.68873E-006	-5.99601E-002	4.75879E-002	3.57850E+000	9	...........
	82	1.10667	3.99839E-002	-9.83092E-005	0.00000E+000	-3.93079E-006	-5.99601E-002	3.99705E-002	3.57850E+000	9	...........
	83	1.12	3.24110E-002	-9.79164E-005	0.00000E+000	-3.17357E-006	-5.99601E-002	3.23946E-002	3.57850E+000	9	...........
	84	1.13333	2.49042E-002	-9.89239E-005	0.00000E+000	-2.46362E-006	-5.99601E-002	2.48813E-002	3.57850E+000	9	...........
	85	1.14667	1.74632E-002	-9.82175E-005	0.00000E+000	-1.71519E-006	-5.99601E-002	1.74406E-002	3.57850E+000	9	...........
	86	1.16	1.00877E-002	-9.83675E-005	0.00000E+000	-9.92298E-007	-5.99601E-002	1.00557E-002	3.57850E+000	9	...........
	87	1.17333	2.77247E-003	-9.99230E-005	0.00000E+000	-2.77034E-007	-5.99601E-002	2.73933E-003	3.57850E+000	9	...........
STARTTIMEOFFSET	QUANT	1070.914	Start Time Offset (s)
