EXPLAIN
TAG	PWR800_DISCHARGE
TITLE	LABEL	PWR Cyclic Charge Discharge (Cell) - Discharge Step	Test &Identifier
DATE	LABEL	13-7-2017	Date
TIME	LABEL	15:30:46	Time
NOTES	NOTES	2	&Notes...
	supercap test cell
	6M KOH
PSTAT	PSTAT	IFC5000-01520	Potentiostat
CAPACITY	QUANT	1.00000E-003	Capacity (A-hr)
CELLTYPE	SELECTOR	1	&Cell Type
WORKINGCONNECTION	SELECTOR	0	&Working Lead
MAXDISCHARGETIME	VARIABLEANDUNITS	1.00000E+002	s	1.00000E+002	second(s)	Max &Discharge Time
DISCHARGEMODE	MULTIPARAM	0	1.00000E-004	&Discharge Mode	Constant Current	Amp(s)
SAMPLETIME	QUANT	1.00000E-002	Sa&mple Period (s)
DISCHARGESTOPAT1	MULTIPARAM	3	0.00000E+000	Discharge Stop At &1	Voltage < Limit	V
DISCHARGESTOPAT2	MULTIPARAM	0	0.00000E+000	Discharge Stop At &2	None	N/A
AESBHCSELECTOR	TOGGLE	F	Save Both Half Cells
IRCOMP	TOGGLE	F	IR &Measure
EOC	QUANT	0	Open Circuit (V)
SEQUENCER	TOGGLE	TRUE	Run as Sequence
PSTATMODEL	IQUANT	53	Pstat Model
PSTATSECTION	LABEL	IFC5000-01520	Pstat Section
PSTATSERIALNO	LABEL	01520	Pstat Serial Number
CTRLMODE	IQUANT	0	Control Mode
ELECTROMETER	IQUANT	1	RE=0 or CS=1
IESTAB	IQUANT	0	I/E Stability
CASPEED	IQUANT	4	Control Amp Speed
CONVENTION	IQUANT	1	Current Convention
ICHRANGE	IQUANT	2	Ich Range
ICHRANGEMODE	TOGGLE	T	Ich Auto Range
ICHOFFSETENABLE	TOGGLE	F	Ich Offset Enable
ICHOFFSET	QUANT	0	Ich Offset (V)
ICHFILTER	IQUANT	1	Ich Filter
VCHRANGE	IQUANT	2	Vch Range
VCHRANGEMODE	TOGGLE	T	Vch Auto Range
VCHOFFSETENABLE	TOGGLE	F	Vch Offset Enable
VCHOFFSET	QUANT	0	Vch Offset (V)
VCHFILTER	IQUANT	1	Vch Filter
IERANGELOWERLIMIT	IQUANT	9	I/E Range Lower Limit
IERANGEMODE	TOGGLE	F	I/E AutoRange
IERANGE	IQUANT	9	I/E Range
ACHSELECT	IQUANT	1	Ach Select
ACHRANGE	IQUANT	2	Ach Range
ACHOFFSETENABLE	TOGGLE	F	Ach Offset Enable
ACHOFFSET	QUANT	0	Ach Offset (V)
ACHFILTER	IQUANT	1	Ach Filter
CABLEID	IQUANT	14	Cable ID
DCCALDATE	LABEL	5-7-2017	DC Calibration Date
ACCALDATE	LABEL	12/3/2015	AC Calibration Date
FRAMEWORKVERSION	QUANT	7.01	Framework Version
INSTRUMENTVERSION	LABEL	4.00	Instrument Version
CURVE	TABLE	88
	Pt	T	Vf	Im	Vu	Pwr	Sig	Ach	Temp	IERange	Over
	#	s	V	A	V	W	V	V	deg C	#	bits
	0	0.013333	8.48249E-001	-9.97282E-005	0.00000E+000	-8.45943E-005	-5.99601E-002	8.48607E-001	3.58000E+000	9	...........
	1	0.026667	8.34245E-001	-9.88051E-005	0.00000E+000	-8.24276E-005	-5.99601E-002	8.34606E-001	3.58000E+000	9	...........
	2	0.04	8.21134E-001	-9.88082E-005	0.00000E+000	-8.11348E-005	-5.99601E-002	8.21441E-001	3.58000E+000	9	...........
	3	0.053333	8.08548E-001	-9.91833E-005	0.00000E+000	-8.01944E-005	-5.99601E-002	8.08825E-001	3.58000E+000	9	...........
	4	0.066667	7.96380E-001	-9.82446E-005	0.00000E+000	-7.82400E-005	-5.99601E-002	7.96662E-001	3.58000E+000	9	...........
	5	0.08	7.84478E-001	-9.81737E-005	0.00000E+000	-7.70151E-005	-5.99601E-002	7.84765E-001	3.58000E+000	9	...........
	6	0.093333	7.72813E-001	-9.79080E-005	0.00000E+000	-7.56646E-005	-5.99601E-002	7.73094E-001	3.58000E+000	9	...........
	7	0.106667	7.61304E-001	-9.81591E-005	0.00000E+000	-7.47289E-005	-5.99601E-002	7.61587E-001	3.58000E+000	9	...........
	8	0.12	7.49932E-001	-9.96199E-005	0.00000E+000	-7.47082E-005	-5.99601E-002	7.50231E-001	3.58000E+000	9	...........
	9	0.133333	7.38633E-001	-9.96282E-005	0.00000E+000	-7.35887E-005	-5.99601E-002	7.38925E-001	3.58000E+000	9	...........
	10	0.146667	7.27458E-001	-9.93292E-005	0.00000E+000	-7.22578E-005	-5.99601E-002	7.27669E-001	3.58000E+000	9	...........
	11	0.16	7.16270E-001	-9.89780E-005	0.00000E+000	-7.08950E-005	-5.99601E-002	7.16508E-001	3.58000E+000	9	...........
	12	0.173333	7.05146E-001	-9.88499E-005	0.00000E+000	-6.97036E-005	-5.99601E-002	7.05385E-001	3.58000E+000	9	...........
	13	0.186667	6.94092E-001	-9.82133E-005	0.00000E+000	-6.81690E-005	-5.99601E-002	6.94353E-001	3.57860E+000	9	...........
	14	0.2	6.83049E-001	-9.92323E-005	0.00000E+000	-6.77805E-005	-5.99601E-002	6.83282E-001	3.57860E+000	9	...........
	15	0.213333	6.72030E-001	-9.87780E-005	0.00000E+000	-6.63818E-005	-5.99601E-002	6.72279E-001	3.57860E+000	9	...........
	16	0.226667	6.61019E-001	-9.92156E-005	0.00000E+000	-6.55834E-005	-5.99601E-002	6.61250E-001	3.57860E+000	9	...........
	17	0.24	6.50047E-001	-9.92729E-005	0.00000E+000	-6.45320E-005	-5.99601E-002	6.50273E-001	3.57860E+000	9	...........
	18	0.253333	6.39065E-001	-9.81237E-005	0.00000E+000	-6.27074E-005	-5.99601E-002	6.39319E-001	3.57860E+000	9	...........
	19	0.266667	6.28137E-001	-9.91114E-005	0.00000E+000	-6.22556E-005	-5.99601E-002	6.28379E-001	3.57860E+000	9	...........
	20	0.28	6.17192E-001	-9.85123E-005	0.00000E+000	-6.08010E-005	-5.99601E-002	6.17451E-001	3.57860E+000	9	...........
	21	0.293333	6.06248E-001	-9.92177E-005	0.00000E+000	-6.01505E-005	-5.99601E-002	6.06536E-001	3.57860E+000	9	...........
	22	0.306667	5.95391E-001	-9.91322E-005	0.00000E+000	-5.90225E-005	-5.99601E-002	5.95646E-001	3.57860E+000	9	...........
	23	0.32	5.84532E-001	-9.82789E-005	0.00000E+000	-5.74472E-005	-5.99601E-002	5.84761E-001	3.57860E+000	9	...........
	24	0.333333	5.73698E-001	-9.86519E-005	0.00000E+000	-5.65965E-005	-5.99601E-002	5.73938E-001	3.57860E+000	9	...........
	25	0.346667	5.62874E-001	-9.87395E-005	0.00000E+000	-5.55779E-005	-5.99601E-002	5.63111E-001	3.57860E+000	9	...........
	26	0.36	5.52097E-001	-9.85936E-005	0.00000E+000	-5.44332E-005	-5.99601E-002	5.52305E-001	3.57860E+000	9	...........
	27	0.373333	5.41369E-001	-9.83852E-005	0.00000E+000	-5.32627E-005	-5.99601E-002	5.41601E-001	3.57860E+000	9	...........
	28	0.386667	5.30636E-001	-9.88843E-005	0.00000E+000	-5.24716E-005	-5.99601E-002	5.30861E-001	3.57860E+000	9	...........
	29	0.4	5.19981E-001	-9.88905E-005	0.00000E+000	-5.14212E-005	-5.99601E-002	5.20195E-001	3.57860E+000	9	...........
	30	0.413333	5.09318E-001	-9.88791E-005	0.00000E+000	-5.03609E-005	-5.99601E-002	5.09561E-001	3.57860E+000	9	...........
	31	0.426667	4.98734E-001	-9.93354E-005	0.00000E+000	-4.95420E-005	-5.99601E-002	4.98998E-001	3.57860E+000	9	...........
	32	0.44	4.88273E-001	-9.84165E-005	0.00000E+000	-4.80541E-005	-5.99601E-002	4.88480E-001	3.57860E+000	9	...........
	33	0.453333	4.78117E-001	-9.93656E-005	0.00000E+000	-4.75084E-005	-5.99601E-002	4.78213E-001	3.57860E+000	9	...........
	34	0.466667	4.67689E-001	-9.87238E-005	0.00000E+000	-4.61721E-005	-5.99601E-002	4.67787E-001	3.57860E+000	9	...........
	35	0.48	4.57327E-001	-9.86384E-005	0.00000E+000	-4.51100E-005	-5.99601E-002	4.57424E-001	3.57860E+000	9	...........
	36	0.493333	4.47027E-001	-9.88270E-005	0.00000E+000	-4.41783E-005	-5.99601E-002	4.47122E-001	3.57860E+000	9	...........
	37	0.506667	4.36781E-001	-9.86446E-005	0.00000E+000	-4.30861E-005	-5.99601E-002	4.36872E-001	3.57860E+000	9	...........
	38	0.52	4.26601E-001	-9.86228E-005	0.00000E+000	-4.20726E-005	-5.99601E-002	4.26694E-001	3.57860E+000	9	...........
	39	0.533333	4.16485E-001	-9.87072E-005	0.00000E+000	-4.11100E-005	-5.99601E-002	4.16571E-001	3.57860E+000	9	...........
	40	0.546667	4.06425E-001	-9.86613E-005	0.00000E+000	-4.00985E-005	-5.99601E-002	4.06505E-001	3.57860E+000	9	...........
	41	0.56	3.96426E-001	-9.86457E-005	0.00000E+000	-3.91057E-005	-5.99601E-002	3.96509E-001	3.57860E+000	9	...........
	42	0.573333	3.86490E-001	-9.88166E-005	0.00000E+000	-3.81916E-005	-5.99601E-002	3.86563E-001	3.57860E+000	9	...........
	43	0.586667	3.76613E-001	-9.81695E-005	0.00000E+000	-3.69720E-005	-5.99601E-002	3.76681E-001	3.57860E+000	9	...........
	44	0.6	3.66789E-001	-9.82644E-005	0.00000E+000	-3.60423E-005	-5.99601E-002	3.66862E-001	3.57860E+000	9	...........
	45	0.613333	3.57025E-001	-9.91291E-005	0.00000E+000	-3.53916E-005	-5.99601E-002	3.57095E-001	3.57860E+000	9	...........
	46	0.626667	3.47317E-001	-9.81477E-005	0.00000E+000	-3.40884E-005	-5.99601E-002	3.47387E-001	3.57860E+000	9	...........
	47	0.64	3.37664E-001	-9.96074E-005	0.00000E+000	-3.36338E-005	-5.99601E-002	3.37730E-001	3.57860E+000	9	...........
	48	0.653333	3.28071E-001	-9.90479E-005	0.00000E+000	-3.24947E-005	-5.99601E-002	3.28138E-001	3.57860E+000	9	...........
	49	0.666667	3.18533E-001	-9.84904E-005	0.00000E+000	-3.13725E-005	-5.99601E-002	3.18594E-001	3.57860E+000	9	...........
	50	0.68	3.09045E-001	-9.86978E-005	0.00000E+000	-3.05021E-005	-5.99601E-002	3.09102E-001	3.57860E+000	9	...........
	51	0.693333	2.99606E-001	-9.92594E-005	0.00000E+000	-2.97387E-005	-5.99601E-002	2.99662E-001	3.57860E+000	9	...........
	52	0.706667	2.90217E-001	-9.82112E-005	0.00000E+000	-2.85026E-005	-5.99601E-002	2.90272E-001	3.57860E+000	9	...........
	53	0.72	2.80874E-001	-9.83081E-005	0.00000E+000	-2.76122E-005	-5.99601E-002	2.80926E-001	3.57860E+000	9	...........
	54	0.733333	2.71581E-001	-9.85113E-005	0.00000E+000	-2.67538E-005	-5.99601E-002	2.71631E-001	3.57860E+000	9	...........
	55	0.746667	2.62332E-001	-9.80216E-005	0.00000E+000	-2.57142E-005	-5.99601E-002	2.62381E-001	3.57860E+000	9	...........
	56	0.76	2.53130E-001	-9.88186E-005	0.00000E+000	-2.50139E-005	-5.99601E-002	2.53176E-001	3.57860E+000	9	...........
	57	0.773333	2.43982E-001	-9.86144E-005	0.00000E+000	-2.40601E-005	-5.99601E-002	2.44018E-001	3.57860E+000	9	...........
	58	0.786667	2.34877E-001	-9.88468E-005	0.00000E+000	-2.32168E-005	-5.99601E-002	2.34912E-001	3.57860E+000	9	...........
	59	0.8	2.25809E-001	-9.91229E-005	0.00000E+000	-2.23828E-005	-5.99601E-002	2.25847E-001	3.57860E+000	9	...........
	60	0.813333	2.16790E-001	-9.91937E-005	0.00000E+000	-2.15042E-005	-5.99601E-002	2.16826E-001	3.57860E+000	9	...........
	61	0.826667	2.07820E-001	-9.89530E-005	0.00000E+000	-2.05644E-005	-5.99601E-002	2.07860E-001	3.57860E+000	9	...........
	62	0.84	1.98904E-001	-9.92479E-005	0.00000E+000	-1.97408E-005	-5.99601E-002	1.98937E-001	3.57860E+000	9	...........
	63	0.853333	1.90042E-001	-9.84957E-005	0.00000E+000	-1.87184E-005	-5.99601E-002	1.90072E-001	3.57860E+000	9	...........
	64	0.866667	1.81226E-001	-9.89833E-005	0.00000E+000	-1.79384E-005	-5.99601E-002	1.81260E-001	3.57860E+000	9	...........
	65	0.88	1.72477E-001	-9.92135E-005	0.00000E+000	-1.71120E-005	-5.99601E-002	1.72506E-001	3.57860E+000	9	...........
	66	0.893333	1.63792E-001	-9.86780E-005	0.00000E+000	-1.61627E-005	-5.99601E-002	1.63811E-001	3.57860E+000	9	...........
	67	0.906667	1.55165E-001	-9.84550E-005	0.00000E+000	-1.52768E-005	-5.99601E-002	1.55182E-001	3.57860E+000	9	...........
	68	0.92	1.46601E-001	-9.86957E-005	0.00000E+000	-1.44689E-005	-5.99601E-002	1.46616E-001	3.57860E+000	9	...........
	69	0.933333	1.38098E-001	-9.90989E-005	0.00000E+000	-1.36853E-005	-5.99601E-002	1.38117E-001	3.57860E+000	9	...........
	70	0.946667	1.29668E-001	-9.95011E-005	0.00000E+000	-1.29021E-005	-5.99601E-002	1.29681E-001	3.57860E+000	9	...........
	71	0.96	1.21308E-001	-9.93115E-005	0.00000E+000	-1.20473E-005	-5.99601E-002	1.21323E-001	3.57860E+000	9	...........
	72	0.97333	1.13020E-001	-9.94073E-005	0.00000E+000	-1.12351E-005	-5.99601E-002	1.13036E-001	3.57860E+000	9	...........
	73	0.98667	1.04804E-001	-9.91302E-005	0.00000E+000	-1.03892E-005	-5.99601E-002	1.04817E-001	3.57860E+000	9	...........
	74	1	9.66618E-002	-9.88124E-005	0.00000E+000	-9.55139E-006	-5.99601E-002	9.66709E-002	3.57860E+000	9	...........
	75	1.01333	8.85920E-002	-9.95323E-005	0.00000E+000	-8.81777E-006	-5.99601E-002	8.85996E-002	3.57860E+000	9	...........
	76	1.02667	8.05993E-002	-9.84665E-005	0.00000E+000	-7.93633E-006	-5.99601E-002	8.06022E-002	3.57860E+000	9	...........
	77	1.04	7.26761E-002	-9.96032E-005	0.00000E+000	-7.23877E-006	-5.99601E-002	7.26736E-002	3.57860E+000	9	...........
	78	1.05333	6.48245E-002	-9.88238E-005	0.00000E+000	-6.40621E-006	-5.99601E-002	6.48239E-002	3.57860E+000	9	...........
	79	1.06667	5.70425E-002	-9.90197E-005	0.00000E+000	-5.64833E-006	-5.99601E-002	5.70399E-002	3.57860E+000	9	...........
	80	1.08	4.93432E-002	-9.84831E-005	0.00000E+000	-4.85947E-006	-5.99601E-002	4.93298E-002	3.57860E+000	9	...........
	81	1.09333	4.17203E-002	-9.80622E-005	0.00000E+000	-4.09118E-006	-5.99601E-002	4.17105E-002	3.57860E+000	9	...........
	82	1.10667	3.41406E-002	-9.92083E-005	0.00000E+000	-3.38703E-006	-5.99601E-002	3.41260E-002	3.57860E+000	9	...........
	83	1.12	2.66249E-002	-9.90760E-005	0.00000E+000	-2.63789E-006	-5.99601E-002	2.66076E-002	3.57860E+000	9	...........
	84	1.13333	1.91720E-002	-9.90593E-005	0.00000E+000	-1.89917E-006	-5.99601E-002	1.91511E-002	3.57860E+000	9	...........
	85	1.14667	1.17866E-002	-9.88739E-005	0.00000E+000	-1.16538E-006	-5.99601E-002	1.17623E-002	3.57860E+000	9	...........
	86	1.16	4.47372E-003	-9.82789E-005	0.00000E+000	-4.39673E-007	-5.99601E-002	4.44270E-003	3.57860E+000	9	...........
	87	1.16333	-6.14521E-005	-9.78601E-005	0.00000E+000	6.01371E-009	-5.99601E-002	-1.04659E-004	3.57860E+000	9	...........
STARTTIMEOFFSET	QUANT	1300.651	Start Time Offset (s)
