EXPLAIN
TAG	PWR800_DISCHARGE
TITLE	LABEL	PWR Cyclic Charge Discharge (Cell) - Discharge Step	Test &Identifier
DATE	LABEL	13-7-2017	Date
TIME	LABEL	15:33:33	Time
NOTES	NOTES	2	&Notes...
	supercap test cell
	6M KOH
PSTAT	PSTAT	IFC5000-01520	Potentiostat
CAPACITY	QUANT	1.00000E-003	Capacity (A-hr)
CELLTYPE	SELECTOR	1	&Cell Type
WORKINGCONNECTION	SELECTOR	0	&Working Lead
MAXDISCHARGETIME	VARIABLEANDUNITS	1.00000E+002	s	1.00000E+002	second(s)	Max &Discharge Time
DISCHARGEMODE	MULTIPARAM	0	1.00000E-004	&Discharge Mode	Constant Current	Amp(s)
SAMPLETIME	QUANT	1.00000E-002	Sa&mple Period (s)
DISCHARGESTOPAT1	MULTIPARAM	3	0.00000E+000	Discharge Stop At &1	Voltage < Limit	V
DISCHARGESTOPAT2	MULTIPARAM	0	0.00000E+000	Discharge Stop At &2	None	N/A
AESBHCSELECTOR	TOGGLE	F	Save Both Half Cells
IRCOMP	TOGGLE	F	IR &Measure
EOC	QUANT	0	Open Circuit (V)
SEQUENCER	TOGGLE	TRUE	Run as Sequence
PSTATMODEL	IQUANT	53	Pstat Model
PSTATSECTION	LABEL	IFC5000-01520	Pstat Section
PSTATSERIALNO	LABEL	01520	Pstat Serial Number
CTRLMODE	IQUANT	0	Control Mode
ELECTROMETER	IQUANT	1	RE=0 or CS=1
IESTAB	IQUANT	0	I/E Stability
CASPEED	IQUANT	4	Control Amp Speed
CONVENTION	IQUANT	1	Current Convention
ICHRANGE	IQUANT	2	Ich Range
ICHRANGEMODE	TOGGLE	T	Ich Auto Range
ICHOFFSETENABLE	TOGGLE	F	Ich Offset Enable
ICHOFFSET	QUANT	0	Ich Offset (V)
ICHFILTER	IQUANT	1	Ich Filter
VCHRANGE	IQUANT	2	Vch Range
VCHRANGEMODE	TOGGLE	T	Vch Auto Range
VCHOFFSETENABLE	TOGGLE	F	Vch Offset Enable
VCHOFFSET	QUANT	0	Vch Offset (V)
VCHFILTER	IQUANT	1	Vch Filter
IERANGELOWERLIMIT	IQUANT	9	I/E Range Lower Limit
IERANGEMODE	TOGGLE	F	I/E AutoRange
IERANGE	IQUANT	9	I/E Range
ACHSELECT	IQUANT	1	Ach Select
ACHRANGE	IQUANT	2	Ach Range
ACHOFFSETENABLE	TOGGLE	F	Ach Offset Enable
ACHOFFSET	QUANT	0	Ach Offset (V)
ACHFILTER	IQUANT	1	Ach Filter
CABLEID	IQUANT	14	Cable ID
DCCALDATE	LABEL	5-7-2017	DC Calibration Date
ACCALDATE	LABEL	12/3/2015	AC Calibration Date
FRAMEWORKVERSION	QUANT	7.01	Framework Version
INSTRUMENTVERSION	LABEL	4.00	Instrument Version
CURVE	TABLE	87
	Pt	T	Vf	Im	Vu	Pwr	Sig	Ach	Temp	IERange	Over
	#	s	V	A	V	W	V	V	deg C	#	bits
	0	0.013333	8.47286E-001	-9.90010E-005	0.00000E+000	-8.38821E-005	-5.99601E-002	8.47631E-001	3.57955E+000	9	...........
	1	0.026667	8.33208E-001	-9.81425E-005	0.00000E+000	-8.17731E-005	-5.99601E-002	8.33567E-001	3.57870E+000	9	...........
	2	0.04	8.20023E-001	-9.86436E-005	0.00000E+000	-8.08901E-005	-5.99601E-002	8.20352E-001	3.57870E+000	9	...........
	3	0.053333	8.07355E-001	-9.87926E-005	0.00000E+000	-7.97607E-005	-5.99601E-002	8.07680E-001	3.57870E+000	9	...........
	4	0.066667	7.95119E-001	-9.92302E-005	0.00000E+000	-7.88998E-005	-5.99601E-002	7.95432E-001	3.57870E+000	9	...........
	5	0.08	7.83147E-001	-9.93719E-005	0.00000E+000	-7.78228E-005	-5.99601E-002	7.83469E-001	3.57870E+000	9	...........
	6	0.093333	7.71403E-001	-9.87478E-005	0.00000E+000	-7.61743E-005	-5.99601E-002	7.71716E-001	3.57870E+000	9	...........
	7	0.106667	7.59829E-001	-9.92500E-005	0.00000E+000	-7.54130E-005	-5.99601E-002	7.60144E-001	3.57870E+000	9	...........
	8	0.12	7.48384E-001	-9.86092E-005	0.00000E+000	-7.37976E-005	-5.99601E-002	7.48665E-001	3.57870E+000	9	...........
	9	0.133333	7.37008E-001	-9.94896E-005	0.00000E+000	-7.33246E-005	-5.99601E-002	7.37318E-001	3.57870E+000	9	...........
	10	0.146667	7.25740E-001	-9.80977E-005	0.00000E+000	-7.11934E-005	-5.99601E-002	7.26008E-001	3.57870E+000	9	...........
	11	0.16	7.14479E-001	-9.84769E-005	0.00000E+000	-7.03597E-005	-5.99601E-002	7.14785E-001	3.57870E+000	9	...........
	12	0.173333	7.03315E-001	-9.72600E-005	0.00000E+000	-6.84044E-005	-5.99601E-002	7.03606E-001	3.57870E+000	9	...........
	13	0.186667	6.92187E-001	-9.93437E-005	0.00000E+000	-6.87645E-005	-5.99601E-002	6.92455E-001	3.57870E+000	9	...........
	14	0.2	6.81054E-001	-9.87030E-005	0.00000E+000	-6.72221E-005	-5.99601E-002	6.81324E-001	3.57870E+000	9	...........
	15	0.213333	6.69975E-001	-9.89426E-005	0.00000E+000	-6.62891E-005	-5.99601E-002	6.70249E-001	3.57870E+000	9	...........
	16	0.226667	6.58880E-001	-9.90489E-005	0.00000E+000	-6.52613E-005	-5.99601E-002	6.59157E-001	3.57870E+000	9	...........
	17	0.24	6.47857E-001	-9.92218E-005	0.00000E+000	-6.42816E-005	-5.99601E-002	6.48073E-001	3.57870E+000	9	...........
	18	0.253333	6.36806E-001	-9.88499E-005	0.00000E+000	-6.29482E-005	-5.99601E-002	6.37041E-001	3.57870E+000	9	...........
	19	0.266667	6.25813E-001	-9.89155E-005	0.00000E+000	-6.19026E-005	-5.99601E-002	6.26029E-001	3.57870E+000	9	...........
	20	0.28	6.14812E-001	-9.91281E-005	0.00000E+000	-6.09452E-005	-5.99601E-002	6.15052E-001	3.57870E+000	9	...........
	21	0.293333	6.03802E-001	-9.93865E-005	0.00000E+000	-6.00098E-005	-5.99601E-002	6.04086E-001	3.57870E+000	9	...........
	22	0.306667	5.92883E-001	-9.92573E-005	0.00000E+000	-5.88480E-005	-5.99601E-002	5.93143E-001	3.57870E+000	9	...........
	23	0.32	5.81936E-001	-9.83071E-005	0.00000E+000	-5.72085E-005	-5.99601E-002	5.82225E-001	3.57870E+000	9	...........
	24	0.333333	5.71069E-001	-9.83873E-005	0.00000E+000	-5.61859E-005	-5.99601E-002	5.71322E-001	3.57870E+000	9	...........
	25	0.346667	5.60180E-001	-9.82112E-005	0.00000E+000	-5.50159E-005	-5.99601E-002	5.60450E-001	3.57870E+000	9	...........
	26	0.36	5.49352E-001	-9.94740E-005	0.00000E+000	-5.46462E-005	-5.99601E-002	5.49609E-001	3.57870E+000	9	...........
	27	0.373333	5.38559E-001	-9.90937E-005	0.00000E+000	-5.33678E-005	-5.99601E-002	5.38791E-001	3.57870E+000	9	...........
	28	0.386667	5.27786E-001	-9.95678E-005	0.00000E+000	-5.25505E-005	-5.99601E-002	5.28027E-001	3.57870E+000	9	...........
	29	0.4	5.17100E-001	-9.85394E-005	0.00000E+000	-5.09547E-005	-5.99601E-002	5.17295E-001	3.57870E+000	9	...........
	30	0.413333	5.06385E-001	-9.93229E-005	0.00000E+000	-5.02956E-005	-5.99601E-002	5.06628E-001	3.57870E+000	9	...........
	31	0.426667	4.95795E-001	-9.88166E-005	0.00000E+000	-4.89927E-005	-5.99601E-002	4.96004E-001	3.57870E+000	9	...........
	32	0.44	4.85380E-001	-9.85634E-005	0.00000E+000	-4.78407E-005	-5.99601E-002	4.85516E-001	3.57870E+000	9	...........
	33	0.453333	4.75089E-001	-9.86686E-005	0.00000E+000	-4.68764E-005	-5.99601E-002	4.75185E-001	3.57870E+000	9	...........
	34	0.466667	4.64633E-001	-9.86144E-005	0.00000E+000	-4.58195E-005	-5.99601E-002	4.64722E-001	3.57870E+000	9	...........
	35	0.48	4.54234E-001	-9.93260E-005	0.00000E+000	-4.51173E-005	-5.99601E-002	4.54326E-001	3.57870E+000	9	...........
	36	0.493333	4.43903E-001	-9.88259E-005	0.00000E+000	-4.38691E-005	-5.99601E-002	4.43990E-001	3.57870E+000	9	...........
	37	0.506667	4.33632E-001	-9.94323E-005	0.00000E+000	-4.31171E-005	-5.99601E-002	4.33720E-001	3.57870E+000	9	...........
	38	0.52	4.23416E-001	-9.89520E-005	0.00000E+000	-4.18979E-005	-5.99601E-002	4.23505E-001	3.57870E+000	9	...........
	39	0.533333	4.13276E-001	-9.90364E-005	0.00000E+000	-4.09293E-005	-5.99601E-002	4.13360E-001	3.57870E+000	9	...........
	40	0.546667	4.03204E-001	-9.82706E-005	0.00000E+000	-3.96231E-005	-5.99601E-002	4.03276E-001	3.57870E+000	9	...........
	41	0.56	3.93187E-001	-9.97418E-005	0.00000E+000	-3.92171E-005	-5.99601E-002	3.93259E-001	3.57870E+000	9	...........
	42	0.573333	3.83227E-001	-9.92698E-005	0.00000E+000	-3.80428E-005	-5.99601E-002	3.83302E-001	3.57870E+000	9	...........
	43	0.586667	3.73334E-001	-9.88426E-005	0.00000E+000	-3.69013E-005	-5.99601E-002	3.73405E-001	3.57870E+000	9	...........
	44	0.6	3.63497E-001	-9.83727E-005	0.00000E+000	-3.57582E-005	-5.99601E-002	3.63567E-001	3.57870E+000	9	...........
	45	0.613333	3.53722E-001	-9.77924E-005	0.00000E+000	-3.45913E-005	-5.99601E-002	3.53790E-001	3.57870E+000	9	...........
	46	0.626667	3.43998E-001	-9.81560E-005	0.00000E+000	-3.37654E-005	-5.99601E-002	3.44065E-001	3.57870E+000	9	...........
	47	0.64	3.34337E-001	-9.89030E-005	0.00000E+000	-3.30670E-005	-5.99601E-002	3.34399E-001	3.57870E+000	9	...........
	48	0.653333	3.24727E-001	-9.80185E-005	0.00000E+000	-3.18293E-005	-5.99601E-002	3.24797E-001	3.57870E+000	9	...........
	49	0.666667	3.15177E-001	-9.87259E-005	0.00000E+000	-3.11161E-005	-5.99601E-002	3.15240E-001	3.57870E+000	9	...........
	50	0.68	3.05673E-001	-9.90083E-005	0.00000E+000	-3.02641E-005	-5.99601E-002	3.05730E-001	3.57870E+000	9	...........
	51	0.693333	2.96223E-001	-9.88655E-005	0.00000E+000	-2.92862E-005	-5.99601E-002	2.96271E-001	3.57870E+000	9	...........
	52	0.706667	2.86818E-001	-9.88561E-005	0.00000E+000	-2.83538E-005	-5.99601E-002	2.86863E-001	3.57870E+000	9	...........
	53	0.72	2.77459E-001	-9.83696E-005	0.00000E+000	-2.72935E-005	-5.99601E-002	2.77512E-001	3.57870E+000	9	...........
	54	0.733333	2.68155E-001	-9.91385E-005	0.00000E+000	-2.65845E-005	-5.99601E-002	2.68197E-001	3.57870E+000	9	...........
	55	0.746667	2.58893E-001	-9.87176E-005	0.00000E+000	-2.55573E-005	-5.99601E-002	2.58945E-001	3.57870E+000	9	...........
	56	0.76	2.49688E-001	-9.84717E-005	0.00000E+000	-2.45872E-005	-5.99601E-002	2.49731E-001	3.57870E+000	9	...........
	57	0.773333	2.40526E-001	-9.87332E-005	0.00000E+000	-2.37479E-005	-5.99601E-002	2.40564E-001	3.57870E+000	9	...........
	58	0.786667	2.31407E-001	-9.81466E-005	0.00000E+000	-2.27118E-005	-5.99601E-002	2.31452E-001	3.57870E+000	9	...........
	59	0.8	2.22342E-001	-9.90989E-005	0.00000E+000	-2.20338E-005	-5.99601E-002	2.22375E-001	3.57870E+000	9	...........
	60	0.813333	2.13319E-001	-9.85707E-005	0.00000E+000	-2.10270E-005	-5.99601E-002	2.13350E-001	3.57870E+000	9	...........
	61	0.826667	2.04348E-001	-9.85655E-005	0.00000E+000	-2.01417E-005	-5.99601E-002	2.04386E-001	3.57870E+000	9	...........
	62	0.84	1.95436E-001	-9.95125E-005	0.00000E+000	-1.94483E-005	-5.99601E-002	1.95464E-001	3.57870E+000	9	...........
	63	0.853333	1.86574E-001	-9.89999E-005	0.00000E+000	-1.84708E-005	-5.99601E-002	1.86606E-001	3.57870E+000	9	...........
	64	0.866667	1.77767E-001	-9.93781E-005	0.00000E+000	-1.76662E-005	-5.99601E-002	1.77798E-001	3.57870E+000	9	...........
	65	0.88	1.69022E-001	-9.94938E-005	0.00000E+000	-1.68167E-005	-5.99601E-002	1.69050E-001	3.57870E+000	9	...........
	66	0.893333	1.60352E-001	-9.84706E-005	0.00000E+000	-1.57899E-005	-5.99601E-002	1.60365E-001	3.57870E+000	9	...........
	67	0.906667	1.51732E-001	-9.87843E-005	0.00000E+000	-1.49887E-005	-5.99601E-002	1.51748E-001	3.57870E+000	9	...........
	68	0.92	1.43182E-001	-9.94959E-005	0.00000E+000	-1.42460E-005	-5.99601E-002	1.43201E-001	3.57870E+000	9	...........
	69	0.933333	1.34699E-001	-9.92812E-005	0.00000E+000	-1.33731E-005	-5.99601E-002	1.34714E-001	3.57870E+000	9	...........
	70	0.946667	1.26290E-001	-9.88155E-005	0.00000E+000	-1.24794E-005	-5.99601E-002	1.26304E-001	3.57870E+000	9	...........
	71	0.96	1.17949E-001	-9.91135E-005	0.00000E+000	-1.16903E-005	-5.99601E-002	1.17964E-001	3.57870E+000	9	...........
	72	0.97333	1.09685E-001	-9.86811E-005	0.00000E+000	-1.08238E-005	-5.99601E-002	1.09686E-001	3.57870E+000	9	...........
	73	0.98667	1.01494E-001	-9.81675E-005	0.00000E+000	-9.96341E-006	-5.99601E-002	1.01500E-001	3.57870E+000	9	...........
	74	1	9.33700E-002	-9.88801E-005	0.00000E+000	-9.23244E-006	-5.99601E-002	9.33803E-002	3.57870E+000	9	...........
	75	1.01333	8.53262E-002	-9.87301E-005	0.00000E+000	-8.42426E-006	-5.99601E-002	8.53308E-002	3.57862E+000	9	...........
	76	1.02667	7.73592E-002	-9.95209E-005	0.00000E+000	-7.69886E-006	-5.99601E-002	7.73531E-002	3.57860E+000	9	...........
	77	1.04	6.94517E-002	-9.89249E-005	0.00000E+000	-6.87051E-006	-5.99601E-002	6.94526E-002	3.57860E+000	9	...........
	78	1.05333	6.16232E-002	-9.91052E-005	0.00000E+000	-6.10718E-006	-5.99601E-002	6.16169E-002	3.57860E+000	9	...........
	79	1.06667	5.38601E-002	-9.91062E-005	0.00000E+000	-5.33787E-006	-5.99601E-002	5.38514E-002	3.57860E+000	9	...........
	80	1.08	4.61936E-002	-9.85029E-005	0.00000E+000	-4.55020E-006	-5.99601E-002	4.61808E-002	3.57860E+000	9	...........
	81	1.09333	3.85787E-002	-9.88332E-005	0.00000E+000	-3.81286E-006	-5.99601E-002	3.85674E-002	3.57860E+000	9	...........
	82	1.10667	3.10161E-002	-9.84227E-005	0.00000E+000	-3.05269E-006	-5.99601E-002	3.09979E-002	3.57860E+000	9	...........
	83	1.12	2.35148E-002	-9.93396E-005	0.00000E+000	-2.33595E-006	-5.99601E-002	2.34958E-002	3.57860E+000	9	...........
	84	1.13333	1.60873E-002	-9.80904E-005	0.00000E+000	-1.57801E-006	-5.99601E-002	1.60604E-002	3.57860E+000	9	...........
	85	1.14667	8.72078E-003	-9.90249E-005	0.00000E+000	-8.63574E-007	-5.99601E-002	8.69317E-003	3.57860E+000	9	...........
	86	1.15833	1.87455E-003	-9.84531E-005	0.00000E+000	-1.84555E-007	-5.99601E-002	1.84321E-003	3.57860E+000	9	...........
STARTTIMEOFFSET	QUANT	1426.696	Start Time Offset (s)
