EXPLAIN
TAG	PWR800_DISCHARGE
TITLE	LABEL	PWR Cyclic Charge Discharge (Cell) - Discharge Step	Test &Identifier
DATE	LABEL	13-7-2017	Date
TIME	LABEL	15:47:23	Time
NOTES	NOTES	2	&Notes...
	supercap test cell
	6M KOH
PSTAT	PSTAT	IFC5000-01520	Potentiostat
CAPACITY	QUANT	1.00000E-003	Capacity (A-hr)
CELLTYPE	SELECTOR	1	&Cell Type
WORKINGCONNECTION	SELECTOR	0	&Working Lead
MAXDISCHARGETIME	VARIABLEANDUNITS	1.00000E+002	s	1.00000E+002	second(s)	Max &Discharge Time
DISCHARGEMODE	MULTIPARAM	0	1.00000E-004	&Discharge Mode	Constant Current	Amp(s)
SAMPLETIME	QUANT	1.00000E-002	Sa&mple Period (s)
DISCHARGESTOPAT1	MULTIPARAM	3	0.00000E+000	Discharge Stop At &1	Voltage < Limit	V
DISCHARGESTOPAT2	MULTIPARAM	0	0.00000E+000	Discharge Stop At &2	None	N/A
AESBHCSELECTOR	TOGGLE	F	Save Both Half Cells
IRCOMP	TOGGLE	F	IR &Measure
EOC	QUANT	0	Open Circuit (V)
SEQUENCER	TOGGLE	TRUE	Run as Sequence
PSTATMODEL	IQUANT	53	Pstat Model
PSTATSECTION	LABEL	IFC5000-01520	Pstat Section
PSTATSERIALNO	LABEL	01520	Pstat Serial Number
CTRLMODE	IQUANT	0	Control Mode
ELECTROMETER	IQUANT	1	RE=0 or CS=1
IESTAB	IQUANT	0	I/E Stability
CASPEED	IQUANT	4	Control Amp Speed
CONVENTION	IQUANT	1	Current Convention
ICHRANGE	IQUANT	2	Ich Range
ICHRANGEMODE	TOGGLE	T	Ich Auto Range
ICHOFFSETENABLE	TOGGLE	F	Ich Offset Enable
ICHOFFSET	QUANT	0	Ich Offset (V)
ICHFILTER	IQUANT	1	Ich Filter
VCHRANGE	IQUANT	2	Vch Range
VCHRANGEMODE	TOGGLE	T	Vch Auto Range
VCHOFFSETENABLE	TOGGLE	F	Vch Offset Enable
VCHOFFSET	QUANT	0	Vch Offset (V)
VCHFILTER	IQUANT	1	Vch Filter
IERANGELOWERLIMIT	IQUANT	9	I/E Range Lower Limit
IERANGEMODE	TOGGLE	F	I/E AutoRange
IERANGE	IQUANT	9	I/E Range
ACHSELECT	IQUANT	1	Ach Select
ACHRANGE	IQUANT	2	Ach Range
ACHOFFSETENABLE	TOGGLE	F	Ach Offset Enable
ACHOFFSET	QUANT	0	Ach Offset (V)
ACHFILTER	IQUANT	1	Ach Filter
CABLEID	IQUANT	14	Cable ID
DCCALDATE	LABEL	5-7-2017	DC Calibration Date
ACCALDATE	LABEL	12/3/2015	AC Calibration Date
FRAMEWORKVERSION	QUANT	7.01	Framework Version
INSTRUMENTVERSION	LABEL	4.00	Instrument Version
CURVE	TABLE	86
	Pt	T	Vf	Im	Vu	Pwr	Sig	Ach	Temp	IERange	Over
	#	s	V	A	V	W	V	V	deg C	#	bits
	0	0.013333	8.46889E-001	-9.88895E-005	0.00000E+000	-8.37485E-005	-5.99601E-002	8.47239E-001	3.58000E+000	9	...........
	1	0.026667	8.32688E-001	-9.87832E-005	0.00000E+000	-8.22556E-005	-5.99601E-002	8.33012E-001	3.58000E+000	9	...........
	2	0.04	8.19353E-001	-9.88957E-005	0.00000E+000	-8.10305E-005	-5.99601E-002	8.19650E-001	3.58000E+000	9	...........
	3	0.053333	8.06522E-001	-9.85800E-005	0.00000E+000	-7.95070E-005	-5.99601E-002	8.06835E-001	3.58000E+000	9	...........
	4	0.066667	7.94111E-001	-9.93760E-005	0.00000E+000	-7.89156E-005	-5.99601E-002	7.94389E-001	3.58000E+000	9	...........
	5	0.08	7.81947E-001	-9.89364E-005	0.00000E+000	-7.73630E-005	-5.99601E-002	7.82226E-001	3.58000E+000	9	...........
	6	0.093333	7.69980E-001	-9.91552E-005	0.00000E+000	-7.63475E-005	-5.99601E-002	7.70271E-001	3.58000E+000	9	...........
	7	0.106667	7.58202E-001	-9.85290E-005	0.00000E+000	-7.47048E-005	-5.99601E-002	7.58471E-001	3.58000E+000	9	...........
	8	0.12	7.46505E-001	-9.81279E-005	0.00000E+000	-7.32529E-005	-5.99601E-002	7.46783E-001	3.58000E+000	9	...........
	9	0.133333	7.34896E-001	-9.86853E-005	0.00000E+000	-7.25234E-005	-5.99601E-002	7.35185E-001	3.58000E+000	9	...........
	10	0.146667	7.23380E-001	-9.92166E-005	0.00000E+000	-7.17713E-005	-5.99601E-002	7.23661E-001	3.58000E+000	9	...........
	11	0.16	7.11860E-001	-9.81331E-005	0.00000E+000	-6.98570E-005	-5.99601E-002	7.12168E-001	3.58000E+000	9	...........
	12	0.173333	7.00435E-001	-9.88603E-005	0.00000E+000	-6.92453E-005	-5.99601E-002	7.00723E-001	3.58000E+000	9	...........
	13	0.186667	6.89052E-001	-9.88843E-005	0.00000E+000	-6.81364E-005	-5.99601E-002	6.89343E-001	3.58000E+000	9	...........
	14	0.2	6.77697E-001	-9.89478E-005	0.00000E+000	-6.70566E-005	-5.99601E-002	6.77959E-001	3.58000E+000	9	...........
	15	0.213333	6.66346E-001	-9.89322E-005	0.00000E+000	-6.59231E-005	-5.99601E-002	6.66615E-001	3.57925E+000	9	...........
	16	0.226667	6.55017E-001	-9.92448E-005	0.00000E+000	-6.50070E-005	-5.99601E-002	6.55276E-001	3.57850E+000	9	...........
	17	0.24	6.43708E-001	-9.97407E-005	0.00000E+000	-6.42039E-005	-5.99601E-002	6.43953E-001	3.57850E+000	9	...........
	18	0.253333	6.32411E-001	-9.96542E-005	0.00000E+000	-6.30225E-005	-5.99601E-002	6.32667E-001	3.57850E+000	9	...........
	19	0.266667	6.21177E-001	-9.85196E-005	0.00000E+000	-6.11981E-005	-5.99601E-002	6.21418E-001	3.57850E+000	9	...........
	20	0.28	6.09884E-001	-9.90895E-005	0.00000E+000	-6.04332E-005	-5.99601E-002	6.10177E-001	3.57850E+000	9	...........
	21	0.293333	5.98680E-001	-9.89655E-005	0.00000E+000	-5.92487E-005	-5.99601E-002	5.98968E-001	3.57850E+000	9	...........
	22	0.306667	5.87504E-001	-9.90031E-005	0.00000E+000	-5.81646E-005	-5.99601E-002	5.87783E-001	3.57850E+000	9	...........
	23	0.32	5.76349E-001	-9.93281E-005	0.00000E+000	-5.72477E-005	-5.99601E-002	5.76627E-001	3.57850E+000	9	...........
	24	0.333333	5.65254E-001	-9.92291E-005	0.00000E+000	-5.60897E-005	-5.99601E-002	5.65515E-001	3.57850E+000	9	...........
	25	0.346667	5.54135E-001	-9.83029E-005	0.00000E+000	-5.44731E-005	-5.99601E-002	5.54410E-001	3.57850E+000	9	...........
	26	0.36	5.43123E-001	-9.87947E-005	0.00000E+000	-5.36577E-005	-5.99601E-002	5.43376E-001	3.57850E+000	9	...........
	27	0.373333	5.32101E-001	-9.84394E-005	0.00000E+000	-5.23797E-005	-5.99601E-002	5.32354E-001	3.57850E+000	9	...........
	28	0.386667	5.21159E-001	-9.87342E-005	0.00000E+000	-5.14562E-005	-5.99601E-002	5.21414E-001	3.57850E+000	9	...........
	29	0.4	5.10244E-001	-9.91875E-005	0.00000E+000	-5.06098E-005	-5.99601E-002	5.10519E-001	3.57850E+000	9	...........
	30	0.413333	4.99383E-001	-9.90291E-005	0.00000E+000	-4.94535E-005	-5.99601E-002	4.99663E-001	3.57850E+000	9	...........
	31	0.426667	4.88661E-001	-9.81852E-005	0.00000E+000	-4.79793E-005	-5.99601E-002	4.88881E-001	3.57850E+000	9	...........
	32	0.44	4.78251E-001	-9.91197E-005	0.00000E+000	-4.74042E-005	-5.99601E-002	4.78349E-001	3.57850E+000	9	...........
	33	0.453333	4.67590E-001	-9.90062E-005	0.00000E+000	-4.62943E-005	-5.99601E-002	4.67683E-001	3.57850E+000	9	...........
	34	0.466667	4.56989E-001	-9.87811E-005	0.00000E+000	-4.51418E-005	-5.99601E-002	4.57089E-001	3.57850E+000	9	...........
	35	0.48	4.46460E-001	-9.95073E-005	0.00000E+000	-4.44261E-005	-5.99601E-002	4.46552E-001	3.57850E+000	9	...........
	36	0.493333	4.36001E-001	-9.87530E-005	0.00000E+000	-4.30564E-005	-5.99601E-002	4.36086E-001	3.57850E+000	9	...........
	37	0.506667	4.25613E-001	-9.91187E-005	0.00000E+000	-4.21862E-005	-5.99601E-002	4.25693E-001	3.57850E+000	9	...........
	38	0.52	4.15293E-001	-9.84998E-005	0.00000E+000	-4.09063E-005	-5.99601E-002	4.15371E-001	3.57850E+000	9	...........
	39	0.533333	4.05039E-001	-9.94959E-005	0.00000E+000	-4.02997E-005	-5.99601E-002	4.05112E-001	3.57850E+000	9	...........
	40	0.546667	3.94851E-001	-9.87988E-005	0.00000E+000	-3.90108E-005	-5.99601E-002	3.94923E-001	3.57850E+000	9	...........
	41	0.56	3.84739E-001	-9.92198E-005	0.00000E+000	-3.81737E-005	-5.99601E-002	3.84807E-001	3.57850E+000	9	...........
	42	0.573333	3.74696E-001	-9.88166E-005	0.00000E+000	-3.70262E-005	-5.99601E-002	3.74757E-001	3.57850E+000	9	...........
	43	0.586667	3.64715E-001	-9.91906E-005	0.00000E+000	-3.61763E-005	-5.99601E-002	3.64783E-001	3.57850E+000	9	...........
	44	0.6	3.54805E-001	-9.89072E-005	0.00000E+000	-3.50928E-005	-5.99601E-002	3.54871E-001	3.57850E+000	9	...........
	45	0.613333	3.44953E-001	-9.83675E-005	0.00000E+000	-3.39322E-005	-5.99601E-002	3.45015E-001	3.57850E+000	9	...........
	46	0.626667	3.35158E-001	-9.83581E-005	0.00000E+000	-3.29655E-005	-5.99601E-002	3.35221E-001	3.57850E+000	9	...........
	47	0.64	3.25434E-001	-9.96115E-005	0.00000E+000	-3.24170E-005	-5.99601E-002	3.25487E-001	3.57850E+000	9	...........
	48	0.653333	3.15758E-001	-9.88113E-005	0.00000E+000	-3.12004E-005	-5.99601E-002	3.15820E-001	3.57850E+000	9	...........
	49	0.666667	3.06147E-001	-9.80779E-005	0.00000E+000	-3.00262E-005	-5.99601E-002	3.06199E-001	3.57850E+000	9	...........
	50	0.68	2.96589E-001	-9.96021E-005	0.00000E+000	-2.95409E-005	-5.99601E-002	2.96639E-001	3.57850E+000	9	...........
	51	0.693333	2.87082E-001	-9.85623E-005	0.00000E+000	-2.82955E-005	-5.99601E-002	2.87136E-001	3.57850E+000	9	...........
	52	0.706667	2.77633E-001	-9.91843E-005	0.00000E+000	-2.75369E-005	-5.99601E-002	2.77679E-001	3.57850E+000	9	...........
	53	0.72	2.68233E-001	-9.89062E-005	0.00000E+000	-2.65299E-005	-5.99601E-002	2.68285E-001	3.57850E+000	9	...........
	54	0.733333	2.58891E-001	-9.84102E-005	0.00000E+000	-2.54775E-005	-5.99601E-002	2.58938E-001	3.57850E+000	9	...........
	55	0.746667	2.49603E-001	-9.88020E-005	0.00000E+000	-2.46612E-005	-5.99601E-002	2.49643E-001	3.57850E+000	9	...........
	56	0.76	2.40370E-001	-9.92448E-005	0.00000E+000	-2.38554E-005	-5.99601E-002	2.40398E-001	3.57850E+000	9	...........
	57	0.773333	2.31182E-001	-9.89708E-005	0.00000E+000	-2.28802E-005	-5.99601E-002	2.31212E-001	3.57850E+000	9	...........
	58	0.786667	2.22047E-001	-9.88582E-005	0.00000E+000	-2.19512E-005	-5.99601E-002	2.22078E-001	3.57850E+000	9	...........
	59	0.8	2.12957E-001	-9.93854E-005	0.00000E+000	-2.11648E-005	-5.99601E-002	2.12991E-001	3.57850E+000	9	...........
	60	0.813333	2.03938E-001	-9.87301E-005	0.00000E+000	-2.01348E-005	-5.99601E-002	2.03971E-001	3.57850E+000	9	...........
	61	0.826667	1.94973E-001	-9.94104E-005	0.00000E+000	-1.93824E-005	-5.99601E-002	1.94996E-001	3.57850E+000	9	...........
	62	0.84	1.86066E-001	-9.90635E-005	0.00000E+000	-1.84323E-005	-5.99601E-002	1.86092E-001	3.57850E+000	9	...........
	63	0.853333	1.77220E-001	-9.88426E-005	0.00000E+000	-1.75168E-005	-5.99601E-002	1.77240E-001	3.57850E+000	9	...........
	64	0.866667	1.68437E-001	-9.89822E-005	0.00000E+000	-1.66723E-005	-5.99601E-002	1.68454E-001	3.57850E+000	9	...........
	65	0.88	1.59731E-001	-9.90218E-005	0.00000E+000	-1.58168E-005	-5.99601E-002	1.59746E-001	3.57850E+000	9	...........
	66	0.893333	1.51080E-001	-9.80185E-005	0.00000E+000	-1.48086E-005	-5.99601E-002	1.51097E-001	3.57850E+000	9	...........
	67	0.906667	1.42508E-001	-9.93344E-005	0.00000E+000	-1.41559E-005	-5.99601E-002	1.42522E-001	3.57850E+000	9	...........
	68	0.92	1.34003E-001	-9.89655E-005	0.00000E+000	-1.32616E-005	-5.99601E-002	1.34014E-001	3.57850E+000	9	...........
	69	0.933333	1.25572E-001	-9.89708E-005	0.00000E+000	-1.24280E-005	-5.99601E-002	1.25581E-001	3.57850E+000	9	...........
	70	0.946667	1.17221E-001	-9.85144E-005	0.00000E+000	-1.15479E-005	-5.99601E-002	1.17228E-001	3.57850E+000	9	...........
	71	0.96	1.08942E-001	-9.97803E-005	0.00000E+000	-1.08703E-005	-5.99601E-002	1.08953E-001	3.57850E+000	9	...........
	72	0.97333	1.00744E-001	-9.91510E-005	0.00000E+000	-9.98891E-006	-5.99601E-002	1.00753E-001	3.57850E+000	9	...........
	73	0.98667	9.26170E-002	-9.86228E-005	0.00000E+000	-9.13414E-006	-5.99601E-002	9.26224E-002	3.57850E+000	9	...........
	74	1	8.45641E-002	-9.88405E-005	0.00000E+000	-8.35836E-006	-5.99601E-002	8.45706E-002	3.57850E+000	9	...........
	75	1.01333	7.65921E-002	-9.91823E-005	0.00000E+000	-7.59657E-006	-5.99601E-002	7.65931E-002	3.57850E+000	9	...........
	76	1.02667	6.86831E-002	-9.95511E-005	0.00000E+000	-6.83748E-006	-5.99601E-002	6.86851E-002	3.57850E+000	9	...........
	77	1.04	6.08516E-002	-9.76830E-005	0.00000E+000	-5.94416E-006	-5.99601E-002	6.08497E-002	3.57850E+000	9	...........
	78	1.05333	5.30820E-002	-9.97084E-005	0.00000E+000	-5.29272E-006	-5.99601E-002	5.30817E-002	3.57850E+000	9	...........
	79	1.06667	4.54220E-002	-9.88739E-005	0.00000E+000	-4.49105E-006	-5.99601E-002	4.54117E-002	3.57850E+000	9	...........
	80	1.08	3.78084E-002	-9.90854E-005	0.00000E+000	-3.74626E-006	-5.99601E-002	3.77945E-002	3.57850E+000	9	...........
	81	1.09333	3.02557E-002	-9.85488E-005	0.00000E+000	-2.98167E-006	-5.99601E-002	3.02384E-002	3.57850E+000	9	...........
	82	1.10667	2.27698E-002	-9.86790E-005	0.00000E+000	-2.24690E-006	-5.99601E-002	2.27449E-002	3.57850E+000	9	...........
	83	1.12	1.53499E-002	-9.78674E-005	0.00000E+000	-1.50225E-006	-5.99601E-002	1.53247E-002	3.57850E+000	9	...........
	84	1.13333	7.99107E-003	-9.88030E-005	0.00000E+000	-7.89542E-007	-5.99601E-002	7.96133E-003	3.57850E+000	9	...........
	85	1.14333	1.60175E-003	-9.85019E-005	0.00000E+000	-1.57775E-007	-5.99601E-002	1.57635E-003	3.57850E+000	9	...........
STARTTIMEOFFSET	QUANT	2049.427	Start Time Offset (s)
