EXPLAIN
TAG	PWR800_DISCHARGE
TITLE	LABEL	PWR Cyclic Charge Discharge (Cell) - Discharge Step	Test &Identifier
DATE	LABEL	13-7-2017	Date
TIME	LABEL	15:04:08	Time
NOTES	NOTES	2	&Notes...
	supercap test cell
	6M KOH
PSTAT	PSTAT	IFC5000-01520	Potentiostat
CAPACITY	QUANT	1.00000E-003	Capacity (A-hr)
CELLTYPE	SELECTOR	1	&Cell Type
WORKINGCONNECTION	SELECTOR	0	&Working Lead
MAXDISCHARGETIME	VARIABLEANDUNITS	1.00000E+002	s	1.00000E+002	second(s)	Max &Discharge Time
DISCHARGEMODE	MULTIPARAM	0	1.00000E-004	&Discharge Mode	Constant Current	Amp(s)
SAMPLETIME	QUANT	1.00000E-002	Sa&mple Period (s)
DISCHARGESTOPAT1	MULTIPARAM	3	0.00000E+000	Discharge Stop At &1	Voltage < Limit	V
DISCHARGESTOPAT2	MULTIPARAM	0	0.00000E+000	Discharge Stop At &2	None	N/A
AESBHCSELECTOR	TOGGLE	F	Save Both Half Cells
IRCOMP	TOGGLE	F	IR &Measure
EOC	QUANT	0	Open Circuit (V)
SEQUENCER	TOGGLE	TRUE	Run as Sequence
PSTATMODEL	IQUANT	53	Pstat Model
PSTATSECTION	LABEL	IFC5000-01520	Pstat Section
PSTATSERIALNO	LABEL	01520	Pstat Serial Number
CTRLMODE	IQUANT	0	Control Mode
ELECTROMETER	IQUANT	1	RE=0 or CS=1
IESTAB	IQUANT	0	I/E Stability
CASPEED	IQUANT	4	Control Amp Speed
CONVENTION	IQUANT	1	Current Convention
ICHRANGE	IQUANT	2	Ich Range
ICHRANGEMODE	TOGGLE	T	Ich Auto Range
ICHOFFSETENABLE	TOGGLE	F	Ich Offset Enable
ICHOFFSET	QUANT	0	Ich Offset (V)
ICHFILTER	IQUANT	1	Ich Filter
VCHRANGE	IQUANT	2	Vch Range
VCHRANGEMODE	TOGGLE	T	Vch Auto Range
VCHOFFSETENABLE	TOGGLE	F	Vch Offset Enable
VCHOFFSET	QUANT	0	Vch Offset (V)
VCHFILTER	IQUANT	1	Vch Filter
IERANGELOWERLIMIT	IQUANT	9	I/E Range Lower Limit
IERANGEMODE	TOGGLE	F	I/E AutoRange
IERANGE	IQUANT	9	I/E Range
ACHSELECT	IQUANT	1	Ach Select
ACHRANGE	IQUANT	2	Ach Range
ACHOFFSETENABLE	TOGGLE	F	Ach Offset Enable
ACHOFFSET	QUANT	0	Ach Offset (V)
ACHFILTER	IQUANT	1	Ach Filter
CABLEID	IQUANT	14	Cable ID
DCCALDATE	LABEL	5-7-2017	DC Calibration Date
ACCALDATE	LABEL	12/3/2015	AC Calibration Date
FRAMEWORKVERSION	QUANT	7.01	Framework Version
INSTRUMENTVERSION	LABEL	4.00	Instrument Version
CURVE	TABLE	94
	Pt	T	Vf	Im	Vu	Pwr	Sig	Ach	Temp	IERange	Over
	#	s	V	A	V	W	V	V	deg C	#	bits
	0	0.013333	8.59392E-001	-9.86040E-005	0.00000E+000	-8.47395E-005	-5.99601E-002	8.59729E-001	3.57920E+000	9	...........
	1	0.026667	8.46851E-001	-9.87582E-005	0.00000E+000	-8.36335E-005	-5.99601E-002	8.47188E-001	3.57920E+000	9	...........
	2	0.04	8.35050E-001	-9.83144E-005	0.00000E+000	-8.20974E-005	-5.99601E-002	8.35407E-001	3.57920E+000	9	...........
	3	0.053333	8.23853E-001	-9.83540E-005	0.00000E+000	-8.10292E-005	-5.99601E-002	8.24195E-001	3.57920E+000	9	...........
	4	0.066667	8.12998E-001	-9.76736E-005	0.00000E+000	-7.94085E-005	-5.99601E-002	8.13356E-001	3.57920E+000	9	...........
	5	0.08	8.02503E-001	-9.87811E-005	0.00000E+000	-7.92722E-005	-5.99601E-002	8.02811E-001	3.57920E+000	9	...........
	6	0.093333	7.92182E-001	-9.88978E-005	0.00000E+000	-7.83450E-005	-5.99601E-002	7.92512E-001	3.57920E+000	9	...........
	7	0.106667	7.82044E-001	-9.88655E-005	0.00000E+000	-7.73172E-005	-5.99601E-002	7.82336E-001	3.57920E+000	9	...........
	8	0.12	7.72040E-001	-9.85227E-005	0.00000E+000	-7.60635E-005	-5.99601E-002	7.72334E-001	3.57920E+000	9	...........
	9	0.133333	7.62143E-001	-9.93479E-005	0.00000E+000	-7.57173E-005	-5.99601E-002	7.62409E-001	3.57920E+000	9	...........
	10	0.146667	7.52321E-001	-9.80987E-005	0.00000E+000	-7.38017E-005	-5.99601E-002	7.52614E-001	3.57920E+000	9	...........
	11	0.16	7.42566E-001	-9.90635E-005	0.00000E+000	-7.35612E-005	-5.99601E-002	7.42831E-001	3.57920E+000	9	...........
	12	0.173333	7.32875E-001	-9.83602E-005	0.00000E+000	-7.20857E-005	-5.99601E-002	7.33145E-001	3.57920E+000	9	...........
	13	0.186667	7.23257E-001	-9.92927E-005	0.00000E+000	-7.18142E-005	-5.99601E-002	7.23483E-001	3.57920E+000	9	...........
	14	0.2	7.13589E-001	-9.82550E-005	0.00000E+000	-7.01137E-005	-5.99601E-002	7.13859E-001	3.57920E+000	9	...........
	15	0.213333	7.03972E-001	-9.87780E-005	0.00000E+000	-6.95369E-005	-5.99601E-002	7.04244E-001	3.57920E+000	9	...........
	16	0.226667	6.94382E-001	-9.84467E-005	0.00000E+000	-6.83596E-005	-5.99601E-002	6.94673E-001	3.57920E+000	9	...........
	17	0.24	6.84815E-001	-9.89322E-005	0.00000E+000	-6.77502E-005	-5.99601E-002	6.85059E-001	3.57920E+000	9	...........
	18	0.253333	6.75231E-001	-9.91677E-005	0.00000E+000	-6.69611E-005	-5.99601E-002	6.75508E-001	3.57920E+000	9	...........
	19	0.266667	6.65651E-001	-9.91854E-005	0.00000E+000	-6.60229E-005	-5.99601E-002	6.65938E-001	3.57920E+000	9	...........
	20	0.28	6.56086E-001	-9.88801E-005	0.00000E+000	-6.48739E-005	-5.99601E-002	6.56356E-001	3.57920E+000	9	...........
	21	0.293333	6.46519E-001	-9.86467E-005	0.00000E+000	-6.37770E-005	-5.99601E-002	6.46783E-001	3.57920E+000	9	...........
	22	0.306667	6.36939E-001	-9.87613E-005	0.00000E+000	-6.29050E-005	-5.99601E-002	6.37227E-001	3.57920E+000	9	...........
	23	0.32	6.27363E-001	-9.75340E-005	0.00000E+000	-6.11893E-005	-5.99601E-002	6.27654E-001	3.57920E+000	9	...........
	24	0.333333	6.17788E-001	-9.84102E-005	0.00000E+000	-6.07967E-005	-5.99601E-002	6.18057E-001	3.57920E+000	9	...........
	25	0.346667	6.08164E-001	-9.91760E-005	0.00000E+000	-6.03152E-005	-5.99601E-002	6.08450E-001	3.57920E+000	9	...........
	26	0.36	5.98620E-001	-9.91437E-005	0.00000E+000	-5.93494E-005	-5.99601E-002	5.98913E-001	3.57920E+000	9	...........
	27	0.373333	5.89059E-001	-9.92187E-005	0.00000E+000	-5.84457E-005	-5.99601E-002	5.89342E-001	3.57920E+000	9	...........
	28	0.386667	5.79453E-001	-9.88249E-005	0.00000E+000	-5.72644E-005	-5.99601E-002	5.79718E-001	3.57920E+000	9	...........
	29	0.4	5.69890E-001	-9.85436E-005	0.00000E+000	-5.61590E-005	-5.99601E-002	5.70165E-001	3.57920E+000	9	...........
	30	0.413333	5.60288E-001	-9.84321E-005	0.00000E+000	-5.51504E-005	-5.99601E-002	5.60557E-001	3.57920E+000	9	...........
	31	0.426667	5.50735E-001	-9.75027E-005	0.00000E+000	-5.36982E-005	-5.99601E-002	5.50979E-001	3.57920E+000	9	...........
	32	0.44	5.41170E-001	-9.88614E-005	0.00000E+000	-5.35008E-005	-5.99601E-002	5.41396E-001	3.57920E+000	9	...........
	33	0.453333	5.31579E-001	-9.86144E-005	0.00000E+000	-5.24214E-005	-5.99601E-002	5.31814E-001	3.57920E+000	9	...........
	34	0.466667	5.22054E-001	-9.95063E-005	0.00000E+000	-5.19477E-005	-5.99601E-002	5.22250E-001	3.57920E+000	9	...........
	35	0.48	5.12473E-001	-9.97251E-005	0.00000E+000	-5.11064E-005	-5.99601E-002	5.12676E-001	3.57920E+000	9	...........
	36	0.493333	5.02895E-001	-9.88759E-005	0.00000E+000	-4.97242E-005	-5.99601E-002	5.03124E-001	3.57920E+000	9	...........
	37	0.506667	4.93364E-001	-9.99543E-005	0.00000E+000	-4.93138E-005	-5.99601E-002	4.93586E-001	3.57920E+000	9	...........
	38	0.52	4.84023E-001	-9.86238E-005	0.00000E+000	-4.77362E-005	-5.99601E-002	4.84195E-001	3.57901E+000	9	...........
	39	0.533333	4.74687E-001	-9.93854E-005	0.00000E+000	-4.71770E-005	-5.99601E-002	4.74788E-001	3.57870E+000	9	...........
	40	0.546667	4.65182E-001	-9.97397E-005	0.00000E+000	-4.63971E-005	-5.99601E-002	4.65284E-001	3.57870E+000	9	...........
	41	0.56	4.55701E-001	-9.95896E-005	0.00000E+000	-4.53831E-005	-5.99601E-002	4.55796E-001	3.57870E+000	9	...........
	42	0.573333	4.46234E-001	-9.90676E-005	0.00000E+000	-4.42073E-005	-5.99601E-002	4.46330E-001	3.57870E+000	9	...........
	43	0.586667	4.36780E-001	-9.87936E-005	0.00000E+000	-4.31511E-005	-5.99601E-002	4.36880E-001	3.57870E+000	9	...........
	44	0.6	4.27353E-001	-9.92500E-005	0.00000E+000	-4.24148E-005	-5.99601E-002	4.27441E-001	3.57870E+000	9	...........
	45	0.613333	4.17943E-001	-9.78768E-005	0.00000E+000	-4.09070E-005	-5.99601E-002	4.18033E-001	3.57870E+000	9	...........
	46	0.626667	4.08560E-001	-9.91979E-005	0.00000E+000	-4.05283E-005	-5.99601E-002	4.08642E-001	3.57870E+000	9	...........
	47	0.64	3.99188E-001	-9.96730E-005	0.00000E+000	-3.97882E-005	-5.99601E-002	3.99271E-001	3.57870E+000	9	...........
	48	0.653333	3.89845E-001	-9.78882E-005	0.00000E+000	-3.81612E-005	-5.99601E-002	3.89925E-001	3.57870E+000	9	...........
	49	0.666667	3.80526E-001	-9.96563E-005	0.00000E+000	-3.79218E-005	-5.99601E-002	3.80598E-001	3.57870E+000	9	...........
	50	0.68	3.71226E-001	-9.84008E-005	0.00000E+000	-3.65289E-005	-5.99601E-002	3.71298E-001	3.57870E+000	9	...........
	51	0.693333	3.61952E-001	-9.83717E-005	0.00000E+000	-3.56058E-005	-5.99601E-002	3.62025E-001	3.57870E+000	9	...........
	52	0.706667	3.52698E-001	-9.94709E-005	0.00000E+000	-3.50832E-005	-5.99601E-002	3.52764E-001	3.57870E+000	9	...........
	53	0.72	3.43463E-001	-9.87572E-005	0.00000E+000	-3.39194E-005	-5.99601E-002	3.43532E-001	3.57870E+000	9	...........
	54	0.733333	3.34263E-001	-9.92406E-005	0.00000E+000	-3.31724E-005	-5.99601E-002	3.34322E-001	3.57870E+000	9	...........
	55	0.746667	3.25079E-001	-9.88957E-005	0.00000E+000	-3.21489E-005	-5.99601E-002	3.25135E-001	3.57870E+000	9	...........
	56	0.76	3.15909E-001	-9.86009E-005	0.00000E+000	-3.11489E-005	-5.99601E-002	3.15977E-001	3.57870E+000	9	...........
	57	0.773333	3.06768E-001	-9.85415E-005	0.00000E+000	-3.02293E-005	-5.99601E-002	3.06826E-001	3.57870E+000	9	...........
	58	0.786667	2.97642E-001	-9.84154E-005	0.00000E+000	-2.92926E-005	-5.99601E-002	2.97700E-001	3.57870E+000	9	...........
	59	0.8	2.88545E-001	-9.98001E-005	0.00000E+000	-2.87968E-005	-5.99601E-002	2.88601E-001	3.57870E+000	9	...........
	60	0.813333	2.79465E-001	-9.82133E-005	0.00000E+000	-2.74471E-005	-5.99601E-002	2.79516E-001	3.57870E+000	9	...........
	61	0.826667	2.70405E-001	-9.81654E-005	0.00000E+000	-2.65444E-005	-5.99601E-002	2.70460E-001	3.57870E+000	9	...........
	62	0.84	2.61373E-001	-9.83790E-005	0.00000E+000	-2.57136E-005	-5.99601E-002	2.61418E-001	3.57870E+000	9	...........
	63	0.853333	2.52355E-001	-9.87843E-005	0.00000E+000	-2.49287E-005	-5.99601E-002	2.52407E-001	3.57870E+000	9	...........
	64	0.866667	2.43371E-001	-9.83039E-005	0.00000E+000	-2.39243E-005	-5.99601E-002	2.43412E-001	3.57870E+000	9	...........
	65	0.88	2.34401E-001	-9.81893E-005	0.00000E+000	-2.30157E-005	-5.99601E-002	2.34441E-001	3.57870E+000	9	...........
	66	0.893333	2.25457E-001	-9.98418E-005	0.00000E+000	-2.25100E-005	-5.99601E-002	2.25488E-001	3.57870E+000	9	...........
	67	0.906667	2.16530E-001	-9.90770E-005	0.00000E+000	-2.14532E-005	-5.99601E-002	2.16562E-001	3.57870E+000	9	...........
	68	0.92	2.07627E-001	-9.83487E-005	0.00000E+000	-2.04199E-005	-5.99601E-002	2.07655E-001	3.57870E+000	9	...........
	69	0.933333	1.98751E-001	-9.93427E-005	0.00000E+000	-1.97444E-005	-5.99601E-002	1.98784E-001	3.57870E+000	9	...........
	70	0.946667	1.89902E-001	-9.94677E-005	0.00000E+000	-1.88891E-005	-5.99601E-002	1.89937E-001	3.57870E+000	9	...........
	71	0.96	1.81088E-001	-9.82487E-005	0.00000E+000	-1.77917E-005	-5.99601E-002	1.81115E-001	3.57870E+000	9	...........
	72	0.97333	1.72300E-001	-9.95667E-005	0.00000E+000	-1.71553E-005	-5.99601E-002	1.72326E-001	3.57870E+000	9	...........
	73	0.98667	1.63551E-001	-9.93823E-005	0.00000E+000	-1.62541E-005	-5.99601E-002	1.63578E-001	3.57870E+000	9	...........
	74	1	1.54836E-001	-9.89812E-005	0.00000E+000	-1.53258E-005	-5.99601E-002	1.54858E-001	3.57870E+000	9	...........
	75	1.01333	1.46167E-001	-9.98449E-005	0.00000E+000	-1.45940E-005	-5.99601E-002	1.46182E-001	3.57870E+000	9	...........
	76	1.02667	1.37530E-001	-9.92625E-005	0.00000E+000	-1.36516E-005	-5.99601E-002	1.37546E-001	3.57870E+000	9	...........
	77	1.04	1.28940E-001	-9.83279E-005	0.00000E+000	-1.26784E-005	-5.99601E-002	1.28951E-001	3.57870E+000	9	...........
	78	1.05333	1.20397E-001	-9.85384E-005	0.00000E+000	-1.18638E-005	-5.99601E-002	1.20413E-001	3.57870E+000	9	...........
	79	1.06667	1.11900E-001	-9.88374E-005	0.00000E+000	-1.10599E-005	-5.99601E-002	1.11913E-001	3.57870E+000	9	...........
	80	1.08	1.03456E-001	-9.91354E-005	0.00000E+000	-1.02562E-005	-5.99601E-002	1.03475E-001	3.57870E+000	9	...........
	81	1.09333	9.50734E-002	-9.94854E-005	0.00000E+000	-9.45842E-006	-5.99601E-002	9.50795E-002	3.57870E+000	9	...........
	82	1.10667	8.67407E-002	-9.75392E-005	0.00000E+000	-8.46062E-006	-5.99601E-002	8.67494E-002	3.57870E+000	9	...........
	83	1.12	7.84736E-002	-9.85665E-005	0.00000E+000	-7.73487E-006	-5.99601E-002	7.84768E-002	3.57870E+000	9	...........
	84	1.13333	7.02661E-002	-9.89885E-005	0.00000E+000	-6.95553E-006	-5.99601E-002	7.02643E-002	3.57870E+000	9	...........
	85	1.14667	6.21211E-002	-9.82477E-005	0.00000E+000	-6.10325E-006	-5.99601E-002	6.21204E-002	3.57870E+000	9	...........
	86	1.16	5.40327E-002	-9.79174E-005	0.00000E+000	-5.29075E-006	-5.99601E-002	5.40346E-002	3.57870E+000	9	...........
	87	1.17333	4.60504E-002	-9.78476E-005	0.00000E+000	-4.50592E-006	-5.99601E-002	4.60430E-002	3.57870E+000	9	...........
	88	1.18667	3.81046E-002	-9.82914E-005	0.00000E+000	-3.74536E-006	-5.99601E-002	3.80911E-002	3.57870E+000	9	...........
	89	1.2	3.02134E-002	-9.87238E-005	0.00000E+000	-2.98279E-006	-5.99601E-002	3.01987E-002	3.57870E+000	9	...........
	90	1.21333	2.23883E-002	-9.90937E-005	0.00000E+000	-2.21854E-006	-5.99601E-002	2.23628E-002	3.57870E+000	9	...........
	91	1.22667	1.46192E-002	-9.99282E-005	0.00000E+000	-1.46087E-006	-5.99601E-002	1.45927E-002	3.57870E+000	9	...........
	92	1.24	6.91268E-003	-9.92239E-005	0.00000E+000	-6.85904E-007	-5.99601E-002	6.88559E-003	3.57870E+000	9	...........
	93	1.24667	1.17964E-003	-9.67432E-005	0.00000E+000	-1.14122E-007	-5.99601E-002	1.14148E-003	3.57870E+000	9	...........
STARTTIMEOFFSET	QUANT	89.175	Start Time Offset (s)
