EXPLAIN
TAG	PWR800_DISCHARGE
TITLE	LABEL	PWR Cyclic Charge Discharge (Cell) - Discharge Step	Test &Identifier
DATE	LABEL	13-7-2017	Date
TIME	LABEL	15:35:49	Time
NOTES	NOTES	2	&Notes...
	supercap test cell
	6M KOH
PSTAT	PSTAT	IFC5000-01520	Potentiostat
CAPACITY	QUANT	1.00000E-003	Capacity (A-hr)
CELLTYPE	SELECTOR	1	&Cell Type
WORKINGCONNECTION	SELECTOR	0	&Working Lead
MAXDISCHARGETIME	VARIABLEANDUNITS	1.00000E+002	s	1.00000E+002	second(s)	Max &Discharge Time
DISCHARGEMODE	MULTIPARAM	0	1.00000E-004	&Discharge Mode	Constant Current	Amp(s)
SAMPLETIME	QUANT	1.00000E-002	Sa&mple Period (s)
DISCHARGESTOPAT1	MULTIPARAM	3	0.00000E+000	Discharge Stop At &1	Voltage < Limit	V
DISCHARGESTOPAT2	MULTIPARAM	0	0.00000E+000	Discharge Stop At &2	None	N/A
AESBHCSELECTOR	TOGGLE	F	Save Both Half Cells
IRCOMP	TOGGLE	F	IR &Measure
EOC	QUANT	0	Open Circuit (V)
SEQUENCER	TOGGLE	TRUE	Run as Sequence
PSTATMODEL	IQUANT	53	Pstat Model
PSTATSECTION	LABEL	IFC5000-01520	Pstat Section
PSTATSERIALNO	LABEL	01520	Pstat Serial Number
CTRLMODE	IQUANT	0	Control Mode
ELECTROMETER	IQUANT	1	RE=0 or CS=1
IESTAB	IQUANT	0	I/E Stability
CASPEED	IQUANT	4	Control Amp Speed
CONVENTION	IQUANT	1	Current Convention
ICHRANGE	IQUANT	2	Ich Range
ICHRANGEMODE	TOGGLE	T	Ich Auto Range
ICHOFFSETENABLE	TOGGLE	F	Ich Offset Enable
ICHOFFSET	QUANT	0	Ich Offset (V)
ICHFILTER	IQUANT	1	Ich Filter
VCHRANGE	IQUANT	2	Vch Range
VCHRANGEMODE	TOGGLE	T	Vch Auto Range
VCHOFFSETENABLE	TOGGLE	F	Vch Offset Enable
VCHOFFSET	QUANT	0	Vch Offset (V)
VCHFILTER	IQUANT	1	Vch Filter
IERANGELOWERLIMIT	IQUANT	9	I/E Range Lower Limit
IERANGEMODE	TOGGLE	F	I/E AutoRange
IERANGE	IQUANT	9	I/E Range
ACHSELECT	IQUANT	1	Ach Select
ACHRANGE	IQUANT	2	Ach Range
ACHOFFSETENABLE	TOGGLE	F	Ach Offset Enable
ACHOFFSET	QUANT	0	Ach Offset (V)
ACHFILTER	IQUANT	1	Ach Filter
CABLEID	IQUANT	14	Cable ID
DCCALDATE	LABEL	5-7-2017	DC Calibration Date
ACCALDATE	LABEL	12/3/2015	AC Calibration Date
FRAMEWORKVERSION	QUANT	7.01	Framework Version
INSTRUMENTVERSION	LABEL	4.00	Instrument Version
CURVE	TABLE	87
	Pt	T	Vf	Im	Vu	Pwr	Sig	Ach	Temp	IERange	Over
	#	s	V	A	V	W	V	V	deg C	#	bits
	0	0.013333	8.47051E-001	-9.84873E-005	0.00000E+000	-8.34238E-005	-5.99601E-002	8.47379E-001	3.57890E+000	9	...........
	1	0.026667	8.32903E-001	-9.88676E-005	0.00000E+000	-8.23471E-005	-5.99601E-002	8.33210E-001	3.57890E+000	9	...........
	2	0.04	8.19649E-001	-9.90916E-005	0.00000E+000	-8.12204E-005	-5.99601E-002	8.19942E-001	3.57890E+000	9	...........
	3	0.053333	8.06948E-001	-9.97636E-005	0.00000E+000	-8.05041E-005	-5.99601E-002	8.07202E-001	3.57890E+000	9	...........
	4	0.066667	7.94633E-001	-9.91896E-005	0.00000E+000	-7.88192E-005	-5.99601E-002	7.94910E-001	3.57890E+000	9	...........
	5	0.08	7.82618E-001	-9.97928E-005	0.00000E+000	-7.80997E-005	-5.99601E-002	7.82909E-001	3.57890E+000	9	...........
	6	0.093333	7.70831E-001	-9.86655E-005	0.00000E+000	-7.60544E-005	-5.99601E-002	7.71090E-001	3.57890E+000	9	...........
	7	0.106667	7.59188E-001	-9.82362E-005	0.00000E+000	-7.45798E-005	-5.99601E-002	7.59464E-001	3.57890E+000	9	...........
	8	0.12	7.47687E-001	-9.84623E-005	0.00000E+000	-7.36189E-005	-5.99601E-002	7.47953E-001	3.57890E+000	9	...........
	9	0.133333	7.36241E-001	-9.81445E-005	0.00000E+000	-7.22580E-005	-5.99601E-002	7.36529E-001	3.57890E+000	9	...........
	10	0.146667	7.24912E-001	-9.87447E-005	0.00000E+000	-7.15812E-005	-5.99601E-002	7.25204E-001	3.57890E+000	9	...........
	11	0.16	7.13611E-001	-9.93979E-005	0.00000E+000	-7.09315E-005	-5.99601E-002	7.13864E-001	3.57890E+000	9	...........
	12	0.173333	7.02358E-001	-9.86551E-005	0.00000E+000	-6.92912E-005	-5.99601E-002	7.02605E-001	3.57890E+000	9	...........
	13	0.186667	6.91157E-001	-9.89332E-005	0.00000E+000	-6.83784E-005	-5.99601E-002	6.91403E-001	3.57890E+000	9	...........
	14	0.2	6.79979E-001	-9.89020E-005	0.00000E+000	-6.72513E-005	-5.99601E-002	6.80222E-001	3.57890E+000	9	...........
	15	0.213333	6.68854E-001	-9.92093E-005	0.00000E+000	-6.63565E-005	-5.99601E-002	6.69093E-001	3.57890E+000	9	...........
	16	0.226667	6.57717E-001	-9.89270E-005	0.00000E+000	-6.50660E-005	-5.99601E-002	6.57949E-001	3.57890E+000	9	...........
	17	0.24	6.46617E-001	-9.86540E-005	0.00000E+000	-6.37913E-005	-5.99601E-002	6.46867E-001	3.57890E+000	9	...........
	18	0.253333	6.35511E-001	-9.94250E-005	0.00000E+000	-6.31857E-005	-5.99601E-002	6.35773E-001	3.57890E+000	9	...........
	19	0.266667	6.24486E-001	-9.89009E-005	0.00000E+000	-6.17623E-005	-5.99601E-002	6.24721E-001	3.57890E+000	9	...........
	20	0.28	6.13422E-001	-9.94115E-005	0.00000E+000	-6.09812E-005	-5.99601E-002	6.13707E-001	3.57890E+000	9	...........
	21	0.293333	6.02392E-001	-9.93583E-005	0.00000E+000	-5.98526E-005	-5.99601E-002	6.02680E-001	3.57890E+000	9	...........
	22	0.306667	5.91416E-001	-9.90551E-005	0.00000E+000	-5.85828E-005	-5.99601E-002	5.91706E-001	3.57890E+000	9	...........
	23	0.32	5.80421E-001	-9.88009E-005	0.00000E+000	-5.73461E-005	-5.99601E-002	5.80697E-001	3.57890E+000	9	...........
	24	0.333333	5.69512E-001	-9.89895E-005	0.00000E+000	-5.63757E-005	-5.99601E-002	5.69766E-001	3.57890E+000	9	...........
	25	0.346667	5.58583E-001	-9.92364E-005	0.00000E+000	-5.54318E-005	-5.99601E-002	5.58835E-001	3.57890E+000	9	...........
	26	0.36	5.47691E-001	-9.90051E-005	0.00000E+000	-5.42243E-005	-5.99601E-002	5.47969E-001	3.57890E+000	9	...........
	27	0.373333	5.36896E-001	-9.83998E-005	0.00000E+000	-5.28305E-005	-5.99601E-002	5.37130E-001	3.57890E+000	9	...........
	28	0.386667	5.26085E-001	-9.86957E-005	0.00000E+000	-5.19223E-005	-5.99601E-002	5.26317E-001	3.57890E+000	9	...........
	29	0.4	5.15338E-001	-9.88499E-005	0.00000E+000	-5.09411E-005	-5.99601E-002	5.15584E-001	3.57890E+000	9	...........
	30	0.413333	5.04608E-001	-9.81831E-005	0.00000E+000	-4.95440E-005	-5.99601E-002	5.04893E-001	3.57890E+000	9	...........
	31	0.426667	4.93984E-001	-9.85634E-005	0.00000E+000	-4.86887E-005	-5.99601E-002	4.94255E-001	3.57890E+000	9	...........
	32	0.44	4.83629E-001	-9.89749E-005	0.00000E+000	-4.78672E-005	-5.99601E-002	4.83776E-001	3.57890E+000	9	...........
	33	0.453333	4.73234E-001	-9.89978E-005	0.00000E+000	-4.68491E-005	-5.99601E-002	4.73336E-001	3.57890E+000	9	...........
	34	0.466667	4.62762E-001	-9.85498E-005	0.00000E+000	-4.56051E-005	-5.99601E-002	4.62855E-001	3.57890E+000	9	...........
	35	0.48	4.52345E-001	-9.83498E-005	0.00000E+000	-4.44881E-005	-5.99601E-002	4.52441E-001	3.57890E+000	9	...........
	36	0.493333	4.41998E-001	-9.91708E-005	0.00000E+000	-4.38333E-005	-5.99601E-002	4.42088E-001	3.57890E+000	9	...........
	37	0.506667	4.31713E-001	-9.92885E-005	0.00000E+000	-4.28641E-005	-5.99601E-002	4.31802E-001	3.57890E+000	9	...........
	38	0.52	4.21490E-001	-9.83487E-005	0.00000E+000	-4.14530E-005	-5.99601E-002	4.21573E-001	3.57890E+000	9	...........
	39	0.533333	4.11328E-001	-9.85332E-005	0.00000E+000	-4.05294E-005	-5.99601E-002	4.11414E-001	3.57890E+000	9	...........
	40	0.546667	4.01239E-001	-9.88541E-005	0.00000E+000	-3.96641E-005	-5.99601E-002	4.01317E-001	3.57890E+000	9	...........
	41	0.56	3.91207E-001	-9.86884E-005	0.00000E+000	-3.86076E-005	-5.99601E-002	3.91279E-001	3.57890E+000	9	...........
	42	0.573333	3.81239E-001	-9.93750E-005	0.00000E+000	-3.78856E-005	-5.99601E-002	3.81308E-001	3.57890E+000	9	...........
	43	0.586667	3.71334E-001	-9.88916E-005	0.00000E+000	-3.67218E-005	-5.99601E-002	3.71403E-001	3.57890E+000	9	...........
	44	0.6	3.61489E-001	-9.88645E-005	0.00000E+000	-3.57384E-005	-5.99601E-002	3.61553E-001	3.57890E+000	9	...........
	45	0.613333	3.51704E-001	-9.87895E-005	0.00000E+000	-3.47447E-005	-5.99601E-002	3.51769E-001	3.57890E+000	9	...........
	46	0.626667	3.41972E-001	-9.91531E-005	0.00000E+000	-3.39076E-005	-5.99601E-002	3.42037E-001	3.57890E+000	9	...........
	47	0.64	3.32299E-001	-1.00048E-004	0.00000E+000	-3.32459E-005	-5.99601E-002	3.32362E-001	3.57890E+000	9	...........
	48	0.653333	3.22696E-001	-9.89280E-005	0.00000E+000	-3.19237E-005	-5.99601E-002	3.22750E-001	3.57890E+000	9	...........
	49	0.666667	3.13135E-001	-9.75455E-005	0.00000E+000	-3.05449E-005	-5.99601E-002	3.13189E-001	3.57890E+000	9	...........
	50	0.68	3.03619E-001	-9.89437E-005	0.00000E+000	-3.00412E-005	-5.99601E-002	3.03675E-001	3.57890E+000	9	...........
	51	0.693333	2.94169E-001	-9.90270E-005	0.00000E+000	-2.91307E-005	-5.99601E-002	2.94219E-001	3.57890E+000	9	...........
	52	0.706667	2.84763E-001	-9.88051E-005	0.00000E+000	-2.81361E-005	-5.99601E-002	2.84812E-001	3.57890E+000	9	...........
	53	0.72	2.75404E-001	-9.81852E-005	0.00000E+000	-2.70406E-005	-5.99601E-002	2.75455E-001	3.57890E+000	9	...........
	54	0.733333	2.66096E-001	-9.94719E-005	0.00000E+000	-2.64691E-005	-5.99601E-002	2.66140E-001	3.57890E+000	9	...........
	55	0.746667	2.56838E-001	-9.90520E-005	0.00000E+000	-2.54403E-005	-5.99601E-002	2.56881E-001	3.57890E+000	9	...........
	56	0.76	2.47630E-001	-9.81466E-005	0.00000E+000	-2.43041E-005	-5.99601E-002	2.47668E-001	3.57890E+000	9	...........
	57	0.773333	2.38461E-001	-9.80174E-005	0.00000E+000	-2.33733E-005	-5.99601E-002	2.38497E-001	3.57890E+000	9	...........
	58	0.786667	2.29352E-001	-9.86134E-005	0.00000E+000	-2.26172E-005	-5.99601E-002	2.29383E-001	3.57890E+000	9	...........
	59	0.8	2.20280E-001	-9.95480E-005	0.00000E+000	-2.19284E-005	-5.99601E-002	2.20312E-001	3.57890E+000	9	...........
	60	0.813333	2.11259E-001	-9.82185E-005	0.00000E+000	-2.07496E-005	-5.99601E-002	2.11289E-001	3.57890E+000	9	...........
	61	0.826667	2.02293E-001	-9.88832E-005	0.00000E+000	-2.00034E-005	-5.99601E-002	2.02330E-001	3.57890E+000	9	...........
	62	0.84	1.93380E-001	-9.88905E-005	0.00000E+000	-1.91235E-005	-5.99601E-002	1.93411E-001	3.57890E+000	9	...........
	63	0.853333	1.84520E-001	-9.86853E-005	0.00000E+000	-1.82094E-005	-5.99601E-002	1.84555E-001	3.57890E+000	9	...........
	64	0.866667	1.75723E-001	-9.88395E-005	0.00000E+000	-1.73683E-005	-5.99601E-002	1.75750E-001	3.57890E+000	9	...........
	65	0.88	1.66989E-001	-9.86936E-005	0.00000E+000	-1.64808E-005	-5.99601E-002	1.67012E-001	3.57890E+000	9	...........
	66	0.893333	1.58318E-001	-9.83415E-005	0.00000E+000	-1.55692E-005	-5.99601E-002	1.58341E-001	3.57890E+000	9	...........
	67	0.906667	1.49714E-001	-9.89166E-005	0.00000E+000	-1.48092E-005	-5.99601E-002	1.49732E-001	3.57890E+000	9	...........
	68	0.92	1.41171E-001	-9.92760E-005	0.00000E+000	-1.40149E-005	-5.99601E-002	1.41190E-001	3.57890E+000	9	...........
	69	0.933333	1.32708E-001	-9.93750E-005	0.00000E+000	-1.31878E-005	-5.99601E-002	1.32722E-001	3.57890E+000	9	...........
	70	0.946667	1.24314E-001	-9.81060E-005	0.00000E+000	-1.21960E-005	-5.99601E-002	1.24328E-001	3.57890E+000	9	...........
	71	0.96	1.15989E-001	-9.81685E-005	0.00000E+000	-1.13865E-005	-5.99601E-002	1.16001E-001	3.57890E+000	9	...........
	72	0.97333	1.07736E-001	-9.93667E-005	0.00000E+000	-1.07054E-005	-5.99601E-002	1.07749E-001	3.57890E+000	9	...........
	73	0.98667	9.95595E-002	-9.82998E-005	0.00000E+000	-9.78668E-006	-5.99601E-002	9.95666E-002	3.57886E+000	9	...........
	74	1	9.14541E-002	-9.95240E-005	0.00000E+000	-9.10188E-006	-5.99601E-002	9.14591E-002	3.57860E+000	9	...........
	75	1.01333	8.34268E-002	-9.94729E-005	0.00000E+000	-8.29871E-006	-5.99601E-002	8.34277E-002	3.57860E+000	9	...........
	76	1.02667	7.54679E-002	-9.88905E-005	0.00000E+000	-7.46306E-006	-5.99601E-002	7.54704E-002	3.57860E+000	9	...........
	77	1.04	6.75849E-002	-9.90312E-005	0.00000E+000	-6.69301E-006	-5.99601E-002	6.75847E-002	3.57860E+000	9	...........
	78	1.05333	5.97664E-002	-9.83435E-005	0.00000E+000	-5.87763E-006	-5.99601E-002	5.97668E-002	3.57860E+000	9	...........
	79	1.06667	5.20219E-002	-9.95980E-005	0.00000E+000	-5.18127E-006	-5.99601E-002	5.20116E-002	3.57860E+000	9	...........
	80	1.08	4.43820E-002	-9.87988E-005	0.00000E+000	-4.38489E-006	-5.99601E-002	4.43674E-002	3.57860E+000	9	...........
	81	1.09333	3.67741E-002	-9.84175E-005	0.00000E+000	-3.61921E-006	-5.99601E-002	3.67626E-002	3.57860E+000	9	...........
	82	1.10667	2.92281E-002	-9.85394E-005	0.00000E+000	-2.88012E-006	-5.99601E-002	2.92103E-002	3.57860E+000	9	...........
	83	1.12	2.17467E-002	-9.90062E-005	0.00000E+000	-2.15306E-006	-5.99601E-002	2.17215E-002	3.57860E+000	9	...........
	84	1.13333	1.43378E-002	-9.96876E-005	0.00000E+000	-1.42930E-006	-5.99601E-002	1.43078E-002	3.57860E+000	9	...........
	85	1.14667	6.99038E-003	-9.84373E-005	0.00000E+000	-6.88114E-007	-5.99601E-002	6.95596E-003	3.57860E+000	9	...........
	86	1.155	1.06508E-003	-9.94671E-005	0.00000E+000	-1.05940E-007	-5.99601E-002	1.02681E-003	3.57860E+000	9	...........
STARTTIMEOFFSET	QUANT	1528.495	Start Time Offset (s)
