EXPLAIN
TAG	PWR800_DISCHARGE
TITLE	LABEL	PWR Cyclic Charge Discharge (Cell) - Discharge Step	Test &Identifier
DATE	LABEL	13-7-2017	Date
TIME	LABEL	15:04:59	Time
NOTES	NOTES	2	&Notes...
	supercap test cell
	6M KOH
PSTAT	PSTAT	IFC5000-01520	Potentiostat
CAPACITY	QUANT	1.00000E-003	Capacity (A-hr)
CELLTYPE	SELECTOR	1	&Cell Type
WORKINGCONNECTION	SELECTOR	0	&Working Lead
MAXDISCHARGETIME	VARIABLEANDUNITS	1.00000E+002	s	1.00000E+002	second(s)	Max &Discharge Time
DISCHARGEMODE	MULTIPARAM	0	1.00000E-004	&Discharge Mode	Constant Current	Amp(s)
SAMPLETIME	QUANT	1.00000E-002	Sa&mple Period (s)
DISCHARGESTOPAT1	MULTIPARAM	3	0.00000E+000	Discharge Stop At &1	Voltage < Limit	V
DISCHARGESTOPAT2	MULTIPARAM	0	0.00000E+000	Discharge Stop At &2	None	N/A
AESBHCSELECTOR	TOGGLE	F	Save Both Half Cells
IRCOMP	TOGGLE	F	IR &Measure
EOC	QUANT	0	Open Circuit (V)
SEQUENCER	TOGGLE	TRUE	Run as Sequence
PSTATMODEL	IQUANT	53	Pstat Model
PSTATSECTION	LABEL	IFC5000-01520	Pstat Section
PSTATSERIALNO	LABEL	01520	Pstat Serial Number
CTRLMODE	IQUANT	0	Control Mode
ELECTROMETER	IQUANT	1	RE=0 or CS=1
IESTAB	IQUANT	0	I/E Stability
CASPEED	IQUANT	4	Control Amp Speed
CONVENTION	IQUANT	1	Current Convention
ICHRANGE	IQUANT	2	Ich Range
ICHRANGEMODE	TOGGLE	T	Ich Auto Range
ICHOFFSETENABLE	TOGGLE	F	Ich Offset Enable
ICHOFFSET	QUANT	0	Ich Offset (V)
ICHFILTER	IQUANT	1	Ich Filter
VCHRANGE	IQUANT	2	Vch Range
VCHRANGEMODE	TOGGLE	T	Vch Auto Range
VCHOFFSETENABLE	TOGGLE	F	Vch Offset Enable
VCHOFFSET	QUANT	0	Vch Offset (V)
VCHFILTER	IQUANT	1	Vch Filter
IERANGELOWERLIMIT	IQUANT	9	I/E Range Lower Limit
IERANGEMODE	TOGGLE	F	I/E AutoRange
IERANGE	IQUANT	9	I/E Range
ACHSELECT	IQUANT	1	Ach Select
ACHRANGE	IQUANT	2	Ach Range
ACHOFFSETENABLE	TOGGLE	F	Ach Offset Enable
ACHOFFSET	QUANT	0	Ach Offset (V)
ACHFILTER	IQUANT	1	Ach Filter
CABLEID	IQUANT	14	Cable ID
DCCALDATE	LABEL	5-7-2017	DC Calibration Date
ACCALDATE	LABEL	12/3/2015	AC Calibration Date
FRAMEWORKVERSION	QUANT	7.01	Framework Version
INSTRUMENTVERSION	LABEL	4.00	Instrument Version
CURVE	TABLE	94
	Pt	T	Vf	Im	Vu	Pwr	Sig	Ach	Temp	IERange	Over
	#	s	V	A	V	W	V	V	deg C	#	bits
	0	0.013333	8.58441E-001	-9.84613E-005	0.00000E+000	-8.45232E-005	-5.99601E-002	8.58778E-001	3.57880E+000	9	...........
	1	0.026667	8.45721E-001	-9.88582E-005	0.00000E+000	-8.36065E-005	-5.99601E-002	8.46078E-001	3.57880E+000	9	...........
	2	0.04	8.33827E-001	-9.84998E-005	0.00000E+000	-8.21318E-005	-5.99601E-002	8.34125E-001	3.57880E+000	9	...........
	3	0.053333	8.22469E-001	-9.81820E-005	0.00000E+000	-8.07517E-005	-5.99601E-002	8.22780E-001	3.57880E+000	9	...........
	4	0.066667	8.11481E-001	-9.86811E-005	0.00000E+000	-8.00779E-005	-5.99601E-002	8.11788E-001	3.57880E+000	9	...........
	5	0.08	8.00820E-001	-9.86353E-005	0.00000E+000	-7.89891E-005	-5.99601E-002	8.01115E-001	3.57880E+000	9	...........
	6	0.093333	7.90349E-001	-9.89614E-005	0.00000E+000	-7.82140E-005	-5.99601E-002	7.90646E-001	3.57880E+000	9	...........
	7	0.106667	7.80061E-001	-9.89499E-005	0.00000E+000	-7.71870E-005	-5.99601E-002	7.80375E-001	3.57880E+000	9	...........
	8	0.12	7.69903E-001	-9.83540E-005	0.00000E+000	-7.57231E-005	-5.99601E-002	7.70227E-001	3.57880E+000	9	...........
	9	0.133333	7.59877E-001	-9.85665E-005	0.00000E+000	-7.48984E-005	-5.99601E-002	7.60159E-001	3.57880E+000	9	...........
	10	0.146667	7.49907E-001	-9.83508E-005	0.00000E+000	-7.37540E-005	-5.99601E-002	7.50202E-001	3.57880E+000	9	...........
	11	0.16	7.39987E-001	-9.88311E-005	0.00000E+000	-7.31338E-005	-5.99601E-002	7.40303E-001	3.57880E+000	9	...........
	12	0.173333	7.30151E-001	-9.92416E-005	0.00000E+000	-7.24614E-005	-5.99601E-002	7.30438E-001	3.57880E+000	9	...........
	13	0.186667	7.20348E-001	-9.88436E-005	0.00000E+000	-7.12018E-005	-5.99601E-002	7.20629E-001	3.57880E+000	9	...........
	14	0.2	7.10520E-001	-9.81289E-005	0.00000E+000	-6.97226E-005	-5.99601E-002	7.10801E-001	3.57880E+000	9	...........
	15	0.213333	7.00779E-001	-9.91229E-005	0.00000E+000	-6.94632E-005	-5.99601E-002	7.01069E-001	3.57880E+000	9	...........
	16	0.226667	6.91022E-001	-9.85655E-005	0.00000E+000	-6.81109E-005	-5.99601E-002	6.91295E-001	3.57880E+000	9	...........
	17	0.24	6.81312E-001	-9.82258E-005	0.00000E+000	-6.69224E-005	-5.99601E-002	6.81579E-001	3.57880E+000	9	...........
	18	0.253333	6.71581E-001	-9.85613E-005	0.00000E+000	-6.61919E-005	-5.99601E-002	6.71845E-001	3.57880E+000	9	...........
	19	0.266667	6.61836E-001	-9.95928E-005	0.00000E+000	-6.59141E-005	-5.99601E-002	6.62102E-001	3.57880E+000	9	...........
	20	0.28	6.52122E-001	-9.87999E-005	0.00000E+000	-6.44296E-005	-5.99601E-002	6.52378E-001	3.57880E+000	9	...........
	21	0.293333	6.42425E-001	-9.88384E-005	0.00000E+000	-6.34963E-005	-5.99601E-002	6.42671E-001	3.57880E+000	9	...........
	22	0.306667	6.32673E-001	-9.83404E-005	0.00000E+000	-6.22173E-005	-5.99601E-002	6.32944E-001	3.57880E+000	9	...........
	23	0.32	6.22982E-001	-9.83612E-005	0.00000E+000	-6.12773E-005	-5.99601E-002	6.23226E-001	3.57880E+000	9	...........
	24	0.333333	6.13237E-001	-9.88916E-005	0.00000E+000	-6.06439E-005	-5.99601E-002	6.13523E-001	3.57880E+000	9	...........
	25	0.346667	6.03481E-001	-9.91864E-005	0.00000E+000	-5.98571E-005	-5.99601E-002	6.03792E-001	3.57880E+000	9	...........
	26	0.36	5.93802E-001	-9.98647E-005	0.00000E+000	-5.92999E-005	-5.99601E-002	5.94096E-001	3.57880E+000	9	...........
	27	0.373333	5.84064E-001	-9.80695E-005	0.00000E+000	-5.72788E-005	-5.99601E-002	5.84361E-001	3.57880E+000	9	...........
	28	0.386667	5.74374E-001	-9.88509E-005	0.00000E+000	-5.67774E-005	-5.99601E-002	5.74657E-001	3.57880E+000	9	...........
	29	0.4	5.64669E-001	-9.97376E-005	0.00000E+000	-5.63187E-005	-5.99601E-002	5.64940E-001	3.57880E+000	9	...........
	30	0.413333	5.54918E-001	-9.92458E-005	0.00000E+000	-5.50733E-005	-5.99601E-002	5.55235E-001	3.57880E+000	9	...........
	31	0.426667	5.45259E-001	-9.92323E-005	0.00000E+000	-5.41073E-005	-5.99601E-002	5.45542E-001	3.57880E+000	9	...........
	32	0.44	5.35534E-001	-9.84384E-005	0.00000E+000	-5.27171E-005	-5.99601E-002	5.35862E-001	3.57880E+000	9	...........
	33	0.453333	5.25865E-001	-9.89947E-005	0.00000E+000	-5.20578E-005	-5.99601E-002	5.26182E-001	3.57880E+000	9	...........
	34	0.466667	5.16221E-001	-9.90093E-005	0.00000E+000	-5.11107E-005	-5.99601E-002	5.16491E-001	3.57880E+000	9	...........
	35	0.48	5.06521E-001	-9.78591E-005	0.00000E+000	-4.95677E-005	-5.99601E-002	5.06820E-001	3.57880E+000	9	...........
	36	0.493333	4.96906E-001	-9.83456E-005	0.00000E+000	-4.88686E-005	-5.99601E-002	4.97166E-001	3.57880E+000	9	...........
	37	0.506667	4.87379E-001	-9.85113E-005	0.00000E+000	-4.80123E-005	-5.99601E-002	4.87575E-001	3.57880E+000	9	...........
	38	0.52	4.78064E-001	-9.86509E-005	0.00000E+000	-4.71614E-005	-5.99601E-002	4.78161E-001	3.57880E+000	9	...........
	39	0.533333	4.68478E-001	-9.92156E-005	0.00000E+000	-4.64804E-005	-5.99601E-002	4.68572E-001	3.57880E+000	9	...........
	40	0.546667	4.58914E-001	-9.91823E-005	0.00000E+000	-4.55162E-005	-5.99601E-002	4.59005E-001	3.57880E+000	9	...........
	41	0.56	4.49366E-001	-9.90124E-005	0.00000E+000	-4.44928E-005	-5.99601E-002	4.49456E-001	3.57880E+000	9	...........
	42	0.573333	4.39849E-001	-9.86426E-005	0.00000E+000	-4.33878E-005	-5.99601E-002	4.39937E-001	3.57880E+000	9	...........
	43	0.586667	4.30351E-001	-9.97480E-005	0.00000E+000	-4.29267E-005	-5.99601E-002	4.30438E-001	3.57880E+000	9	...........
	44	0.6	4.20887E-001	-9.88968E-005	0.00000E+000	-4.16244E-005	-5.99601E-002	4.20974E-001	3.57880E+000	9	...........
	45	0.613333	4.11451E-001	-9.89895E-005	0.00000E+000	-4.07293E-005	-5.99601E-002	4.11531E-001	3.57880E+000	9	...........
	46	0.626667	4.02043E-001	-9.95188E-005	0.00000E+000	-4.00108E-005	-5.99601E-002	4.02120E-001	3.57880E+000	9	...........
	47	0.64	3.92669E-001	-9.85019E-005	0.00000E+000	-3.86787E-005	-5.99601E-002	3.92739E-001	3.57880E+000	9	...........
	48	0.653333	3.83311E-001	-9.90156E-005	0.00000E+000	-3.79538E-005	-5.99601E-002	3.83381E-001	3.57880E+000	9	...........
	49	0.666667	3.73986E-001	-9.96292E-005	0.00000E+000	-3.72599E-005	-5.99601E-002	3.74059E-001	3.57880E+000	9	...........
	50	0.68	3.64697E-001	-9.90562E-005	0.00000E+000	-3.61255E-005	-5.99601E-002	3.64770E-001	3.57880E+000	9	...........
	51	0.693333	3.55435E-001	-9.88989E-005	0.00000E+000	-3.51521E-005	-5.99601E-002	3.55500E-001	3.57880E+000	9	...........
	52	0.706667	3.46196E-001	-9.95563E-005	0.00000E+000	-3.44659E-005	-5.99601E-002	3.46263E-001	3.57880E+000	9	...........
	53	0.72	3.36989E-001	-9.83050E-005	0.00000E+000	-3.31277E-005	-5.99601E-002	3.37050E-001	3.57880E+000	9	...........
	54	0.733333	3.27810E-001	-9.80633E-005	0.00000E+000	-3.21461E-005	-5.99601E-002	3.27872E-001	3.57880E+000	9	...........
	55	0.746667	3.18655E-001	-9.87322E-005	0.00000E+000	-3.14615E-005	-5.99601E-002	3.18713E-001	3.57880E+000	9	...........
	56	0.76	3.09527E-001	-9.85998E-005	0.00000E+000	-3.05193E-005	-5.99601E-002	3.09586E-001	3.57880E+000	9	...........
	57	0.773333	3.00425E-001	-9.87009E-005	0.00000E+000	-2.96522E-005	-5.99601E-002	3.00482E-001	3.57880E+000	9	...........
	58	0.786667	2.91354E-001	-9.89124E-005	0.00000E+000	-2.88185E-005	-5.99601E-002	2.91407E-001	3.57880E+000	9	...........
	59	0.8	2.82299E-001	-9.83487E-005	0.00000E+000	-2.77638E-005	-5.99601E-002	2.82361E-001	3.57880E+000	9	...........
	60	0.813333	2.73288E-001	-9.83008E-005	0.00000E+000	-2.68644E-005	-5.99601E-002	2.73338E-001	3.57880E+000	9	...........
	61	0.826667	2.64288E-001	-9.91343E-005	0.00000E+000	-2.62000E-005	-5.99601E-002	2.64343E-001	3.57880E+000	9	...........
	62	0.84	2.55320E-001	-9.82341E-005	0.00000E+000	-2.50812E-005	-5.99601E-002	2.55368E-001	3.57880E+000	9	...........
	63	0.853333	2.46378E-001	-9.88645E-005	0.00000E+000	-2.43580E-005	-5.99601E-002	2.46421E-001	3.57880E+000	9	...........
	64	0.866667	2.37461E-001	-9.89760E-005	0.00000E+000	-2.35029E-005	-5.99601E-002	2.37497E-001	3.57950E+000	9	...........
	65	0.88	2.28569E-001	-9.80320E-005	0.00000E+000	-2.24071E-005	-5.99601E-002	2.28602E-001	3.58020E+000	9	...........
	66	0.893333	2.19709E-001	-9.84686E-005	0.00000E+000	-2.16344E-005	-5.99601E-002	2.19744E-001	3.58020E+000	9	...........
	67	0.906667	2.10878E-001	-9.84561E-005	0.00000E+000	-2.07622E-005	-5.99601E-002	2.10908E-001	3.58020E+000	9	...........
	68	0.92	2.02068E-001	-9.95271E-005	0.00000E+000	-2.01112E-005	-5.99601E-002	2.02100E-001	3.58020E+000	9	...........
	69	0.933333	1.93293E-001	-9.87749E-005	0.00000E+000	-1.90925E-005	-5.99601E-002	1.93324E-001	3.58020E+000	9	...........
	70	0.946667	1.84547E-001	-9.86509E-005	0.00000E+000	-1.82057E-005	-5.99601E-002	1.84577E-001	3.58020E+000	9	...........
	71	0.96	1.75837E-001	-9.80852E-005	0.00000E+000	-1.72470E-005	-5.99601E-002	1.75865E-001	3.58020E+000	9	...........
	72	0.97333	1.67164E-001	-9.81154E-005	0.00000E+000	-1.64014E-005	-5.99601E-002	1.67193E-001	3.58020E+000	9	...........
	73	0.98667	1.58534E-001	-9.94500E-005	0.00000E+000	-1.57662E-005	-5.99601E-002	1.58557E-001	3.58020E+000	9	...........
	74	1	1.49944E-001	-9.86123E-005	0.00000E+000	-1.47864E-005	-5.99601E-002	1.49970E-001	3.58020E+000	9	...........
	75	1.01333	1.41395E-001	-9.84321E-005	0.00000E+000	-1.39178E-005	-5.99601E-002	1.41416E-001	3.58020E+000	9	...........
	76	1.02667	1.32892E-001	-9.95948E-005	0.00000E+000	-1.32354E-005	-5.99601E-002	1.32916E-001	3.58020E+000	9	...........
	77	1.04	1.24441E-001	-9.88259E-005	0.00000E+000	-1.22980E-005	-5.99601E-002	1.24456E-001	3.58020E+000	9	...........
	78	1.05333	1.16041E-001	-9.82383E-005	0.00000E+000	-1.13996E-005	-5.99601E-002	1.16058E-001	3.58020E+000	9	...........
	79	1.06667	1.07693E-001	-9.86634E-005	0.00000E+000	-1.06253E-005	-5.99601E-002	1.07702E-001	3.58020E+000	9	...........
	80	1.08	9.94036E-002	-9.85071E-005	0.00000E+000	-9.79196E-006	-5.99601E-002	9.94126E-002	3.58020E+000	9	...........
	81	1.09333	9.11785E-002	-9.81862E-005	0.00000E+000	-8.95247E-006	-5.99601E-002	9.11849E-002	3.58020E+000	9	...........
	82	1.10667	8.30053E-002	-9.84842E-005	0.00000E+000	-8.17471E-006	-5.99601E-002	8.30149E-002	3.58020E+000	9	...........
	83	1.12	7.49014E-002	-9.90958E-005	0.00000E+000	-7.42242E-006	-5.99601E-002	7.49012E-002	3.58020E+000	9	...........
	84	1.13333	6.68551E-002	-9.84040E-005	0.00000E+000	-6.57881E-006	-5.99601E-002	6.68571E-002	3.58020E+000	9	...........
	85	1.14667	5.88720E-002	-9.81289E-005	0.00000E+000	-5.77705E-006	-5.99601E-002	5.88661E-002	3.58020E+000	9	...........
	86	1.16	5.09536E-002	-9.85332E-005	0.00000E+000	-5.02062E-006	-5.99601E-002	5.09484E-002	3.58020E+000	9	...........
	87	1.17333	4.31351E-002	-9.83435E-005	0.00000E+000	-4.24206E-006	-5.99601E-002	4.31271E-002	3.58020E+000	9	...........
	88	1.18667	3.53357E-002	-9.87749E-005	0.00000E+000	-3.49028E-006	-5.99601E-002	3.53229E-002	3.58020E+000	9	...........
	89	1.2	2.76012E-002	-9.97584E-005	0.00000E+000	-2.75346E-006	-5.99601E-002	2.75846E-002	3.58020E+000	9	...........
	90	1.21333	1.99337E-002	-9.77122E-005	0.00000E+000	-1.94777E-006	-5.99601E-002	1.99063E-002	3.58020E+000	9	...........
	91	1.22667	1.23127E-002	-9.88301E-005	0.00000E+000	-1.21687E-006	-5.99601E-002	1.22885E-002	3.58020E+000	9	...........
	92	1.24	4.75426E-003	-9.88874E-005	0.00000E+000	-4.70136E-007	-5.99601E-002	4.72167E-003	3.58020E+000	9	...........
	93	1.24333	5.77793E-005	-9.88186E-005	0.00000E+000	-5.70967E-009	-5.99601E-002	1.45218E-005	3.58020E+000	9	...........
STARTTIMEOFFSET	QUANT	128.095	Start Time Offset (s)
