EXPLAIN
TAG	PWR800_DISCHARGE
TITLE	LABEL	PWR Cyclic Charge Discharge (Cell) - Discharge Step	Test &Identifier
DATE	LABEL	13-7-2017	Date
TIME	LABEL	15:47:02	Time
NOTES	NOTES	2	&Notes...
	supercap test cell
	6M KOH
PSTAT	PSTAT	IFC5000-01520	Potentiostat
CAPACITY	QUANT	1.00000E-003	Capacity (A-hr)
CELLTYPE	SELECTOR	1	&Cell Type
WORKINGCONNECTION	SELECTOR	0	&Working Lead
MAXDISCHARGETIME	VARIABLEANDUNITS	1.00000E+002	s	1.00000E+002	second(s)	Max &Discharge Time
DISCHARGEMODE	MULTIPARAM	0	1.00000E-004	&Discharge Mode	Constant Current	Amp(s)
SAMPLETIME	QUANT	1.00000E-002	Sa&mple Period (s)
DISCHARGESTOPAT1	MULTIPARAM	3	0.00000E+000	Discharge Stop At &1	Voltage < Limit	V
DISCHARGESTOPAT2	MULTIPARAM	0	0.00000E+000	Discharge Stop At &2	None	N/A
AESBHCSELECTOR	TOGGLE	F	Save Both Half Cells
IRCOMP	TOGGLE	F	IR &Measure
EOC	QUANT	0	Open Circuit (V)
SEQUENCER	TOGGLE	TRUE	Run as Sequence
PSTATMODEL	IQUANT	53	Pstat Model
PSTATSECTION	LABEL	IFC5000-01520	Pstat Section
PSTATSERIALNO	LABEL	01520	Pstat Serial Number
CTRLMODE	IQUANT	0	Control Mode
ELECTROMETER	IQUANT	1	RE=0 or CS=1
IESTAB	IQUANT	0	I/E Stability
CASPEED	IQUANT	4	Control Amp Speed
CONVENTION	IQUANT	1	Current Convention
ICHRANGE	IQUANT	2	Ich Range
ICHRANGEMODE	TOGGLE	T	Ich Auto Range
ICHOFFSETENABLE	TOGGLE	F	Ich Offset Enable
ICHOFFSET	QUANT	0	Ich Offset (V)
ICHFILTER	IQUANT	1	Ich Filter
VCHRANGE	IQUANT	2	Vch Range
VCHRANGEMODE	TOGGLE	T	Vch Auto Range
VCHOFFSETENABLE	TOGGLE	F	Vch Offset Enable
VCHOFFSET	QUANT	0	Vch Offset (V)
VCHFILTER	IQUANT	1	Vch Filter
IERANGELOWERLIMIT	IQUANT	9	I/E Range Lower Limit
IERANGEMODE	TOGGLE	F	I/E AutoRange
IERANGE	IQUANT	9	I/E Range
ACHSELECT	IQUANT	1	Ach Select
ACHRANGE	IQUANT	2	Ach Range
ACHOFFSETENABLE	TOGGLE	F	Ach Offset Enable
ACHOFFSET	QUANT	0	Ach Offset (V)
ACHFILTER	IQUANT	1	Ach Filter
CABLEID	IQUANT	14	Cable ID
DCCALDATE	LABEL	5-7-2017	DC Calibration Date
ACCALDATE	LABEL	12/3/2015	AC Calibration Date
FRAMEWORKVERSION	QUANT	7.01	Framework Version
INSTRUMENTVERSION	LABEL	4.00	Instrument Version
CURVE	TABLE	83
	Pt	T	Vf	Im	Vu	Pwr	Sig	Ach	Temp	IERange	Over
	#	s	V	A	V	W	V	V	deg C	#	bits
	0	0.013333	8.03126E-001	-9.79633E-005	0.00000E+000	-7.86768E-005	-5.99601E-002	8.03428E-001	3.57850E+000	9	...........
	1	0.026667	7.88794E-001	-9.89989E-005	0.00000E+000	-7.80897E-005	-5.99601E-002	7.89076E-001	3.57850E+000	9	...........
	2	0.04	7.75293E-001	-9.98074E-005	0.00000E+000	-7.73800E-005	-5.99601E-002	7.75557E-001	3.57850E+000	9	...........
	3	0.053333	7.62334E-001	-9.87874E-005	0.00000E+000	-7.53090E-005	-5.99601E-002	7.62616E-001	3.57850E+000	9	...........
	4	0.066667	7.49794E-001	-9.82696E-005	0.00000E+000	-7.36819E-005	-5.99601E-002	7.50049E-001	3.57850E+000	9	...........
	5	0.08	7.37498E-001	-9.83748E-005	0.00000E+000	-7.25512E-005	-5.99601E-002	7.37779E-001	3.57850E+000	9	...........
	6	0.093333	7.25506E-001	-9.86373E-005	0.00000E+000	-7.15620E-005	-5.99601E-002	7.25735E-001	3.57850E+000	9	...........
	7	0.106667	7.13583E-001	-1.00102E-004	0.00000E+000	-7.14312E-005	-5.99601E-002	7.13824E-001	3.57850E+000	9	...........
	8	0.12	7.01821E-001	-9.94917E-005	0.00000E+000	-6.98253E-005	-5.99601E-002	7.02065E-001	3.57850E+000	9	...........
	9	0.133333	6.90183E-001	-9.87405E-005	0.00000E+000	-6.81490E-005	-5.99601E-002	6.90433E-001	3.57850E+000	9	...........
	10	0.146667	6.78597E-001	-9.91760E-005	0.00000E+000	-6.73006E-005	-5.99601E-002	6.78890E-001	3.57850E+000	9	...........
	11	0.16	6.67113E-001	-9.82935E-005	0.00000E+000	-6.55729E-005	-5.99601E-002	6.67380E-001	3.57850E+000	9	...........
	12	0.173333	6.55667E-001	-9.91948E-005	0.00000E+000	-6.50388E-005	-5.99601E-002	6.55923E-001	3.57850E+000	9	...........
	13	0.186667	6.44293E-001	-9.95563E-005	0.00000E+000	-6.41435E-005	-5.99601E-002	6.44552E-001	3.57850E+000	9	...........
	14	0.2	6.32940E-001	-9.93958E-005	0.00000E+000	-6.29116E-005	-5.99601E-002	6.33212E-001	3.57850E+000	9	...........
	15	0.213333	6.21700E-001	-9.91385E-005	0.00000E+000	-6.16344E-005	-5.99601E-002	6.21916E-001	3.57850E+000	9	...........
	16	0.226667	6.10408E-001	-9.81425E-005	0.00000E+000	-5.99070E-005	-5.99601E-002	6.10682E-001	3.57850E+000	9	...........
	17	0.24	5.99210E-001	-9.94292E-005	0.00000E+000	-5.95790E-005	-5.99601E-002	5.99457E-001	3.57850E+000	9	...........
	18	0.253333	5.88084E-001	-9.82550E-005	0.00000E+000	-5.77822E-005	-5.99601E-002	5.88316E-001	3.57850E+000	9	...........
	19	0.266667	5.76968E-001	-9.84154E-005	0.00000E+000	-5.67826E-005	-5.99601E-002	5.77218E-001	3.57850E+000	9	...........
	20	0.28	5.65926E-001	-9.91635E-005	0.00000E+000	-5.61192E-005	-5.99601E-002	5.66168E-001	3.57850E+000	9	...........
	21	0.293333	5.54882E-001	-9.87749E-005	0.00000E+000	-5.48084E-005	-5.99601E-002	5.55145E-001	3.57850E+000	9	...........
	22	0.306667	5.43960E-001	-9.85342E-005	0.00000E+000	-5.35987E-005	-5.99601E-002	5.44194E-001	3.57850E+000	9	...........
	23	0.32	5.33041E-001	-9.79987E-005	0.00000E+000	-5.22373E-005	-5.99601E-002	5.33285E-001	3.57850E+000	9	...........
	24	0.333333	5.22173E-001	-9.87790E-005	0.00000E+000	-5.15798E-005	-5.99601E-002	5.22421E-001	3.57850E+000	9	...........
	25	0.346667	5.11360E-001	-9.87019E-005	0.00000E+000	-5.04723E-005	-5.99601E-002	5.11619E-001	3.57850E+000	9	...........
	26	0.36	5.00625E-001	-9.82394E-005	0.00000E+000	-4.91811E-005	-5.99601E-002	5.00880E-001	3.57850E+000	9	...........
	27	0.373333	4.89965E-001	-9.88499E-005	0.00000E+000	-4.84330E-005	-5.99601E-002	4.90214E-001	3.57850E+000	9	...........
	28	0.386667	4.79726E-001	-9.88884E-005	0.00000E+000	-4.74394E-005	-5.99601E-002	4.79799E-001	3.57850E+000	9	...........
	29	0.4	4.69189E-001	-9.96365E-005	0.00000E+000	-4.67484E-005	-5.99601E-002	4.69282E-001	3.57850E+000	9	...........
	30	0.413333	4.58716E-001	-9.91770E-005	0.00000E+000	-4.54941E-005	-5.99601E-002	4.58806E-001	3.57850E+000	9	...........
	31	0.426667	4.48321E-001	-9.87061E-005	0.00000E+000	-4.42520E-005	-5.99601E-002	4.48405E-001	3.57850E+000	9	...........
	32	0.44	4.37990E-001	-9.87603E-005	0.00000E+000	-4.32560E-005	-5.99601E-002	4.38074E-001	3.57850E+000	9	...........
	33	0.453333	4.27733E-001	-9.88905E-005	0.00000E+000	-4.22988E-005	-5.99601E-002	4.27815E-001	3.57850E+000	9	...........
	34	0.466667	4.17543E-001	-9.95730E-005	0.00000E+000	-4.15760E-005	-5.99601E-002	4.17627E-001	3.57850E+000	9	...........
	35	0.48	4.07433E-001	-9.82946E-005	0.00000E+000	-4.00484E-005	-5.99601E-002	4.07503E-001	3.57850E+000	9	...........
	36	0.493333	3.97383E-001	-9.92218E-005	0.00000E+000	-3.94291E-005	-5.99601E-002	3.97457E-001	3.57850E+000	9	...........
	37	0.506667	3.87407E-001	-9.89655E-005	0.00000E+000	-3.83399E-005	-5.99601E-002	3.87481E-001	3.57850E+000	9	...........
	38	0.52	3.77503E-001	-9.94427E-005	0.00000E+000	-3.75399E-005	-5.99601E-002	3.77566E-001	3.57850E+000	9	...........
	39	0.533333	3.67663E-001	-9.92917E-005	0.00000E+000	-3.65058E-005	-5.99601E-002	3.67720E-001	3.57850E+000	9	...........
	40	0.546667	3.57884E-001	-9.84665E-005	0.00000E+000	-3.52395E-005	-5.99601E-002	3.57951E-001	3.57850E+000	9	...........
	41	0.56	3.48169E-001	-9.93219E-005	0.00000E+000	-3.45808E-005	-5.99601E-002	3.48231E-001	3.57850E+000	9	...........
	42	0.573333	3.38520E-001	-9.84623E-005	0.00000E+000	-3.33314E-005	-5.99601E-002	3.38576E-001	3.57850E+000	9	...........
	43	0.586667	3.28932E-001	-9.93771E-005	0.00000E+000	-3.26883E-005	-5.99601E-002	3.28982E-001	3.57850E+000	9	...........
	44	0.6	3.19402E-001	-9.95365E-005	0.00000E+000	-3.17922E-005	-5.99601E-002	3.19457E-001	3.57850E+000	9	...........
	45	0.613333	3.09931E-001	-9.84394E-005	0.00000E+000	-3.05094E-005	-5.99601E-002	3.09980E-001	3.57850E+000	9	...........
	46	0.626667	3.00505E-001	-9.78101E-005	0.00000E+000	-2.93925E-005	-5.99601E-002	3.00559E-001	3.57850E+000	9	...........
	47	0.64	2.91145E-001	-9.87561E-005	0.00000E+000	-2.87523E-005	-5.99601E-002	2.91193E-001	3.57850E+000	9	...........
	48	0.653333	2.81836E-001	-9.94771E-005	0.00000E+000	-2.80362E-005	-5.99601E-002	2.81875E-001	3.57850E+000	9	...........
	49	0.666667	2.72581E-001	-9.87905E-005	0.00000E+000	-2.69284E-005	-5.99601E-002	2.72623E-001	3.57850E+000	9	...........
	50	0.68	2.63373E-001	-9.86415E-005	0.00000E+000	-2.59795E-005	-5.99601E-002	2.63417E-001	3.57850E+000	9	...........
	51	0.693333	2.54224E-001	-9.90593E-005	0.00000E+000	-2.51833E-005	-5.99601E-002	2.54261E-001	3.57850E+000	9	...........
	52	0.706667	2.45125E-001	-9.86321E-005	0.00000E+000	-2.41772E-005	-5.99601E-002	2.45160E-001	3.57850E+000	9	...........
	53	0.72	2.36072E-001	-9.90499E-005	0.00000E+000	-2.33830E-005	-5.99601E-002	2.36108E-001	3.57850E+000	9	...........
	54	0.733333	2.27081E-001	-9.85280E-005	0.00000E+000	-2.23738E-005	-5.99601E-002	2.27109E-001	3.57850E+000	9	...........
	55	0.746667	2.18141E-001	-9.87072E-005	0.00000E+000	-2.15321E-005	-5.99601E-002	2.18174E-001	3.57850E+000	9	...........
	56	0.76	2.09265E-001	-9.87780E-005	0.00000E+000	-2.06708E-005	-5.99601E-002	2.09295E-001	3.57850E+000	9	...........
	57	0.773333	2.00437E-001	-9.88593E-005	0.00000E+000	-1.98151E-005	-5.99601E-002	2.00468E-001	3.57850E+000	9	...........
	58	0.786667	1.91675E-001	-9.95292E-005	0.00000E+000	-1.90772E-005	-5.99601E-002	1.91702E-001	3.57850E+000	9	...........
	59	0.8	1.82970E-001	-1.00006E-004	0.00000E+000	-1.82981E-005	-5.99601E-002	1.82993E-001	3.57850E+000	9	...........
	60	0.813333	1.74329E-001	-9.83456E-005	0.00000E+000	-1.71445E-005	-5.99601E-002	1.74351E-001	3.57850E+000	9	...........
	61	0.826667	1.65757E-001	-9.81602E-005	0.00000E+000	-1.62707E-005	-5.99601E-002	1.65779E-001	3.57850E+000	9	...........
	62	0.84	1.57258E-001	-9.91333E-005	0.00000E+000	-1.55895E-005	-5.99601E-002	1.57272E-001	3.57850E+000	9	...........
	63	0.853333	1.48824E-001	-9.89041E-005	0.00000E+000	-1.47193E-005	-5.99601E-002	1.48837E-001	3.57850E+000	9	...........
	64	0.866667	1.40459E-001	-9.91250E-005	0.00000E+000	-1.39230E-005	-5.99601E-002	1.40474E-001	3.57850E+000	9	...........
	65	0.88	1.32167E-001	-9.89353E-005	0.00000E+000	-1.30759E-005	-5.99601E-002	1.32186E-001	3.57850E+000	9	...........
	66	0.893333	1.23955E-001	-9.90531E-005	0.00000E+000	-1.22781E-005	-5.99601E-002	1.23969E-001	3.57850E+000	9	...........
	67	0.906667	1.15811E-001	-9.91187E-005	0.00000E+000	-1.14790E-005	-5.99601E-002	1.15821E-001	3.57850E+000	9	...........
	68	0.92	1.07743E-001	-9.89312E-005	0.00000E+000	-1.06591E-005	-5.99601E-002	1.07755E-001	3.57850E+000	9	...........
	69	0.933333	9.97439E-002	-9.91083E-005	0.00000E+000	-9.88545E-006	-5.99601E-002	9.97574E-002	3.57850E+000	9	...........
	70	0.946667	9.18255E-002	-9.89207E-005	0.00000E+000	-9.08344E-006	-5.99601E-002	9.18340E-002	3.57850E+000	9	...........
	71	0.96	8.39793E-002	-9.94594E-005	0.00000E+000	-8.35253E-006	-5.99601E-002	8.39820E-002	3.57897E+000	9	...........
	72	0.97333	7.61975E-002	-9.74819E-005	0.00000E+000	-7.42788E-006	-5.99601E-002	7.62006E-002	3.57970E+000	9	...........
	73	0.98667	6.84850E-002	-9.88593E-005	0.00000E+000	-6.77037E-006	-5.99601E-002	6.84844E-002	3.57970E+000	9	...........
	74	1	6.08398E-002	-9.85655E-005	0.00000E+000	-5.99671E-006	-5.99601E-002	6.08336E-002	3.57970E+000	9	...........
	75	1.01333	5.32523E-002	-9.88041E-005	0.00000E+000	-5.26155E-006	-5.99601E-002	5.32440E-002	3.57970E+000	9	...........
	76	1.02667	4.57578E-002	-9.85144E-005	0.00000E+000	-4.50780E-006	-5.99601E-002	4.57452E-002	3.57970E+000	9	...........
	77	1.04	3.83091E-002	-9.89999E-005	0.00000E+000	-3.79260E-006	-5.99601E-002	3.82964E-002	3.57970E+000	9	...........
	78	1.05333	3.09195E-002	-9.83769E-005	0.00000E+000	-3.04176E-006	-5.99601E-002	3.09041E-002	3.57970E+000	9	...........
	79	1.06667	2.35870E-002	-9.94584E-005	0.00000E+000	-2.34593E-006	-5.99601E-002	2.35648E-002	3.57970E+000	9	...........
	80	1.08	1.63135E-002	-9.90583E-005	0.00000E+000	-1.61598E-006	-5.99601E-002	1.62880E-002	3.57970E+000	9	...........
	81	1.09333	9.10185E-003	-9.92062E-005	0.00000E+000	-9.02960E-007	-5.99601E-002	9.07165E-003	3.57970E+000	9	...........
	82	1.105	2.39626E-003	-9.89437E-005	0.00000E+000	-2.37095E-007	-5.99601E-002	2.36179E-003	3.57970E+000	9	...........
STARTTIMEOFFSET	QUANT	2033.087	Start Time Offset (s)
