EXPLAIN
TAG	PWR800_DISCHARGE
TITLE	LABEL	PWR Cyclic Charge Discharge (Cell) - Discharge Step	Test &Identifier
DATE	LABEL	13-7-2017	Date
TIME	LABEL	15:28:32	Time
NOTES	NOTES	2	&Notes...
	supercap test cell
	6M KOH
PSTAT	PSTAT	IFC5000-01520	Potentiostat
CAPACITY	QUANT	1.00000E-003	Capacity (A-hr)
CELLTYPE	SELECTOR	1	&Cell Type
WORKINGCONNECTION	SELECTOR	0	&Working Lead
MAXDISCHARGETIME	VARIABLEANDUNITS	1.00000E+002	s	1.00000E+002	second(s)	Max &Discharge Time
DISCHARGEMODE	MULTIPARAM	0	1.00000E-004	&Discharge Mode	Constant Current	Amp(s)
SAMPLETIME	QUANT	1.00000E-002	Sa&mple Period (s)
DISCHARGESTOPAT1	MULTIPARAM	3	0.00000E+000	Discharge Stop At &1	Voltage < Limit	V
DISCHARGESTOPAT2	MULTIPARAM	0	0.00000E+000	Discharge Stop At &2	None	N/A
AESBHCSELECTOR	TOGGLE	F	Save Both Half Cells
IRCOMP	TOGGLE	F	IR &Measure
EOC	QUANT	0	Open Circuit (V)
SEQUENCER	TOGGLE	TRUE	Run as Sequence
PSTATMODEL	IQUANT	53	Pstat Model
PSTATSECTION	LABEL	IFC5000-01520	Pstat Section
PSTATSERIALNO	LABEL	01520	Pstat Serial Number
CTRLMODE	IQUANT	0	Control Mode
ELECTROMETER	IQUANT	1	RE=0 or CS=1
IESTAB	IQUANT	0	I/E Stability
CASPEED	IQUANT	4	Control Amp Speed
CONVENTION	IQUANT	1	Current Convention
ICHRANGE	IQUANT	2	Ich Range
ICHRANGEMODE	TOGGLE	T	Ich Auto Range
ICHOFFSETENABLE	TOGGLE	F	Ich Offset Enable
ICHOFFSET	QUANT	0	Ich Offset (V)
ICHFILTER	IQUANT	1	Ich Filter
VCHRANGE	IQUANT	2	Vch Range
VCHRANGEMODE	TOGGLE	T	Vch Auto Range
VCHOFFSETENABLE	TOGGLE	F	Vch Offset Enable
VCHOFFSET	QUANT	0	Vch Offset (V)
VCHFILTER	IQUANT	1	Vch Filter
IERANGELOWERLIMIT	IQUANT	9	I/E Range Lower Limit
IERANGEMODE	TOGGLE	F	I/E AutoRange
IERANGE	IQUANT	9	I/E Range
ACHSELECT	IQUANT	1	Ach Select
ACHRANGE	IQUANT	2	Ach Range
ACHOFFSETENABLE	TOGGLE	F	Ach Offset Enable
ACHOFFSET	QUANT	0	Ach Offset (V)
ACHFILTER	IQUANT	1	Ach Filter
CABLEID	IQUANT	14	Cable ID
DCCALDATE	LABEL	5-7-2017	DC Calibration Date
ACCALDATE	LABEL	12/3/2015	AC Calibration Date
FRAMEWORKVERSION	QUANT	7.01	Framework Version
INSTRUMENTVERSION	LABEL	4.00	Instrument Version
CURVE	TABLE	88
	Pt	T	Vf	Im	Vu	Pwr	Sig	Ach	Temp	IERange	Over
	#	s	V	A	V	W	V	V	deg C	#	bits
	0	0.013333	8.47951E-001	-9.90395E-005	0.00000E+000	-8.39807E-005	-5.99601E-002	8.48311E-001	3.57900E+000	9	...........
	1	0.026667	8.34033E-001	-9.90656E-005	0.00000E+000	-8.26240E-005	-5.99601E-002	8.34375E-001	3.57900E+000	9	...........
	2	0.04	8.20984E-001	-9.86259E-005	0.00000E+000	-8.09702E-005	-5.99601E-002	8.21325E-001	3.57900E+000	9	...........
	3	0.053333	8.08468E-001	-9.86551E-005	0.00000E+000	-7.97594E-005	-5.99601E-002	8.08787E-001	3.57900E+000	9	...........
	4	0.066667	7.96376E-001	-9.87822E-005	0.00000E+000	-7.86677E-005	-5.99601E-002	7.96699E-001	3.57900E+000	9	...........
	5	0.08	7.84561E-001	-9.85280E-005	0.00000E+000	-7.73012E-005	-5.99601E-002	7.84887E-001	3.57900E+000	9	...........
	6	0.093333	7.72948E-001	-9.79935E-005	0.00000E+000	-7.57439E-005	-5.99601E-002	7.73281E-001	3.57900E+000	9	...........
	7	0.106667	7.61500E-001	-9.82487E-005	0.00000E+000	-7.48164E-005	-5.99601E-002	7.61835E-001	3.57900E+000	9	...........
	8	0.12	7.50219E-001	-9.87697E-005	0.00000E+000	-7.40989E-005	-5.99601E-002	7.50511E-001	3.57900E+000	9	...........
	9	0.133333	7.38958E-001	-9.84206E-005	0.00000E+000	-7.27287E-005	-5.99601E-002	7.39291E-001	3.57900E+000	9	...........
	10	0.146667	7.27828E-001	-9.93667E-005	0.00000E+000	-7.23218E-005	-5.99601E-002	7.28145E-001	3.57900E+000	9	...........
	11	0.16	7.16730E-001	-9.87874E-005	0.00000E+000	-7.08039E-005	-5.99601E-002	7.17039E-001	3.57900E+000	9	...........
	12	0.173333	7.05676E-001	-9.91979E-005	0.00000E+000	-7.00016E-005	-5.99601E-002	7.05984E-001	3.57900E+000	9	...........
	13	0.186667	6.94689E-001	-9.88562E-005	0.00000E+000	-6.86743E-005	-5.99601E-002	6.95003E-001	3.57900E+000	9	...........
	14	0.2	6.83720E-001	-9.97751E-005	0.00000E+000	-6.82183E-005	-5.99601E-002	6.83994E-001	3.57900E+000	9	...........
	15	0.213333	6.72786E-001	-9.94750E-005	0.00000E+000	-6.69254E-005	-5.99601E-002	6.73084E-001	3.57900E+000	9	...........
	16	0.226667	6.61840E-001	-9.86259E-005	0.00000E+000	-6.52745E-005	-5.99601E-002	6.62132E-001	3.57900E+000	9	...........
	17	0.24	6.50921E-001	-9.94250E-005	0.00000E+000	-6.47178E-005	-5.99601E-002	6.51218E-001	3.57900E+000	9	...........
	18	0.253333	6.40020E-001	-9.95657E-005	0.00000E+000	-6.37241E-005	-5.99601E-002	6.40312E-001	3.57900E+000	9	...........
	19	0.266667	6.29151E-001	-9.82248E-005	0.00000E+000	-6.17983E-005	-5.99601E-002	6.29407E-001	3.57900E+000	9	...........
	20	0.28	6.18285E-001	-9.87249E-005	0.00000E+000	-6.10401E-005	-5.99601E-002	6.18572E-001	3.57900E+000	9	...........
	21	0.293333	6.07415E-001	-9.95636E-005	0.00000E+000	-6.04764E-005	-5.99601E-002	6.07692E-001	3.57900E+000	9	...........
	22	0.306667	5.96586E-001	-9.93854E-005	0.00000E+000	-5.92919E-005	-5.99601E-002	5.96878E-001	3.57900E+000	9	...........
	23	0.32	5.85764E-001	-9.91781E-005	0.00000E+000	-5.80950E-005	-5.99601E-002	5.86061E-001	3.57900E+000	9	...........
	24	0.333333	5.75006E-001	-9.89051E-005	0.00000E+000	-5.68711E-005	-5.99601E-002	5.75275E-001	3.57900E+000	9	...........
	25	0.346667	5.64249E-001	-9.83227E-005	0.00000E+000	-5.54785E-005	-5.99601E-002	5.64527E-001	3.57900E+000	9	...........
	26	0.36	5.53525E-001	-9.86248E-005	0.00000E+000	-5.45913E-005	-5.99601E-002	5.53780E-001	3.57900E+000	9	...........
	27	0.373333	5.42825E-001	-9.91979E-005	0.00000E+000	-5.38470E-005	-5.99601E-002	5.43095E-001	3.57900E+000	9	...........
	28	0.386667	5.32167E-001	-9.88884E-005	0.00000E+000	-5.26251E-005	-5.99601E-002	5.32417E-001	3.57900E+000	9	...........
	29	0.4	5.21554E-001	-9.83217E-005	0.00000E+000	-5.12801E-005	-5.99601E-002	5.21794E-001	3.57900E+000	9	...........
	30	0.413333	5.10973E-001	-9.77226E-005	0.00000E+000	-4.99336E-005	-5.99601E-002	5.11190E-001	3.57900E+000	9	...........
	31	0.426667	5.00410E-001	-9.77788E-005	0.00000E+000	-4.89295E-005	-5.99601E-002	5.00656E-001	3.57900E+000	9	...........
	32	0.44	4.89949E-001	-9.77642E-005	0.00000E+000	-4.78995E-005	-5.99601E-002	4.90156E-001	3.57900E+000	9	...........
	33	0.453333	4.79865E-001	-9.88072E-005	0.00000E+000	-4.74141E-005	-5.99601E-002	4.79934E-001	3.57900E+000	9	...........
	34	0.466667	4.69476E-001	-9.81258E-005	0.00000E+000	-4.60677E-005	-5.99601E-002	4.69573E-001	3.57900E+000	9	...........
	35	0.48	4.59138E-001	-9.91520E-005	0.00000E+000	-4.55245E-005	-5.99601E-002	4.59237E-001	3.57900E+000	9	...........
	36	0.493333	4.48860E-001	-9.92906E-005	0.00000E+000	-4.45676E-005	-5.99601E-002	4.48957E-001	3.57900E+000	9	...........
	37	0.506667	4.38646E-001	-9.91468E-005	0.00000E+000	-4.34903E-005	-5.99601E-002	4.38735E-001	3.57900E+000	9	...........
	38	0.52	4.28486E-001	-9.82717E-005	0.00000E+000	-4.21080E-005	-5.99601E-002	4.28580E-001	3.57900E+000	9	...........
	39	0.533333	4.18386E-001	-9.78778E-005	0.00000E+000	-4.09507E-005	-5.99601E-002	4.18478E-001	3.57900E+000	9	...........
	40	0.546667	4.08350E-001	-9.88770E-005	0.00000E+000	-4.03764E-005	-5.99601E-002	4.08436E-001	3.57900E+000	9	...........
	41	0.56	3.98377E-001	-9.83300E-005	0.00000E+000	-3.91724E-005	-5.99601E-002	3.98452E-001	3.57900E+000	9	...........
	42	0.573333	3.88462E-001	-9.93302E-005	0.00000E+000	-3.85860E-005	-5.99601E-002	3.88533E-001	3.57900E+000	9	...........
	43	0.586667	3.78597E-001	-9.88311E-005	0.00000E+000	-3.74171E-005	-5.99601E-002	3.78675E-001	3.57900E+000	9	...........
	44	0.6	3.68797E-001	-9.84384E-005	0.00000E+000	-3.63038E-005	-5.99601E-002	3.68868E-001	3.57900E+000	9	...........
	45	0.613333	3.59051E-001	-9.82310E-005	0.00000E+000	-3.52700E-005	-5.99601E-002	3.59126E-001	3.57900E+000	9	...........
	46	0.626667	3.49367E-001	-9.86082E-005	0.00000E+000	-3.44505E-005	-5.99601E-002	3.49437E-001	3.57900E+000	9	...........
	47	0.64	3.39734E-001	-9.91083E-005	0.00000E+000	-3.36705E-005	-5.99601E-002	3.39806E-001	3.57900E+000	9	...........
	48	0.653333	3.30154E-001	-9.96803E-005	0.00000E+000	-3.29099E-005	-5.99601E-002	3.30223E-001	3.57900E+000	9	...........
	49	0.666667	3.20634E-001	-9.83717E-005	0.00000E+000	-3.15413E-005	-5.99601E-002	3.20697E-001	3.57900E+000	9	...........
	50	0.68	3.11159E-001	-9.85790E-005	0.00000E+000	-3.06737E-005	-5.99601E-002	3.11218E-001	3.57900E+000	9	...........
	51	0.693333	3.01734E-001	-9.93740E-005	0.00000E+000	-2.99845E-005	-5.99601E-002	3.01795E-001	3.57956E+000	9	...........
	52	0.706667	2.92360E-001	-9.81518E-005	0.00000E+000	-2.86957E-005	-5.99601E-002	2.92413E-001	3.57990E+000	9	...........
	53	0.72	2.83032E-001	-9.83633E-005	0.00000E+000	-2.78399E-005	-5.99601E-002	2.83085E-001	3.57990E+000	9	...........
	54	0.733333	2.73746E-001	-9.90843E-005	0.00000E+000	-2.71239E-005	-5.99601E-002	2.73799E-001	3.57990E+000	9	...........
	55	0.746667	2.64505E-001	-9.91083E-005	0.00000E+000	-2.62146E-005	-5.99601E-002	2.64556E-001	3.57990E+000	9	...........
	56	0.76	2.55314E-001	-9.87238E-005	0.00000E+000	-2.52056E-005	-5.99601E-002	2.55363E-001	3.57990E+000	9	...........
	57	0.773333	2.46171E-001	-9.85196E-005	0.00000E+000	-2.42526E-005	-5.99601E-002	2.46214E-001	3.57990E+000	9	...........
	58	0.786667	2.37066E-001	-9.87395E-005	0.00000E+000	-2.34078E-005	-5.99601E-002	2.37108E-001	3.57990E+000	9	...........
	59	0.8	2.28010E-001	-9.92719E-005	0.00000E+000	-2.26350E-005	-5.99601E-002	2.28050E-001	3.57990E+000	9	...........
	60	0.813333	2.18999E-001	-9.82550E-005	0.00000E+000	-2.15178E-005	-5.99601E-002	2.19036E-001	3.57990E+000	9	...........
	61	0.826667	2.10039E-001	-9.88864E-005	0.00000E+000	-2.07700E-005	-5.99601E-002	2.10069E-001	3.57990E+000	9	...........
	62	0.84	2.01120E-001	-9.91541E-005	0.00000E+000	-1.99418E-005	-5.99601E-002	2.01156E-001	3.57990E+000	9	...........
	63	0.853333	1.92258E-001	-9.83623E-005	0.00000E+000	-1.89109E-005	-5.99601E-002	1.92288E-001	3.57990E+000	9	...........
	64	0.866667	1.83448E-001	-9.88124E-005	0.00000E+000	-1.81269E-005	-5.99601E-002	1.83479E-001	3.57990E+000	9	...........
	65	0.88	1.74692E-001	-9.88447E-005	0.00000E+000	-1.72674E-005	-5.99601E-002	1.74720E-001	3.57990E+000	9	...........
	66	0.893333	1.65998E-001	-9.89812E-005	0.00000E+000	-1.64307E-005	-5.99601E-002	1.66025E-001	3.57990E+000	9	...........
	67	0.906667	1.57363E-001	-9.79820E-005	0.00000E+000	-1.54187E-005	-5.99601E-002	1.57386E-001	3.57990E+000	9	...........
	68	0.92	1.48795E-001	-9.88020E-005	0.00000E+000	-1.47012E-005	-5.99601E-002	1.48817E-001	3.57990E+000	9	...........
	69	0.933333	1.40283E-001	-9.86947E-005	0.00000E+000	-1.38452E-005	-5.99601E-002	1.40301E-001	3.57990E+000	9	...........
	70	0.946667	1.31849E-001	-9.87759E-005	0.00000E+000	-1.30235E-005	-5.99601E-002	1.31860E-001	3.57990E+000	9	...........
	71	0.96	1.23478E-001	-9.88541E-005	0.00000E+000	-1.22063E-005	-5.99601E-002	1.23488E-001	3.57990E+000	9	...........
	72	0.97333	1.15175E-001	-9.89405E-005	0.00000E+000	-1.13955E-005	-5.99601E-002	1.15189E-001	3.57990E+000	9	...........
	73	0.98667	1.06944E-001	-9.89239E-005	0.00000E+000	-1.05793E-005	-5.99601E-002	1.06957E-001	3.57990E+000	9	...........
	74	1	9.87868E-002	-9.88884E-005	0.00000E+000	-9.76887E-006	-5.99601E-002	9.87941E-002	3.57990E+000	9	...........
	75	1.01333	9.07052E-002	-9.89322E-005	0.00000E+000	-8.97367E-006	-5.99601E-002	9.07081E-002	3.57990E+000	9	...........
	76	1.02667	8.26887E-002	-9.84550E-005	0.00000E+000	-8.14112E-006	-5.99601E-002	8.26915E-002	3.57990E+000	9	...........
	77	1.04	7.47463E-002	-9.83592E-005	0.00000E+000	-7.35199E-006	-5.99601E-002	7.47435E-002	3.57990E+000	9	...........
	78	1.05333	6.68740E-002	-9.95980E-005	0.00000E+000	-6.66052E-006	-5.99601E-002	6.68648E-002	3.57990E+000	9	...........
	79	1.06667	5.90622E-002	-9.90874E-005	0.00000E+000	-5.85233E-006	-5.99601E-002	5.90635E-002	3.57990E+000	9	...........
	80	1.08	5.13279E-002	-9.85988E-005	0.00000E+000	-5.06087E-006	-5.99601E-002	5.13240E-002	3.57990E+000	9	...........
	81	1.09333	4.36948E-002	-9.91531E-005	0.00000E+000	-4.33247E-006	-5.99601E-002	4.36864E-002	3.57990E+000	9	...........
	82	1.10667	3.60940E-002	-9.90562E-005	0.00000E+000	-3.57533E-006	-5.99601E-002	3.60829E-002	3.57990E+000	9	...........
	83	1.12	2.85584E-002	-9.94698E-005	0.00000E+000	-2.84070E-006	-5.99601E-002	2.85436E-002	3.57990E+000	9	...........
	84	1.13333	2.10896E-002	-9.95334E-005	0.00000E+000	-2.09912E-006	-5.99601E-002	2.10681E-002	3.57990E+000	9	...........
	85	1.14667	1.36853E-002	-9.95928E-005	0.00000E+000	-1.36296E-006	-5.99601E-002	1.36552E-002	3.57990E+000	9	...........
	86	1.16	6.34299E-003	-9.97886E-005	0.00000E+000	-6.32959E-007	-5.99601E-002	6.31261E-003	3.57990E+000	9	...........
	87	1.16667	8.83965E-004	-9.89791E-005	0.00000E+000	-8.74940E-008	-5.99601E-002	8.51089E-004	3.57990E+000	9	...........
STARTTIMEOFFSET	QUANT	1200.406	Start Time Offset (s)
