EXPLAIN
TAG	PWR800_DISCHARGE
TITLE	LABEL	PWR Cyclic Charge Discharge (Cell) - Discharge Step	Test &Identifier
DATE	LABEL	13-7-2017	Date
TIME	LABEL	15:24:33	Time
NOTES	NOTES	2	&Notes...
	supercap test cell
	6M KOH
PSTAT	PSTAT	IFC5000-01520	Potentiostat
CAPACITY	QUANT	1.00000E-003	Capacity (A-hr)
CELLTYPE	SELECTOR	1	&Cell Type
WORKINGCONNECTION	SELECTOR	0	&Working Lead
MAXDISCHARGETIME	VARIABLEANDUNITS	1.00000E+002	s	1.00000E+002	second(s)	Max &Discharge Time
DISCHARGEMODE	MULTIPARAM	0	1.00000E-004	&Discharge Mode	Constant Current	Amp(s)
SAMPLETIME	QUANT	1.00000E-002	Sa&mple Period (s)
DISCHARGESTOPAT1	MULTIPARAM	3	0.00000E+000	Discharge Stop At &1	Voltage < Limit	V
DISCHARGESTOPAT2	MULTIPARAM	0	0.00000E+000	Discharge Stop At &2	None	N/A
AESBHCSELECTOR	TOGGLE	F	Save Both Half Cells
IRCOMP	TOGGLE	F	IR &Measure
EOC	QUANT	0	Open Circuit (V)
SEQUENCER	TOGGLE	TRUE	Run as Sequence
PSTATMODEL	IQUANT	53	Pstat Model
PSTATSECTION	LABEL	IFC5000-01520	Pstat Section
PSTATSERIALNO	LABEL	01520	Pstat Serial Number
CTRLMODE	IQUANT	0	Control Mode
ELECTROMETER	IQUANT	1	RE=0 or CS=1
IESTAB	IQUANT	0	I/E Stability
CASPEED	IQUANT	4	Control Amp Speed
CONVENTION	IQUANT	1	Current Convention
ICHRANGE	IQUANT	2	Ich Range
ICHRANGEMODE	TOGGLE	T	Ich Auto Range
ICHOFFSETENABLE	TOGGLE	F	Ich Offset Enable
ICHOFFSET	QUANT	0	Ich Offset (V)
ICHFILTER	IQUANT	1	Ich Filter
VCHRANGE	IQUANT	2	Vch Range
VCHRANGEMODE	TOGGLE	T	Vch Auto Range
VCHOFFSETENABLE	TOGGLE	F	Vch Offset Enable
VCHOFFSET	QUANT	0	Vch Offset (V)
VCHFILTER	IQUANT	1	Vch Filter
IERANGELOWERLIMIT	IQUANT	9	I/E Range Lower Limit
IERANGEMODE	TOGGLE	F	I/E AutoRange
IERANGE	IQUANT	9	I/E Range
ACHSELECT	IQUANT	1	Ach Select
ACHRANGE	IQUANT	2	Ach Range
ACHOFFSETENABLE	TOGGLE	F	Ach Offset Enable
ACHOFFSET	QUANT	0	Ach Offset (V)
ACHFILTER	IQUANT	1	Ach Filter
CABLEID	IQUANT	14	Cable ID
DCCALDATE	LABEL	5-7-2017	DC Calibration Date
ACCALDATE	LABEL	12/3/2015	AC Calibration Date
FRAMEWORKVERSION	QUANT	7.01	Framework Version
INSTRUMENTVERSION	LABEL	4.00	Instrument Version
CURVE	TABLE	89
	Pt	T	Vf	Im	Vu	Pwr	Sig	Ach	Temp	IERange	Over
	#	s	V	A	V	W	V	V	deg C	#	bits
	0	0.013333	8.49445E-001	-9.92427E-005	0.00000E+000	-8.43012E-005	-5.99601E-002	8.49791E-001	3.57930E+000	9	...........
	1	0.026667	8.35623E-001	-9.88436E-005	0.00000E+000	-8.25960E-005	-5.99601E-002	8.35970E-001	3.57930E+000	9	...........
	2	0.04	8.22659E-001	-9.87468E-005	0.00000E+000	-8.12349E-005	-5.99601E-002	8.23008E-001	3.57930E+000	9	...........
	3	0.053333	8.10270E-001	-9.85259E-005	0.00000E+000	-7.98325E-005	-5.99601E-002	8.10597E-001	3.57930E+000	9	...........
	4	0.066667	7.98276E-001	-9.84759E-005	0.00000E+000	-7.86110E-005	-5.99601E-002	7.98615E-001	3.57930E+000	9	...........
	5	0.08	7.86575E-001	-9.90687E-005	0.00000E+000	-7.79249E-005	-5.99601E-002	7.86856E-001	3.57930E+000	9	...........
	6	0.093333	7.75068E-001	-9.87009E-005	0.00000E+000	-7.64999E-005	-5.99601E-002	7.75361E-001	3.57930E+000	9	...........
	7	0.106667	7.63746E-001	-9.83613E-005	0.00000E+000	-7.51230E-005	-5.99601E-002	7.64017E-001	3.57930E+000	9	...........
	8	0.12	7.52530E-001	-9.89906E-005	0.00000E+000	-7.44933E-005	-5.99601E-002	7.52815E-001	3.57930E+000	9	...........
	9	0.133333	7.41428E-001	-9.87478E-005	0.00000E+000	-7.32144E-005	-5.99601E-002	7.41695E-001	3.57930E+000	9	...........
	10	0.146667	7.30386E-001	-9.88562E-005	0.00000E+000	-7.22032E-005	-5.99601E-002	7.30658E-001	3.57930E+000	9	...........
	11	0.16	7.19425E-001	-9.89895E-005	0.00000E+000	-7.12155E-005	-5.99601E-002	7.19688E-001	3.57930E+000	9	...........
	12	0.173333	7.08452E-001	-9.86686E-005	0.00000E+000	-6.99020E-005	-5.99601E-002	7.08741E-001	3.57930E+000	9	...........
	13	0.186667	6.97558E-001	-9.86571E-005	0.00000E+000	-6.88191E-005	-5.99601E-002	6.97837E-001	3.57930E+000	9	...........
	14	0.2	6.86674E-001	-9.88009E-005	0.00000E+000	-6.78440E-005	-5.99601E-002	6.86959E-001	3.57930E+000	9	...........
	15	0.213333	6.75857E-001	-9.91968E-005	0.00000E+000	-6.70429E-005	-5.99601E-002	6.76132E-001	3.57930E+000	9	...........
	16	0.226667	6.65027E-001	-9.88697E-005	0.00000E+000	-6.57510E-005	-5.99601E-002	6.65295E-001	3.57930E+000	9	...........
	17	0.24	6.54213E-001	-9.85373E-005	0.00000E+000	-6.44644E-005	-5.99601E-002	6.54453E-001	3.57930E+000	9	...........
	18	0.253333	6.43412E-001	-9.86436E-005	0.00000E+000	-6.34684E-005	-5.99601E-002	6.43672E-001	3.57930E+000	9	...........
	19	0.266667	6.32593E-001	-9.82050E-005	0.00000E+000	-6.21237E-005	-5.99601E-002	6.32866E-001	3.57930E+000	9	...........
	20	0.28	6.21858E-001	-9.81883E-005	0.00000E+000	-6.10591E-005	-5.99601E-002	6.22114E-001	3.57930E+000	9	...........
	21	0.293333	6.11055E-001	-9.93135E-005	0.00000E+000	-6.06860E-005	-5.99601E-002	6.11347E-001	3.57930E+000	9	...........
	22	0.306667	6.00321E-001	-9.88593E-005	0.00000E+000	-5.93473E-005	-5.99601E-002	6.00632E-001	3.57930E+000	9	...........
	23	0.32	5.89607E-001	-9.93510E-005	0.00000E+000	-5.85781E-005	-5.99601E-002	5.89916E-001	3.57930E+000	9	...........
	24	0.333333	5.78900E-001	-9.84436E-005	0.00000E+000	-5.69890E-005	-5.99601E-002	5.79198E-001	3.57930E+000	9	...........
	25	0.346667	5.68258E-001	-9.75392E-005	0.00000E+000	-5.54274E-005	-5.99601E-002	5.68538E-001	3.57930E+000	9	...........
	26	0.36	5.57577E-001	-9.82831E-005	0.00000E+000	-5.48005E-005	-5.99601E-002	5.57862E-001	3.57930E+000	9	...........
	27	0.373333	5.46989E-001	-9.86749E-005	0.00000E+000	-5.39740E-005	-5.99601E-002	5.47254E-001	3.57930E+000	9	...........
	28	0.386667	5.36387E-001	-9.89833E-005	0.00000E+000	-5.30934E-005	-5.99601E-002	5.36654E-001	3.57930E+000	9	...........
	29	0.4	5.25827E-001	-9.97011E-005	0.00000E+000	-5.24255E-005	-5.99601E-002	5.26077E-001	3.57930E+000	9	...........
	30	0.413333	5.15329E-001	-9.89093E-005	0.00000E+000	-5.09709E-005	-5.99601E-002	5.15561E-001	3.57930E+000	9	...........
	31	0.426667	5.04829E-001	-9.97094E-005	0.00000E+000	-5.03362E-005	-5.99601E-002	5.05086E-001	3.57930E+000	9	...........
	32	0.44	4.94414E-001	-9.89905E-005	0.00000E+000	-4.89423E-005	-5.99601E-002	4.94675E-001	3.57930E+000	9	...........
	33	0.453333	4.84224E-001	-9.84988E-005	0.00000E+000	-4.76955E-005	-5.99601E-002	4.84411E-001	3.57930E+000	9	...........
	34	0.466667	4.74070E-001	-9.92271E-005	0.00000E+000	-4.70406E-005	-5.99601E-002	4.74170E-001	3.57930E+000	9	...........
	35	0.48	4.63786E-001	-9.90729E-005	0.00000E+000	-4.59486E-005	-5.99601E-002	4.63881E-001	3.57930E+000	9	...........
	36	0.493333	4.53556E-001	-9.86988E-005	0.00000E+000	-4.47654E-005	-5.99601E-002	4.53652E-001	3.57930E+000	9	...........
	37	0.506667	4.43380E-001	-9.87540E-005	0.00000E+000	-4.37855E-005	-5.99601E-002	4.43474E-001	3.57930E+000	9	...........
	38	0.52	4.33264E-001	-9.89437E-005	0.00000E+000	-4.28687E-005	-5.99601E-002	4.33352E-001	3.57930E+000	9	...........
	39	0.533333	4.23198E-001	-9.80820E-005	0.00000E+000	-4.15082E-005	-5.99601E-002	4.23292E-001	3.57930E+000	9	...........
	40	0.546667	4.13194E-001	-9.90385E-005	0.00000E+000	-4.09221E-005	-5.99601E-002	4.13281E-001	3.57930E+000	9	...........
	41	0.56	4.03252E-001	-9.89947E-005	0.00000E+000	-3.99199E-005	-5.99601E-002	4.03330E-001	3.57930E+000	9	...........
	42	0.573333	3.93362E-001	-9.95032E-005	0.00000E+000	-3.91407E-005	-5.99601E-002	3.93435E-001	3.57930E+000	9	...........
	43	0.586667	3.83531E-001	-9.93958E-005	0.00000E+000	-3.81213E-005	-5.99601E-002	3.83602E-001	3.57930E+000	9	...........
	44	0.6	3.73755E-001	-9.88134E-005	0.00000E+000	-3.69321E-005	-5.99601E-002	3.73822E-001	3.57930E+000	9	...........
	45	0.613333	3.64035E-001	-9.84779E-005	0.00000E+000	-3.58494E-005	-5.99601E-002	3.64107E-001	3.57930E+000	9	...........
	46	0.626667	3.54370E-001	-9.90812E-005	0.00000E+000	-3.51114E-005	-5.99601E-002	3.54436E-001	3.57934E+000	9	...........
	47	0.64	3.44758E-001	-9.95605E-005	0.00000E+000	-3.43242E-005	-5.99601E-002	3.44822E-001	3.57940E+000	9	...........
	48	0.653333	3.35203E-001	-9.85009E-005	0.00000E+000	-3.30178E-005	-5.99601E-002	3.35262E-001	3.57940E+000	9	...........
	49	0.666667	3.25703E-001	-9.88447E-005	0.00000E+000	-3.21940E-005	-5.99601E-002	3.25758E-001	3.57940E+000	9	...........
	50	0.68	3.16247E-001	-9.91635E-005	0.00000E+000	-3.13602E-005	-5.99601E-002	3.16305E-001	3.57940E+000	9	...........
	51	0.693333	3.06839E-001	-9.90895E-005	0.00000E+000	-3.04045E-005	-5.99601E-002	3.06896E-001	3.57940E+000	9	...........
	52	0.706667	2.97479E-001	-9.92458E-005	0.00000E+000	-2.95235E-005	-5.99601E-002	2.97537E-001	3.57940E+000	9	...........
	53	0.72	2.88163E-001	-9.93083E-005	0.00000E+000	-2.86170E-005	-5.99601E-002	2.88218E-001	3.57940E+000	9	...........
	54	0.733333	2.78899E-001	-9.95063E-005	0.00000E+000	-2.77522E-005	-5.99601E-002	2.78948E-001	3.57940E+000	9	...........
	55	0.746667	2.69676E-001	-9.84488E-005	0.00000E+000	-2.65493E-005	-5.99601E-002	2.69727E-001	3.57940E+000	9	...........
	56	0.76	2.60493E-001	-9.86176E-005	0.00000E+000	-2.56892E-005	-5.99601E-002	2.60539E-001	3.57940E+000	9	...........
	57	0.773333	2.51358E-001	-9.92906E-005	0.00000E+000	-2.49575E-005	-5.99601E-002	2.51403E-001	3.57940E+000	9	...........
	58	0.786667	2.42268E-001	-9.92291E-005	0.00000E+000	-2.40401E-005	-5.99601E-002	2.42311E-001	3.57940E+000	9	...........
	59	0.8	2.33214E-001	-9.88989E-005	0.00000E+000	-2.30646E-005	-5.99601E-002	2.33255E-001	3.57940E+000	9	...........
	60	0.813333	2.24210E-001	-9.93198E-005	0.00000E+000	-2.22685E-005	-5.99601E-002	2.24252E-001	3.57940E+000	9	...........
	61	0.826667	2.15251E-001	-9.86290E-005	0.00000E+000	-2.12300E-005	-5.99601E-002	2.15286E-001	3.57940E+000	9	...........
	62	0.84	2.06336E-001	-9.84081E-005	0.00000E+000	-2.03051E-005	-5.99601E-002	2.06370E-001	3.57940E+000	9	...........
	63	0.853333	1.97472E-001	-9.85113E-005	0.00000E+000	-1.94532E-005	-5.99601E-002	1.97505E-001	3.57940E+000	9	...........
	64	0.866667	1.88661E-001	-9.84592E-005	0.00000E+000	-1.85754E-005	-5.99601E-002	1.88690E-001	3.57940E+000	9	...........
	65	0.88	1.79893E-001	-9.93021E-005	0.00000E+000	-1.78637E-005	-5.99601E-002	1.79924E-001	3.57940E+000	9	...........
	66	0.893333	1.71186E-001	-9.86707E-005	0.00000E+000	-1.68910E-005	-5.99601E-002	1.71215E-001	3.57940E+000	9	...........
	67	0.906667	1.62543E-001	-9.90020E-005	0.00000E+000	-1.60921E-005	-5.99601E-002	1.62563E-001	3.57940E+000	9	...........
	68	0.92	1.53950E-001	-9.92500E-005	0.00000E+000	-1.52796E-005	-5.99601E-002	1.53975E-001	3.57940E+000	9	...........
	69	0.933333	1.45422E-001	-9.91187E-005	0.00000E+000	-1.44141E-005	-5.99601E-002	1.45443E-001	3.57940E+000	9	...........
	70	0.946667	1.36960E-001	-9.87405E-005	0.00000E+000	-1.35235E-005	-5.99601E-002	1.36981E-001	3.57940E+000	9	...........
	71	0.96	1.28561E-001	-9.96521E-005	0.00000E+000	-1.28113E-005	-5.99601E-002	1.28578E-001	3.57940E+000	9	...........
	72	0.97333	1.20233E-001	-9.87999E-005	0.00000E+000	-1.18790E-005	-5.99601E-002	1.20247E-001	3.57940E+000	9	...........
	73	0.98667	1.11976E-001	-9.89030E-005	0.00000E+000	-1.10748E-005	-5.99601E-002	1.11989E-001	3.57940E+000	9	...........
	74	1	1.03784E-001	-9.87790E-005	0.00000E+000	-1.02517E-005	-5.99601E-002	1.03801E-001	3.57940E+000	9	...........
	75	1.01333	9.56703E-002	-9.86863E-005	0.00000E+000	-9.44135E-006	-5.99601E-002	9.56803E-002	3.57940E+000	9	...........
	76	1.02667	8.76225E-002	-9.84831E-005	0.00000E+000	-8.62934E-006	-5.99601E-002	8.76269E-002	3.57940E+000	9	...........
	77	1.04	7.96464E-002	-9.85071E-005	0.00000E+000	-7.84574E-006	-5.99601E-002	7.96451E-002	3.57940E+000	9	...........
	78	1.05333	7.17353E-002	-9.92323E-005	0.00000E+000	-7.11846E-006	-5.99601E-002	7.17394E-002	3.57940E+000	9	...........
	79	1.06667	6.38999E-002	-9.89332E-005	0.00000E+000	-6.32182E-006	-5.99601E-002	6.38979E-002	3.57940E+000	9	...........
	80	1.08	5.61258E-002	-9.94636E-005	0.00000E+000	-5.58247E-006	-5.99601E-002	5.61224E-002	3.57940E+000	9	...........
	81	1.09333	4.84377E-002	-9.89093E-005	0.00000E+000	-4.79094E-006	-5.99601E-002	4.84304E-002	3.57940E+000	9	...........
	82	1.10667	4.08229E-002	-9.89760E-005	0.00000E+000	-4.04049E-006	-5.99601E-002	4.08149E-002	3.57940E+000	9	...........
	83	1.12	3.32573E-002	-9.95084E-005	0.00000E+000	-3.30938E-006	-5.99601E-002	3.32419E-002	3.57940E+000	9	...........
	84	1.13333	2.57460E-002	-9.87634E-005	0.00000E+000	-2.54276E-006	-5.99601E-002	2.57254E-002	3.57940E+000	9	...........
	85	1.14667	1.83026E-002	-9.93229E-005	0.00000E+000	-1.81787E-006	-5.99601E-002	1.82824E-002	3.57940E+000	9	...........
	86	1.16	1.09288E-002	-9.90145E-005	0.00000E+000	-1.08211E-006	-5.99601E-002	1.08996E-002	3.57940E+000	9	...........
	87	1.17333	3.61009E-003	-9.79841E-005	0.00000E+000	-3.53732E-007	-5.99601E-002	3.58088E-003	3.57940E+000	9	...........
	88	1.175	-4.76760E-004	-1.01294E-004	0.00000E+000	4.82930E-008	-5.99601E-002	-5.03146E-004	3.57940E+000	9	...........
STARTTIMEOFFSET	QUANT	1020.393	Start Time Offset (s)
