EXPLAIN
TAG	PWR800_DISCHARGE
TITLE	LABEL	PWR Cyclic Charge Discharge (Cell) - Discharge Step	Test &Identifier
DATE	LABEL	13-7-2017	Date
TIME	LABEL	15:46:52	Time
NOTES	NOTES	2	&Notes...
	supercap test cell
	6M KOH
PSTAT	PSTAT	IFC5000-01520	Potentiostat
CAPACITY	QUANT	1.00000E-003	Capacity (A-hr)
CELLTYPE	SELECTOR	1	&Cell Type
WORKINGCONNECTION	SELECTOR	0	&Working Lead
MAXDISCHARGETIME	VARIABLEANDUNITS	1.00000E+002	s	1.00000E+002	second(s)	Max &Discharge Time
DISCHARGEMODE	MULTIPARAM	0	1.00000E-004	&Discharge Mode	Constant Current	Amp(s)
SAMPLETIME	QUANT	1.00000E-002	Sa&mple Period (s)
DISCHARGESTOPAT1	MULTIPARAM	3	0.00000E+000	Discharge Stop At &1	Voltage < Limit	V
DISCHARGESTOPAT2	MULTIPARAM	0	0.00000E+000	Discharge Stop At &2	None	N/A
AESBHCSELECTOR	TOGGLE	F	Save Both Half Cells
IRCOMP	TOGGLE	F	IR &Measure
EOC	QUANT	0	Open Circuit (V)
SEQUENCER	TOGGLE	TRUE	Run as Sequence
PSTATMODEL	IQUANT	53	Pstat Model
PSTATSECTION	LABEL	IFC5000-01520	Pstat Section
PSTATSERIALNO	LABEL	01520	Pstat Serial Number
CTRLMODE	IQUANT	0	Control Mode
ELECTROMETER	IQUANT	1	RE=0 or CS=1
IESTAB	IQUANT	0	I/E Stability
CASPEED	IQUANT	4	Control Amp Speed
CONVENTION	IQUANT	1	Current Convention
ICHRANGE	IQUANT	2	Ich Range
ICHRANGEMODE	TOGGLE	T	Ich Auto Range
ICHOFFSETENABLE	TOGGLE	F	Ich Offset Enable
ICHOFFSET	QUANT	0	Ich Offset (V)
ICHFILTER	IQUANT	1	Ich Filter
VCHRANGE	IQUANT	2	Vch Range
VCHRANGEMODE	TOGGLE	T	Vch Auto Range
VCHOFFSETENABLE	TOGGLE	F	Vch Offset Enable
VCHOFFSET	QUANT	0	Vch Offset (V)
VCHFILTER	IQUANT	1	Vch Filter
IERANGELOWERLIMIT	IQUANT	9	I/E Range Lower Limit
IERANGEMODE	TOGGLE	F	I/E AutoRange
IERANGE	IQUANT	9	I/E Range
ACHSELECT	IQUANT	1	Ach Select
ACHRANGE	IQUANT	2	Ach Range
ACHOFFSETENABLE	TOGGLE	F	Ach Offset Enable
ACHOFFSET	QUANT	0	Ach Offset (V)
ACHFILTER	IQUANT	1	Ach Filter
CABLEID	IQUANT	14	Cable ID
DCCALDATE	LABEL	5-7-2017	DC Calibration Date
ACCALDATE	LABEL	12/3/2015	AC Calibration Date
FRAMEWORKVERSION	QUANT	7.01	Framework Version
INSTRUMENTVERSION	LABEL	4.00	Instrument Version
CURVE	TABLE	86
	Pt	T	Vf	Im	Vu	Pwr	Sig	Ach	Temp	IERange	Over
	#	s	V	A	V	W	V	V	deg C	#	bits
	0	0.013333	8.46741E-001	-9.92489E-005	0.00000E+000	-8.40381E-005	-5.99601E-002	8.47089E-001	3.57910E+000	9	...........
	1	0.026667	8.32593E-001	-9.78882E-005	0.00000E+000	-8.15010E-005	-5.99601E-002	8.32925E-001	3.57910E+000	9	...........
	2	0.04	8.19258E-001	-9.88082E-005	0.00000E+000	-8.09494E-005	-5.99601E-002	8.19588E-001	3.57910E+000	9	...........
	3	0.053333	8.06480E-001	-9.85696E-005	0.00000E+000	-7.94944E-005	-5.99601E-002	8.06787E-001	3.57910E+000	9	...........
	4	0.066667	7.94065E-001	-9.95761E-005	0.00000E+000	-7.90699E-005	-5.99601E-002	7.94381E-001	3.57910E+000	9	...........
	5	0.08	7.81930E-001	-9.85509E-005	0.00000E+000	-7.70599E-005	-5.99601E-002	7.82239E-001	3.57910E+000	9	...........
	6	0.093333	7.70005E-001	-9.89739E-005	0.00000E+000	-7.62104E-005	-5.99601E-002	7.70299E-001	3.57910E+000	9	...........
	7	0.106667	7.58233E-001	-9.92250E-005	0.00000E+000	-7.52357E-005	-5.99601E-002	7.58486E-001	3.57910E+000	9	...........
	8	0.12	7.46555E-001	-9.90583E-005	0.00000E+000	-7.39524E-005	-5.99601E-002	7.46846E-001	3.57910E+000	9	...........
	9	0.133333	7.34979E-001	-9.85144E-005	0.00000E+000	-7.24061E-005	-5.99601E-002	7.35245E-001	3.57910E+000	9	...........
	10	0.146667	7.23460E-001	-9.91052E-005	0.00000E+000	-7.16986E-005	-5.99601E-002	7.23755E-001	3.57910E+000	9	...........
	11	0.16	7.11971E-001	-9.85269E-005	0.00000E+000	-7.01483E-005	-5.99601E-002	7.12266E-001	3.57910E+000	9	...........
	12	0.173333	7.00563E-001	-9.86686E-005	0.00000E+000	-6.91236E-005	-5.99601E-002	7.00825E-001	3.57910E+000	9	...........
	13	0.186667	6.89157E-001	-9.98928E-005	0.00000E+000	-6.88419E-005	-5.99601E-002	6.89444E-001	3.57910E+000	9	...........
	14	0.2	6.77818E-001	-9.95553E-005	0.00000E+000	-6.74804E-005	-5.99601E-002	6.78093E-001	3.57910E+000	9	...........
	15	0.213333	6.66478E-001	-9.90031E-005	0.00000E+000	-6.59833E-005	-5.99601E-002	6.66745E-001	3.57910E+000	9	...........
	16	0.226667	6.55151E-001	-9.91135E-005	0.00000E+000	-6.49343E-005	-5.99601E-002	6.55427E-001	3.57910E+000	9	...........
	17	0.24	6.43847E-001	-9.87853E-005	0.00000E+000	-6.36026E-005	-5.99601E-002	6.44114E-001	3.57910E+000	9	...........
	18	0.253333	6.32571E-001	-9.90781E-005	0.00000E+000	-6.26740E-005	-5.99601E-002	6.32823E-001	3.57910E+000	9	...........
	19	0.266667	6.21327E-001	-9.88926E-005	0.00000E+000	-6.14447E-005	-5.99601E-002	6.21602E-001	3.57910E+000	9	...........
	20	0.28	6.10056E-001	-9.86311E-005	0.00000E+000	-6.01705E-005	-5.99601E-002	6.10367E-001	3.57910E+000	9	...........
	21	0.293333	5.98849E-001	-9.86290E-005	0.00000E+000	-5.90639E-005	-5.99601E-002	5.99143E-001	3.57910E+000	9	...........
	22	0.306667	5.87691E-001	-9.89041E-005	0.00000E+000	-5.81250E-005	-5.99601E-002	5.87971E-001	3.57910E+000	9	...........
	23	0.32	5.76552E-001	-9.85665E-005	0.00000E+000	-5.68287E-005	-5.99601E-002	5.76815E-001	3.57910E+000	9	...........
	24	0.333333	5.65459E-001	-9.83758E-005	0.00000E+000	-5.56275E-005	-5.99601E-002	5.65705E-001	3.57910E+000	9	...........
	25	0.346667	5.54360E-001	-9.88749E-005	0.00000E+000	-5.48123E-005	-5.99601E-002	5.54620E-001	3.57910E+000	9	...........
	26	0.36	5.43328E-001	-9.87197E-005	0.00000E+000	-5.36372E-005	-5.99601E-002	5.43581E-001	3.57910E+000	9	...........
	27	0.373333	5.32316E-001	-9.87207E-005	0.00000E+000	-5.25506E-005	-5.99601E-002	5.32557E-001	3.57910E+000	9	...........
	28	0.386667	5.21352E-001	-9.93125E-005	0.00000E+000	-5.17767E-005	-5.99601E-002	5.21624E-001	3.57910E+000	9	...........
	29	0.4	5.10461E-001	-9.85238E-005	0.00000E+000	-5.02926E-005	-5.99601E-002	5.10715E-001	3.57910E+000	9	...........
	30	0.413333	4.99604E-001	-9.91343E-005	0.00000E+000	-4.95279E-005	-5.99601E-002	4.99888E-001	3.57910E+000	9	...........
	31	0.426667	4.88894E-001	-9.81518E-005	0.00000E+000	-4.79858E-005	-5.99601E-002	4.89101E-001	3.57910E+000	9	...........
	32	0.44	4.78503E-001	-9.86332E-005	0.00000E+000	-4.71962E-005	-5.99601E-002	4.78601E-001	3.57910E+000	9	...........
	33	0.453333	4.67840E-001	-9.91968E-005	0.00000E+000	-4.64083E-005	-5.99601E-002	4.67938E-001	3.57910E+000	9	...........
	34	0.466667	4.57251E-001	-9.88082E-005	0.00000E+000	-4.51801E-005	-5.99601E-002	4.57344E-001	3.57910E+000	9	...........
	35	0.48	4.46729E-001	-9.80268E-005	0.00000E+000	-4.37914E-005	-5.99601E-002	4.46819E-001	3.57910E+000	9	...........
	36	0.493333	4.36273E-001	-9.87561E-005	0.00000E+000	-4.30846E-005	-5.99601E-002	4.36364E-001	3.57910E+000	9	...........
	37	0.506667	4.25891E-001	-9.74631E-005	0.00000E+000	-4.15086E-005	-5.99601E-002	4.25976E-001	3.57910E+000	9	...........
	38	0.52	4.15572E-001	-9.79695E-005	0.00000E+000	-4.07134E-005	-5.99601E-002	4.15659E-001	3.57910E+000	9	...........
	39	0.533333	4.05329E-001	-9.82123E-005	0.00000E+000	-3.98083E-005	-5.99601E-002	4.05406E-001	3.57910E+000	9	...........
	40	0.546667	3.95151E-001	-9.89780E-005	0.00000E+000	-3.91113E-005	-5.99601E-002	3.95226E-001	3.57910E+000	9	...........
	41	0.56	3.85040E-001	-9.87009E-005	0.00000E+000	-3.80038E-005	-5.99601E-002	3.85111E-001	3.57910E+000	9	...........
	42	0.573333	3.74995E-001	-9.91645E-005	0.00000E+000	-3.71862E-005	-5.99601E-002	3.75066E-001	3.57910E+000	9	...........
	43	0.586667	3.65021E-001	-9.81445E-005	0.00000E+000	-3.58248E-005	-5.99601E-002	3.65089E-001	3.57910E+000	9	...........
	44	0.6	3.55106E-001	-9.93260E-005	0.00000E+000	-3.52712E-005	-5.99601E-002	3.55176E-001	3.57910E+000	9	...........
	45	0.613333	3.45254E-001	-9.85978E-005	0.00000E+000	-3.40412E-005	-5.99601E-002	3.45320E-001	3.57910E+000	9	...........
	46	0.626667	3.35469E-001	-9.81675E-005	0.00000E+000	-3.29321E-005	-5.99601E-002	3.35535E-001	3.57910E+000	9	...........
	47	0.64	3.25745E-001	-9.86801E-005	0.00000E+000	-3.21446E-005	-5.99601E-002	3.25803E-001	3.57910E+000	9	...........
	48	0.653333	3.16069E-001	-9.98011E-005	0.00000E+000	-3.15441E-005	-5.99601E-002	3.16130E-001	3.57910E+000	9	...........
	49	0.666667	3.06454E-001	-9.87832E-005	0.00000E+000	-3.02725E-005	-5.99601E-002	3.06511E-001	3.57910E+000	9	...........
	50	0.68	2.96897E-001	-9.83925E-005	0.00000E+000	-2.92125E-005	-5.99601E-002	2.96950E-001	3.57910E+000	9	...........
	51	0.693333	2.87391E-001	-9.84706E-005	0.00000E+000	-2.82996E-005	-5.99601E-002	2.87444E-001	3.57910E+000	9	...........
	52	0.706667	2.77946E-001	-9.90354E-005	0.00000E+000	-2.75265E-005	-5.99601E-002	2.77998E-001	3.57910E+000	9	...........
	53	0.72	2.68546E-001	-9.85488E-005	0.00000E+000	-2.64649E-005	-5.99601E-002	2.68598E-001	3.57910E+000	9	...........
	54	0.733333	2.59194E-001	-9.85967E-005	0.00000E+000	-2.55557E-005	-5.99601E-002	2.59246E-001	3.57910E+000	9	...........
	55	0.746667	2.49902E-001	-9.91614E-005	0.00000E+000	-2.47807E-005	-5.99601E-002	2.49948E-001	3.57910E+000	9	...........
	56	0.76	2.40657E-001	-9.87509E-005	0.00000E+000	-2.37651E-005	-5.99601E-002	2.40698E-001	3.57910E+000	9	...........
	57	0.773333	2.31472E-001	-9.92625E-005	0.00000E+000	-2.29765E-005	-5.99601E-002	2.31505E-001	3.57910E+000	9	...........
	58	0.786667	2.22331E-001	-9.85321E-005	0.00000E+000	-2.19067E-005	-5.99601E-002	2.22366E-001	3.57910E+000	9	...........
	59	0.8	2.13249E-001	-9.89343E-005	0.00000E+000	-2.10977E-005	-5.99601E-002	2.13278E-001	3.57910E+000	9	...........
	60	0.813333	2.04217E-001	-9.84092E-005	0.00000E+000	-2.00968E-005	-5.99601E-002	2.04253E-001	3.57910E+000	9	...........
	61	0.826667	1.95247E-001	-9.97178E-005	0.00000E+000	-1.94696E-005	-5.99601E-002	1.95279E-001	3.57910E+000	9	...........
	62	0.84	1.86341E-001	-9.89520E-005	0.00000E+000	-1.84388E-005	-5.99601E-002	1.86368E-001	3.57910E+000	9	...........
	63	0.853333	1.77488E-001	-9.87947E-005	0.00000E+000	-1.75349E-005	-5.99601E-002	1.77514E-001	3.57980E+000	9	...........
	64	0.866667	1.68703E-001	-9.96386E-005	0.00000E+000	-1.68093E-005	-5.99601E-002	1.68726E-001	3.57990E+000	9	...........
	65	0.88	1.59993E-001	-9.90041E-005	0.00000E+000	-1.58399E-005	-5.99601E-002	1.60009E-001	3.57990E+000	9	...........
	66	0.893333	1.51346E-001	-9.93490E-005	0.00000E+000	-1.50360E-005	-5.99601E-002	1.51361E-001	3.57990E+000	9	...........
	67	0.906667	1.42769E-001	-9.84331E-005	0.00000E+000	-1.40532E-005	-5.99601E-002	1.42782E-001	3.57990E+000	9	...........
	68	0.92	1.34258E-001	-9.94657E-005	0.00000E+000	-1.33541E-005	-5.99601E-002	1.34275E-001	3.57990E+000	9	...........
	69	0.933333	1.25838E-001	-9.90947E-005	0.00000E+000	-1.24699E-005	-5.99601E-002	1.25847E-001	3.57990E+000	9	...........
	70	0.946667	1.17480E-001	-9.87228E-005	0.00000E+000	-1.15980E-005	-5.99601E-002	1.17494E-001	3.57990E+000	9	...........
	71	0.96	1.09203E-001	-9.94490E-005	0.00000E+000	-1.08602E-005	-5.99601E-002	1.09217E-001	3.57990E+000	9	...........
	72	0.97333	1.01003E-001	-9.84998E-005	0.00000E+000	-9.94882E-006	-5.99601E-002	1.01011E-001	3.57990E+000	9	...........
	73	0.98667	9.28770E-002	-9.90479E-005	0.00000E+000	-9.19927E-006	-5.99601E-002	9.28772E-002	3.57990E+000	9	...........
	74	1	8.48310E-002	-9.87436E-005	0.00000E+000	-8.37652E-006	-5.99601E-002	8.48309E-002	3.57990E+000	9	...........
	75	1.01333	7.68492E-002	-9.78653E-005	0.00000E+000	-7.52087E-006	-5.99601E-002	7.68477E-002	3.57990E+000	9	...........
	76	1.02667	6.89435E-002	-9.90676E-005	0.00000E+000	-6.83007E-006	-5.99601E-002	6.89404E-002	3.57990E+000	9	...........
	77	1.04	6.11098E-002	-1.00032E-004	0.00000E+000	-6.11296E-006	-5.99601E-002	6.11026E-002	3.57990E+000	9	...........
	78	1.05333	5.33395E-002	-9.80101E-005	0.00000E+000	-5.22781E-006	-5.99601E-002	5.33316E-002	3.57990E+000	9	...........
	79	1.06667	4.56696E-002	-9.94386E-005	0.00000E+000	-4.54132E-006	-5.99601E-002	4.56640E-002	3.57990E+000	9	...........
	80	1.08	3.80508E-002	-9.87634E-005	0.00000E+000	-3.75802E-006	-5.99601E-002	3.80406E-002	3.57990E+000	9	...........
	81	1.09333	3.04898E-002	-9.90739E-005	0.00000E+000	-3.02074E-006	-5.99601E-002	3.04765E-002	3.57990E+000	9	...........
	82	1.10667	2.30020E-002	-9.87895E-005	0.00000E+000	-2.27235E-006	-5.99601E-002	2.29824E-002	3.57990E+000	9	...........
	83	1.12	1.55748E-002	-9.79987E-005	0.00000E+000	-1.52631E-006	-5.99601E-002	1.55483E-002	3.57990E+000	9	...........
	84	1.13333	8.21461E-003	-9.86884E-005	0.00000E+000	-8.10686E-007	-5.99601E-002	8.18266E-003	3.57990E+000	9	...........
	85	1.14333	1.82666E-003	-1.00143E-004	0.00000E+000	-1.82927E-007	-5.99601E-002	1.79099E-003	3.57990E+000	9	...........
STARTTIMEOFFSET	QUANT	2026.069	Start Time Offset (s)
