EXPLAIN
TAG	PWR800_DISCHARGE
TITLE	LABEL	PWR Cyclic Charge Discharge (Cell) - Discharge Step	Test &Identifier
DATE	LABEL	13-7-2017	Date
TIME	LABEL	15:50:20	Time
NOTES	NOTES	2	&Notes...
	supercap test cell
	6M KOH
PSTAT	PSTAT	IFC5000-01520	Potentiostat
CAPACITY	QUANT	1.00000E-003	Capacity (A-hr)
CELLTYPE	SELECTOR	1	&Cell Type
WORKINGCONNECTION	SELECTOR	0	&Working Lead
MAXDISCHARGETIME	VARIABLEANDUNITS	1.00000E+002	s	1.00000E+002	second(s)	Max &Discharge Time
DISCHARGEMODE	MULTIPARAM	0	1.00000E-004	&Discharge Mode	Constant Current	Amp(s)
SAMPLETIME	QUANT	1.00000E-002	Sa&mple Period (s)
DISCHARGESTOPAT1	MULTIPARAM	3	0.00000E+000	Discharge Stop At &1	Voltage < Limit	V
DISCHARGESTOPAT2	MULTIPARAM	0	0.00000E+000	Discharge Stop At &2	None	N/A
AESBHCSELECTOR	TOGGLE	F	Save Both Half Cells
IRCOMP	TOGGLE	F	IR &Measure
EOC	QUANT	0	Open Circuit (V)
SEQUENCER	TOGGLE	TRUE	Run as Sequence
PSTATMODEL	IQUANT	53	Pstat Model
PSTATSECTION	LABEL	IFC5000-01520	Pstat Section
PSTATSERIALNO	LABEL	01520	Pstat Serial Number
CTRLMODE	IQUANT	0	Control Mode
ELECTROMETER	IQUANT	1	RE=0 or CS=1
IESTAB	IQUANT	0	I/E Stability
CASPEED	IQUANT	4	Control Amp Speed
CONVENTION	IQUANT	1	Current Convention
ICHRANGE	IQUANT	2	Ich Range
ICHRANGEMODE	TOGGLE	T	Ich Auto Range
ICHOFFSETENABLE	TOGGLE	F	Ich Offset Enable
ICHOFFSET	QUANT	0	Ich Offset (V)
ICHFILTER	IQUANT	1	Ich Filter
VCHRANGE	IQUANT	2	Vch Range
VCHRANGEMODE	TOGGLE	T	Vch Auto Range
VCHOFFSETENABLE	TOGGLE	F	Vch Offset Enable
VCHOFFSET	QUANT	0	Vch Offset (V)
VCHFILTER	IQUANT	1	Vch Filter
IERANGELOWERLIMIT	IQUANT	9	I/E Range Lower Limit
IERANGEMODE	TOGGLE	F	I/E AutoRange
IERANGE	IQUANT	9	I/E Range
ACHSELECT	IQUANT	1	Ach Select
ACHRANGE	IQUANT	2	Ach Range
ACHOFFSETENABLE	TOGGLE	F	Ach Offset Enable
ACHOFFSET	QUANT	0	Ach Offset (V)
ACHFILTER	IQUANT	1	Ach Filter
CABLEID	IQUANT	14	Cable ID
DCCALDATE	LABEL	5-7-2017	DC Calibration Date
ACCALDATE	LABEL	12/3/2015	AC Calibration Date
FRAMEWORKVERSION	QUANT	7.01	Framework Version
INSTRUMENTVERSION	LABEL	4.00	Instrument Version
CURVE	TABLE	86
	Pt	T	Vf	Im	Vu	Pwr	Sig	Ach	Temp	IERange	Over
	#	s	V	A	V	W	V	V	deg C	#	bits
	0	0.013333	8.46741E-001	-9.93052E-005	0.00000E+000	-8.40857E-005	-5.99601E-002	8.47017E-001	3.58000E+000	9	...........
	1	0.026667	8.32477E-001	-9.94479E-005	0.00000E+000	-8.27881E-005	-5.99601E-002	8.32737E-001	3.58000E+000	9	...........
	2	0.04	8.19049E-001	-9.97782E-005	0.00000E+000	-8.17233E-005	-5.99601E-002	8.19325E-001	3.58000E+000	9	...........
	3	0.053333	8.06168E-001	-9.85290E-005	0.00000E+000	-7.94309E-005	-5.99601E-002	8.06435E-001	3.58000E+000	9	...........
	4	0.066667	7.93694E-001	-9.84779E-005	0.00000E+000	-7.81613E-005	-5.99601E-002	7.93946E-001	3.58000E+000	9	...........
	5	0.08	7.81459E-001	-9.84206E-005	0.00000E+000	-7.69117E-005	-5.99601E-002	7.81717E-001	3.58000E+000	9	...........
	6	0.093333	7.69450E-001	-9.88416E-005	0.00000E+000	-7.60536E-005	-5.99601E-002	7.69719E-001	3.58000E+000	9	...........
	7	0.106667	7.57591E-001	-9.94521E-005	0.00000E+000	-7.53441E-005	-5.99601E-002	7.57857E-001	3.58000E+000	9	...........
	8	0.12	7.45852E-001	-9.92917E-005	0.00000E+000	-7.40569E-005	-5.99601E-002	7.46119E-001	3.58000E+000	9	...........
	9	0.133333	7.34174E-001	-9.90906E-005	0.00000E+000	-7.27497E-005	-5.99601E-002	7.34456E-001	3.58000E+000	9	...........
	10	0.146667	7.22614E-001	-9.83560E-005	0.00000E+000	-7.10734E-005	-5.99601E-002	7.22860E-001	3.58000E+000	9	...........
	11	0.16	7.11019E-001	-9.92187E-005	0.00000E+000	-7.05464E-005	-5.99601E-002	7.11314E-001	3.58000E+000	9	...........
	12	0.173333	6.99554E-001	-9.80456E-005	0.00000E+000	-6.85881E-005	-5.99601E-002	6.99820E-001	3.58000E+000	9	...........
	13	0.186667	6.88061E-001	-9.92052E-005	0.00000E+000	-6.82592E-005	-5.99601E-002	6.88367E-001	3.58000E+000	9	...........
	14	0.2	6.76661E-001	-9.81800E-005	0.00000E+000	-6.64346E-005	-5.99601E-002	6.76939E-001	3.58000E+000	9	...........
	15	0.213333	6.65246E-001	-9.89187E-005	0.00000E+000	-6.58053E-005	-5.99601E-002	6.65524E-001	3.58000E+000	9	...........
	16	0.226667	6.53856E-001	-9.86488E-005	0.00000E+000	-6.45021E-005	-5.99601E-002	6.54128E-001	3.58000E+000	9	...........
	17	0.24	6.42479E-001	-9.79049E-005	0.00000E+000	-6.29018E-005	-5.99601E-002	6.42773E-001	3.58000E+000	9	...........
	18	0.253333	6.31135E-001	-9.92416E-005	0.00000E+000	-6.26348E-005	-5.99601E-002	6.31403E-001	3.58000E+000	9	...........
	19	0.266667	6.19819E-001	-9.84790E-005	0.00000E+000	-6.10392E-005	-5.99601E-002	6.20091E-001	3.58000E+000	9	...........
	20	0.28	6.08469E-001	-9.83300E-005	0.00000E+000	-5.98307E-005	-5.99601E-002	6.08791E-001	3.57925E+000	9	...........
	21	0.293333	5.97228E-001	-9.86738E-005	0.00000E+000	-5.89308E-005	-5.99601E-002	5.97522E-001	3.57850E+000	9	...........
	22	0.306667	5.85969E-001	-9.83988E-005	0.00000E+000	-5.76586E-005	-5.99601E-002	5.86265E-001	3.57850E+000	9	...........
	23	0.32	5.74785E-001	-9.87509E-005	0.00000E+000	-5.67606E-005	-5.99601E-002	5.75055E-001	3.57850E+000	9	...........
	24	0.333333	5.63602E-001	-9.90176E-005	0.00000E+000	-5.58066E-005	-5.99601E-002	5.63879E-001	3.57850E+000	9	...........
	25	0.346667	5.52457E-001	-9.91041E-005	0.00000E+000	-5.47507E-005	-5.99601E-002	5.52739E-001	3.57850E+000	9	...........
	26	0.36	5.41380E-001	-9.90166E-005	0.00000E+000	-5.36056E-005	-5.99601E-002	5.41640E-001	3.57850E+000	9	...........
	27	0.373333	5.30299E-001	-9.92083E-005	0.00000E+000	-5.26100E-005	-5.99601E-002	5.30585E-001	3.57850E+000	9	...........
	28	0.386667	5.19301E-001	-9.83842E-005	0.00000E+000	-5.10910E-005	-5.99601E-002	5.19580E-001	3.57850E+000	9	...........
	29	0.4	5.08336E-001	-9.84425E-005	0.00000E+000	-5.00418E-005	-5.99601E-002	5.08628E-001	3.57850E+000	9	...........
	30	0.413333	4.97447E-001	-9.82758E-005	0.00000E+000	-4.88870E-005	-5.99601E-002	4.97730E-001	3.57850E+000	9	...........
	31	0.426667	4.86729E-001	-9.84394E-005	0.00000E+000	-4.79133E-005	-5.99601E-002	4.86956E-001	3.57850E+000	9	...........
	32	0.44	4.76242E-001	-9.87238E-005	0.00000E+000	-4.70165E-005	-5.99601E-002	4.76342E-001	3.57850E+000	9	...........
	33	0.453333	4.65535E-001	-9.86822E-005	0.00000E+000	-4.59400E-005	-5.99601E-002	4.65631E-001	3.57850E+000	9	...........
	34	0.466667	4.54901E-001	-9.86613E-005	0.00000E+000	-4.48811E-005	-5.99601E-002	4.54991E-001	3.57850E+000	9	...........
	35	0.48	4.44333E-001	-9.87947E-005	0.00000E+000	-4.38978E-005	-5.99601E-002	4.44430E-001	3.57850E+000	9	...........
	36	0.493333	4.33839E-001	-9.91062E-005	0.00000E+000	-4.29961E-005	-5.99601E-002	4.33928E-001	3.57850E+000	9	...........
	37	0.506667	4.23412E-001	-9.86176E-005	0.00000E+000	-4.17558E-005	-5.99601E-002	4.23499E-001	3.57850E+000	9	...........
	38	0.52	4.13054E-001	-9.88447E-005	0.00000E+000	-4.08282E-005	-5.99601E-002	4.13141E-001	3.57850E+000	9	...........
	39	0.533333	4.02777E-001	-9.83352E-005	0.00000E+000	-3.96071E-005	-5.99601E-002	4.02859E-001	3.57850E+000	9	...........
	40	0.546667	3.92568E-001	-9.89030E-005	0.00000E+000	-3.88262E-005	-5.99601E-002	3.92645E-001	3.57850E+000	9	...........
	41	0.56	3.82421E-001	-9.98334E-005	0.00000E+000	-3.81784E-005	-5.99601E-002	3.82492E-001	3.57850E+000	9	...........
	42	0.573333	3.72350E-001	-9.93948E-005	0.00000E+000	-3.70096E-005	-5.99601E-002	3.72416E-001	3.57850E+000	9	...........
	43	0.586667	3.62338E-001	-9.86707E-005	0.00000E+000	-3.57521E-005	-5.99601E-002	3.62403E-001	3.57850E+000	9	...........
	44	0.6	3.52402E-001	-9.88645E-005	0.00000E+000	-3.48401E-005	-5.99601E-002	3.52460E-001	3.57850E+000	9	...........
	45	0.613333	3.42516E-001	-9.84040E-005	0.00000E+000	-3.37049E-005	-5.99601E-002	3.42583E-001	3.57850E+000	9	...........
	46	0.626667	3.32699E-001	-9.96469E-005	0.00000E+000	-3.31524E-005	-5.99601E-002	3.32757E-001	3.57850E+000	9	...........
	47	0.64	3.22945E-001	-9.94094E-005	0.00000E+000	-3.21037E-005	-5.99601E-002	3.23005E-001	3.57850E+000	9	...........
	48	0.653333	3.13250E-001	-9.86207E-005	0.00000E+000	-3.08929E-005	-5.99601E-002	3.13306E-001	3.57850E+000	9	...........
	49	0.666667	3.03606E-001	-9.89551E-005	0.00000E+000	-3.00433E-005	-5.99601E-002	3.03663E-001	3.57850E+000	9	...........
	50	0.68	2.94026E-001	-9.92281E-005	0.00000E+000	-2.91757E-005	-5.99601E-002	2.94076E-001	3.57850E+000	9	...........
	51	0.693333	2.84496E-001	-9.97615E-005	0.00000E+000	-2.83817E-005	-5.99601E-002	2.84549E-001	3.57850E+000	9	...........
	52	0.706667	2.75018E-001	-9.88832E-005	0.00000E+000	-2.71947E-005	-5.99601E-002	2.75072E-001	3.57850E+000	9	...........
	53	0.72	2.65593E-001	-9.83373E-005	0.00000E+000	-2.61177E-005	-5.99601E-002	2.65642E-001	3.57850E+000	9	...........
	54	0.733333	2.56221E-001	-9.85467E-005	0.00000E+000	-2.52498E-005	-5.99601E-002	2.56265E-001	3.57850E+000	9	...........
	55	0.746667	2.46904E-001	-9.88697E-005	0.00000E+000	-2.44113E-005	-5.99601E-002	2.46945E-001	3.57850E+000	9	...........
	56	0.76	2.37633E-001	-9.97511E-005	0.00000E+000	-2.37041E-005	-5.99601E-002	2.37674E-001	3.57850E+000	9	...........
	57	0.773333	2.28419E-001	-9.83404E-005	0.00000E+000	-2.24628E-005	-5.99601E-002	2.28455E-001	3.57850E+000	9	...........
	58	0.786667	2.19255E-001	-9.92958E-005	0.00000E+000	-2.17711E-005	-5.99601E-002	2.19292E-001	3.57850E+000	9	...........
	59	0.8	2.10151E-001	-9.84175E-005	0.00000E+000	-2.06826E-005	-5.99601E-002	2.10182E-001	3.57850E+000	9	...........
	60	0.813333	2.01103E-001	-9.87290E-005	0.00000E+000	-1.98547E-005	-5.99601E-002	2.01134E-001	3.57850E+000	9	...........
	61	0.826667	1.92118E-001	-9.89655E-005	0.00000E+000	-1.90130E-005	-5.99601E-002	1.92142E-001	3.57850E+000	9	...........
	62	0.84	1.83183E-001	-9.86426E-005	0.00000E+000	-1.80696E-005	-5.99601E-002	1.83211E-001	3.57850E+000	9	...........
	63	0.853333	1.74319E-001	-9.85863E-005	0.00000E+000	-1.71855E-005	-5.99601E-002	1.74346E-001	3.57850E+000	9	...........
	64	0.866667	1.65515E-001	-9.84686E-005	0.00000E+000	-1.62981E-005	-5.99601E-002	1.65541E-001	3.57850E+000	9	...........
	65	0.88	1.56789E-001	-9.92052E-005	0.00000E+000	-1.55543E-005	-5.99601E-002	1.56807E-001	3.57850E+000	9	...........
	66	0.893333	1.48133E-001	-9.78716E-005	0.00000E+000	-1.44980E-005	-5.99601E-002	1.48151E-001	3.57850E+000	9	...........
	67	0.906667	1.39543E-001	-9.90906E-005	0.00000E+000	-1.38274E-005	-5.99601E-002	1.39559E-001	3.57850E+000	9	...........
	68	0.92	1.31031E-001	-9.94063E-005	0.00000E+000	-1.30253E-005	-5.99601E-002	1.31044E-001	3.57850E+000	9	...........
	69	0.933333	1.22592E-001	-9.80299E-005	0.00000E+000	-1.20177E-005	-5.99601E-002	1.22605E-001	3.57850E+000	9	...........
	70	0.946667	1.14227E-001	-9.96688E-005	0.00000E+000	-1.13849E-005	-5.99601E-002	1.14243E-001	3.57850E+000	9	...........
	71	0.96	1.05944E-001	-9.81685E-005	0.00000E+000	-1.04003E-005	-5.99601E-002	1.05952E-001	3.57850E+000	9	...........
	72	0.97333	9.77318E-002	-9.87603E-005	0.00000E+000	-9.65202E-006	-5.99601E-002	9.77397E-002	3.57850E+000	9	...........
	73	0.98667	8.95957E-002	-9.90270E-005	0.00000E+000	-8.87240E-006	-5.99601E-002	8.96006E-002	3.57850E+000	9	...........
	74	1	8.15412E-002	-9.90322E-005	0.00000E+000	-8.07520E-006	-5.99601E-002	8.15445E-002	3.57850E+000	9	...........
	75	1.01333	7.35589E-002	-9.94406E-005	0.00000E+000	-7.31474E-006	-5.99601E-002	7.35557E-002	3.57850E+000	9	...........
	76	1.02667	6.56404E-002	-9.87811E-005	0.00000E+000	-6.48404E-006	-5.99601E-002	6.56333E-002	3.57850E+000	9	...........
	77	1.04	5.78009E-002	-9.88374E-005	0.00000E+000	-5.71289E-006	-5.99601E-002	5.77964E-002	3.57850E+000	9	...........
	78	1.05333	5.00380E-002	-9.99720E-005	0.00000E+000	-5.00240E-006	-5.99601E-002	5.00210E-002	3.57850E+000	9	...........
	79	1.06667	4.23726E-002	-9.79497E-005	0.00000E+000	-4.15038E-006	-5.99601E-002	4.23631E-002	3.57850E+000	9	...........
	80	1.08	3.47483E-002	-9.84394E-005	0.00000E+000	-3.42060E-006	-5.99601E-002	3.47309E-002	3.57850E+000	9	...........
	81	1.09333	2.71885E-002	-9.91677E-005	0.00000E+000	-2.69622E-006	-5.99601E-002	2.71688E-002	3.57850E+000	9	...........
	82	1.10667	1.96935E-002	-9.95125E-005	0.00000E+000	-1.95975E-006	-5.99601E-002	1.96686E-002	3.57850E+000	9	...........
	83	1.12	1.22724E-002	-9.87978E-005	0.00000E+000	-1.21249E-006	-5.99601E-002	1.22441E-002	3.57850E+000	9	...........
	84	1.13333	4.91630E-003	-9.85154E-005	0.00000E+000	-4.84331E-007	-5.99601E-002	4.88290E-003	3.57850E+000	9	...........
	85	1.13667	3.47849E-004	-9.87770E-005	0.00000E+000	-3.43595E-008	-5.99601E-002	3.06192E-004	3.57850E+000	9	...........
STARTTIMEOFFSET	QUANT	2182.364	Start Time Offset (s)
