EXPLAIN
TAG	PWR800_DISCHARGE
TITLE	LABEL	PWR Cyclic Charge Discharge (Cell) - Discharge Step	Test &Identifier
DATE	LABEL	13-7-2017	Date
TIME	LABEL	15:36:51	Time
NOTES	NOTES	2	&Notes...
	supercap test cell
	6M KOH
PSTAT	PSTAT	IFC5000-01520	Potentiostat
CAPACITY	QUANT	1.00000E-003	Capacity (A-hr)
CELLTYPE	SELECTOR	1	&Cell Type
WORKINGCONNECTION	SELECTOR	0	&Working Lead
MAXDISCHARGETIME	VARIABLEANDUNITS	1.00000E+002	s	1.00000E+002	second(s)	Max &Discharge Time
DISCHARGEMODE	MULTIPARAM	0	1.00000E-004	&Discharge Mode	Constant Current	Amp(s)
SAMPLETIME	QUANT	1.00000E-002	Sa&mple Period (s)
DISCHARGESTOPAT1	MULTIPARAM	3	0.00000E+000	Discharge Stop At &1	Voltage < Limit	V
DISCHARGESTOPAT2	MULTIPARAM	0	0.00000E+000	Discharge Stop At &2	None	N/A
AESBHCSELECTOR	TOGGLE	F	Save Both Half Cells
IRCOMP	TOGGLE	F	IR &Measure
EOC	QUANT	0	Open Circuit (V)
SEQUENCER	TOGGLE	TRUE	Run as Sequence
PSTATMODEL	IQUANT	53	Pstat Model
PSTATSECTION	LABEL	IFC5000-01520	Pstat Section
PSTATSERIALNO	LABEL	01520	Pstat Serial Number
CTRLMODE	IQUANT	0	Control Mode
ELECTROMETER	IQUANT	1	RE=0 or CS=1
IESTAB	IQUANT	0	I/E Stability
CASPEED	IQUANT	4	Control Amp Speed
CONVENTION	IQUANT	1	Current Convention
ICHRANGE	IQUANT	2	Ich Range
ICHRANGEMODE	TOGGLE	T	Ich Auto Range
ICHOFFSETENABLE	TOGGLE	F	Ich Offset Enable
ICHOFFSET	QUANT	0	Ich Offset (V)
ICHFILTER	IQUANT	1	Ich Filter
VCHRANGE	IQUANT	2	Vch Range
VCHRANGEMODE	TOGGLE	T	Vch Auto Range
VCHOFFSETENABLE	TOGGLE	F	Vch Offset Enable
VCHOFFSET	QUANT	0	Vch Offset (V)
VCHFILTER	IQUANT	1	Vch Filter
IERANGELOWERLIMIT	IQUANT	9	I/E Range Lower Limit
IERANGEMODE	TOGGLE	F	I/E AutoRange
IERANGE	IQUANT	9	I/E Range
ACHSELECT	IQUANT	1	Ach Select
ACHRANGE	IQUANT	2	Ach Range
ACHOFFSETENABLE	TOGGLE	F	Ach Offset Enable
ACHOFFSET	QUANT	0	Ach Offset (V)
ACHFILTER	IQUANT	1	Ach Filter
CABLEID	IQUANT	14	Cable ID
DCCALDATE	LABEL	5-7-2017	DC Calibration Date
ACCALDATE	LABEL	12/3/2015	AC Calibration Date
FRAMEWORKVERSION	QUANT	7.01	Framework Version
INSTRUMENTVERSION	LABEL	4.00	Instrument Version
CURVE	TABLE	87
	Pt	T	Vf	Im	Vu	Pwr	Sig	Ach	Temp	IERange	Over
	#	s	V	A	V	W	V	V	deg C	#	bits
	0	0.013333	8.48331E-001	-9.90437E-005	0.00000E+000	-8.40219E-005	-5.99601E-002	8.48664E-001	3.57990E+000	9	...........
	1	0.026667	8.34201E-001	-9.86155E-005	0.00000E+000	-8.22651E-005	-5.99601E-002	8.34510E-001	3.57990E+000	9	...........
	2	0.04	8.20900E-001	-9.85707E-005	0.00000E+000	-8.09167E-005	-5.99601E-002	8.21208E-001	3.57990E+000	9	...........
	3	0.053333	8.08153E-001	-9.87749E-005	0.00000E+000	-7.98252E-005	-5.99601E-002	8.08500E-001	3.57990E+000	9	...........
	4	0.066667	7.95842E-001	-9.85821E-005	0.00000E+000	-7.84558E-005	-5.99601E-002	7.96162E-001	3.57990E+000	9	...........
	5	0.08	7.83795E-001	-9.88541E-005	0.00000E+000	-7.74813E-005	-5.99601E-002	7.84130E-001	3.57990E+000	9	...........
	6	0.093333	7.71976E-001	-9.80987E-005	0.00000E+000	-7.57298E-005	-5.99601E-002	7.72314E-001	3.57990E+000	9	...........
	7	0.106667	7.60306E-001	-9.97220E-005	0.00000E+000	-7.58192E-005	-5.99601E-002	7.60632E-001	3.57990E+000	9	...........
	8	0.12	7.48773E-001	-9.84738E-005	0.00000E+000	-7.37345E-005	-5.99601E-002	7.49097E-001	3.57990E+000	9	...........
	9	0.133333	7.37329E-001	-9.88801E-005	0.00000E+000	-7.29072E-005	-5.99601E-002	7.37649E-001	3.57990E+000	9	...........
	10	0.146667	7.26010E-001	-9.94313E-005	0.00000E+000	-7.21881E-005	-5.99601E-002	7.26275E-001	3.57990E+000	9	...........
	11	0.16	7.14663E-001	-9.96146E-005	0.00000E+000	-7.11909E-005	-5.99601E-002	7.14963E-001	3.57990E+000	9	...........
	12	0.173333	7.03399E-001	-9.92104E-005	0.00000E+000	-6.97845E-005	-5.99601E-002	7.03694E-001	3.57990E+000	9	...........
	13	0.186667	6.92182E-001	-9.97074E-005	0.00000E+000	-6.90157E-005	-5.99601E-002	6.92467E-001	3.57990E+000	9	...........
	14	0.2	6.80998E-001	-9.91114E-005	0.00000E+000	-6.74947E-005	-5.99601E-002	6.81283E-001	3.57990E+000	9	...........
	15	0.213333	6.69833E-001	-9.91197E-005	0.00000E+000	-6.63937E-005	-5.99601E-002	6.70124E-001	3.57990E+000	9	...........
	16	0.226667	6.58657E-001	-9.96063E-005	0.00000E+000	-6.56064E-005	-5.99601E-002	6.58970E-001	3.57990E+000	9	...........
	17	0.24	6.47545E-001	-9.86009E-005	0.00000E+000	-6.38485E-005	-5.99601E-002	6.47857E-001	3.57990E+000	9	...........
	18	0.253333	6.36418E-001	-9.92021E-005	0.00000E+000	-6.31340E-005	-5.99601E-002	6.36724E-001	3.57990E+000	9	...........
	19	0.266667	6.25351E-001	-9.78528E-005	0.00000E+000	-6.11924E-005	-5.99601E-002	6.25632E-001	3.57990E+000	9	...........
	20	0.28	6.14258E-001	-9.90270E-005	0.00000E+000	-6.08282E-005	-5.99601E-002	6.14585E-001	3.57990E+000	9	...........
	21	0.293333	6.03206E-001	-9.87707E-005	0.00000E+000	-5.95791E-005	-5.99601E-002	6.03501E-001	3.57990E+000	9	...........
	22	0.306667	5.92180E-001	-9.91177E-005	0.00000E+000	-5.86955E-005	-5.99601E-002	5.92491E-001	3.57990E+000	9	...........
	23	0.32	5.81177E-001	-9.88176E-005	0.00000E+000	-5.74306E-005	-5.99601E-002	5.81476E-001	3.57933E+000	9	...........
	24	0.333333	5.70235E-001	-9.90614E-005	0.00000E+000	-5.64882E-005	-5.99601E-002	5.70501E-001	3.57850E+000	9	...........
	25	0.346667	5.59286E-001	-9.90156E-005	0.00000E+000	-5.53780E-005	-5.99601E-002	5.59575E-001	3.57850E+000	9	...........
	26	0.36	5.48402E-001	-9.79633E-005	0.00000E+000	-5.37232E-005	-5.99601E-002	5.48666E-001	3.57850E+000	9	...........
	27	0.373333	5.37548E-001	-9.87488E-005	0.00000E+000	-5.30822E-005	-5.99601E-002	5.37820E-001	3.57850E+000	9	...........
	28	0.386667	5.26736E-001	-9.84519E-005	0.00000E+000	-5.18582E-005	-5.99601E-002	5.26980E-001	3.57850E+000	9	...........
	29	0.4	5.15966E-001	-9.97709E-005	0.00000E+000	-5.14784E-005	-5.99601E-002	5.16206E-001	3.57850E+000	9	...........
	30	0.413333	5.05187E-001	-9.90228E-005	0.00000E+000	-5.00250E-005	-5.99601E-002	5.05454E-001	3.57850E+000	9	...........
	31	0.426667	4.94543E-001	-9.88426E-005	0.00000E+000	-4.88819E-005	-5.99601E-002	4.94795E-001	3.57850E+000	9	...........
	32	0.44	4.84125E-001	-9.86603E-005	0.00000E+000	-4.77639E-005	-5.99601E-002	4.84292E-001	3.57850E+000	9	...........
	33	0.453333	4.73734E-001	-9.84936E-005	0.00000E+000	-4.66598E-005	-5.99601E-002	4.73836E-001	3.57850E+000	9	...........
	34	0.466667	4.63237E-001	-9.87655E-005	0.00000E+000	-4.57518E-005	-5.99601E-002	4.63332E-001	3.57850E+000	9	...........
	35	0.48	4.52795E-001	-9.88218E-005	0.00000E+000	-4.47460E-005	-5.99601E-002	4.52881E-001	3.57850E+000	9	...........
	36	0.493333	4.42413E-001	-9.93156E-005	0.00000E+000	-4.39385E-005	-5.99601E-002	4.42502E-001	3.57850E+000	9	...........
	37	0.506667	4.32099E-001	-9.84519E-005	0.00000E+000	-4.25410E-005	-5.99601E-002	4.32185E-001	3.57850E+000	9	...........
	38	0.52	4.21848E-001	-9.82102E-005	0.00000E+000	-4.14298E-005	-5.99601E-002	4.21934E-001	3.57850E+000	9	...........
	39	0.533333	4.11663E-001	-9.88645E-005	0.00000E+000	-4.06988E-005	-5.99601E-002	4.11751E-001	3.57850E+000	9	...........
	40	0.546667	4.01548E-001	-9.85040E-005	0.00000E+000	-3.95541E-005	-5.99601E-002	4.01621E-001	3.57850E+000	9	...........
	41	0.56	3.91491E-001	-9.96157E-005	0.00000E+000	-3.89986E-005	-5.99601E-002	3.91571E-001	3.57850E+000	9	...........
	42	0.573333	3.81510E-001	-9.90051E-005	0.00000E+000	-3.77714E-005	-5.99601E-002	3.81572E-001	3.57850E+000	9	...........
	43	0.586667	3.71578E-001	-9.81643E-005	0.00000E+000	-3.64757E-005	-5.99601E-002	3.71643E-001	3.57850E+000	9	...........
	44	0.6	3.61709E-001	-9.90051E-005	0.00000E+000	-3.58111E-005	-5.99601E-002	3.61778E-001	3.57850E+000	9	...........
	45	0.613333	3.51904E-001	-9.83696E-005	0.00000E+000	-3.46166E-005	-5.99601E-002	3.51967E-001	3.57850E+000	9	...........
	46	0.626667	3.42155E-001	-9.86436E-005	0.00000E+000	-3.37514E-005	-5.99601E-002	3.42218E-001	3.57850E+000	9	...........
	47	0.64	3.32461E-001	-9.89853E-005	0.00000E+000	-3.29088E-005	-5.99601E-002	3.32521E-001	3.57850E+000	9	...........
	48	0.653333	3.22831E-001	-9.87009E-005	0.00000E+000	-3.18638E-005	-5.99601E-002	3.22888E-001	3.57850E+000	9	...........
	49	0.666667	3.13246E-001	-9.88426E-005	0.00000E+000	-3.09620E-005	-5.99601E-002	3.13308E-001	3.57850E+000	9	...........
	50	0.68	3.03724E-001	-9.87186E-005	0.00000E+000	-2.99832E-005	-5.99601E-002	3.03777E-001	3.57850E+000	9	...........
	51	0.693333	2.94252E-001	-9.90614E-005	0.00000E+000	-2.91490E-005	-5.99601E-002	2.94313E-001	3.57850E+000	9	...........
	52	0.706667	2.84834E-001	-9.78705E-005	0.00000E+000	-2.78769E-005	-5.99601E-002	2.84887E-001	3.57850E+000	9	...........
	53	0.72	2.75462E-001	-9.89385E-005	0.00000E+000	-2.72537E-005	-5.99601E-002	2.75511E-001	3.57850E+000	9	...........
	54	0.733333	2.66132E-001	-9.94615E-005	0.00000E+000	-2.64699E-005	-5.99601E-002	2.66185E-001	3.57850E+000	9	...........
	55	0.746667	2.56858E-001	-9.99585E-005	0.00000E+000	-2.56752E-005	-5.99601E-002	2.56908E-001	3.57850E+000	9	...........
	56	0.76	2.47634E-001	-9.85821E-005	0.00000E+000	-2.44123E-005	-5.99601E-002	2.47678E-001	3.57850E+000	9	...........
	57	0.773333	2.38458E-001	-9.78184E-005	0.00000E+000	-2.33256E-005	-5.99601E-002	2.38498E-001	3.57850E+000	9	...........
	58	0.786667	2.29323E-001	-9.80820E-005	0.00000E+000	-2.24925E-005	-5.99601E-002	2.29360E-001	3.57850E+000	9	...........
	59	0.8	2.20238E-001	-9.89739E-005	0.00000E+000	-2.17978E-005	-5.99601E-002	2.20276E-001	3.57850E+000	9	...........
	60	0.813333	2.11214E-001	-9.94156E-005	0.00000E+000	-2.09979E-005	-5.99601E-002	2.11245E-001	3.57850E+000	9	...........
	61	0.826667	2.02236E-001	-9.80560E-005	0.00000E+000	-1.98304E-005	-5.99601E-002	2.02270E-001	3.57850E+000	9	...........
	62	0.84	1.93306E-001	-9.82873E-005	0.00000E+000	-1.89995E-005	-5.99601E-002	1.93342E-001	3.57850E+000	9	...........
	63	0.853333	1.84441E-001	-9.88395E-005	0.00000E+000	-1.82300E-005	-5.99601E-002	1.84465E-001	3.57850E+000	9	...........
	64	0.866667	1.75634E-001	-9.91333E-005	0.00000E+000	-1.74112E-005	-5.99601E-002	1.75657E-001	3.57850E+000	9	...........
	65	0.88	1.66889E-001	-9.89020E-005	0.00000E+000	-1.65057E-005	-5.99601E-002	1.66912E-001	3.57850E+000	9	...........
	66	0.893333	1.58207E-001	-9.82414E-005	0.00000E+000	-1.55424E-005	-5.99601E-002	1.58225E-001	3.57850E+000	9	...........
	67	0.906667	1.49591E-001	-9.96792E-005	0.00000E+000	-1.49112E-005	-5.99601E-002	1.49606E-001	3.57850E+000	9	...........
	68	0.92	1.41041E-001	-9.91864E-005	0.00000E+000	-1.39894E-005	-5.99601E-002	1.41056E-001	3.57850E+000	9	...........
	69	0.933333	1.32568E-001	-9.84602E-005	0.00000E+000	-1.30527E-005	-5.99601E-002	1.32576E-001	3.57850E+000	9	...........
	70	0.946667	1.24166E-001	-9.92958E-005	0.00000E+000	-1.23291E-005	-5.99601E-002	1.24172E-001	3.57850E+000	9	...........
	71	0.96	1.15835E-001	-9.96396E-005	0.00000E+000	-1.15417E-005	-5.99601E-002	1.15839E-001	3.57850E+000	9	...........
	72	0.97333	1.07581E-001	-9.87561E-005	0.00000E+000	-1.06242E-005	-5.99601E-002	1.07589E-001	3.57850E+000	9	...........
	73	0.98667	9.93957E-002	-9.86280E-005	0.00000E+000	-9.80319E-006	-5.99601E-002	9.94033E-002	3.57850E+000	9	...........
	74	1	9.12896E-002	-9.88155E-005	0.00000E+000	-9.02083E-006	-5.99601E-002	9.12925E-002	3.57850E+000	9	...........
	75	1.01333	8.32582E-002	-9.84008E-005	0.00000E+000	-8.19268E-006	-5.99601E-002	8.32567E-002	3.57850E+000	9	...........
	76	1.02667	7.52981E-002	-9.92187E-005	0.00000E+000	-7.47098E-006	-5.99601E-002	7.52969E-002	3.57850E+000	9	...........
	77	1.04	6.74085E-002	-9.90687E-005	0.00000E+000	-6.67807E-006	-5.99601E-002	6.74058E-002	3.57850E+000	9	...........
	78	1.05333	5.95881E-002	-9.96271E-005	0.00000E+000	-5.93659E-006	-5.99601E-002	5.95838E-002	3.57850E+000	9	...........
	79	1.06667	5.18378E-002	-9.84863E-005	0.00000E+000	-5.10531E-006	-5.99601E-002	5.18354E-002	3.57850E+000	9	...........
	80	1.08	4.41955E-002	-9.83956E-005	0.00000E+000	-4.34864E-006	-5.99601E-002	4.41861E-002	3.57850E+000	9	...........
	81	1.09333	3.65783E-002	-9.90541E-005	0.00000E+000	-3.62323E-006	-5.99601E-002	3.65666E-002	3.57850E+000	9	...........
	82	1.10667	2.90335E-002	-9.89718E-005	0.00000E+000	-2.87350E-006	-5.99601E-002	2.90185E-002	3.57850E+000	9	...........
	83	1.12	2.15497E-002	-9.91750E-005	0.00000E+000	-2.13719E-006	-5.99601E-002	2.15335E-002	3.57850E+000	9	...........
	84	1.13333	1.41373E-002	-9.91812E-005	0.00000E+000	-1.40215E-006	-5.99601E-002	1.41098E-002	3.57850E+000	9	...........
	85	1.14667	6.79140E-003	-9.92239E-005	0.00000E+000	-6.73869E-007	-5.99601E-002	6.75820E-003	3.57850E+000	9	...........
	86	1.15333	1.32160E-003	-9.87270E-005	0.00000E+000	-1.30477E-007	-5.99601E-002	1.27953E-003	3.57850E+000	9	...........
STARTTIMEOFFSET	QUANT	1575.762	Start Time Offset (s)
