EXPLAIN
TAG	PWR800_DISCHARGE
TITLE	LABEL	PWR Cyclic Charge Discharge (Cell) - Discharge Step	Test &Identifier
DATE	LABEL	13-7-2017	Date
TIME	LABEL	15:21:50	Time
NOTES	NOTES	2	&Notes...
	supercap test cell
	6M KOH
PSTAT	PSTAT	IFC5000-01520	Potentiostat
CAPACITY	QUANT	1.00000E-003	Capacity (A-hr)
CELLTYPE	SELECTOR	1	&Cell Type
WORKINGCONNECTION	SELECTOR	0	&Working Lead
MAXDISCHARGETIME	VARIABLEANDUNITS	1.00000E+002	s	1.00000E+002	second(s)	Max &Discharge Time
DISCHARGEMODE	MULTIPARAM	0	1.00000E-004	&Discharge Mode	Constant Current	Amp(s)
SAMPLETIME	QUANT	1.00000E-002	Sa&mple Period (s)
DISCHARGESTOPAT1	MULTIPARAM	3	0.00000E+000	Discharge Stop At &1	Voltage < Limit	V
DISCHARGESTOPAT2	MULTIPARAM	0	0.00000E+000	Discharge Stop At &2	None	N/A
AESBHCSELECTOR	TOGGLE	F	Save Both Half Cells
IRCOMP	TOGGLE	F	IR &Measure
EOC	QUANT	0	Open Circuit (V)
SEQUENCER	TOGGLE	TRUE	Run as Sequence
PSTATMODEL	IQUANT	53	Pstat Model
PSTATSECTION	LABEL	IFC5000-01520	Pstat Section
PSTATSERIALNO	LABEL	01520	Pstat Serial Number
CTRLMODE	IQUANT	0	Control Mode
ELECTROMETER	IQUANT	1	RE=0 or CS=1
IESTAB	IQUANT	0	I/E Stability
CASPEED	IQUANT	4	Control Amp Speed
CONVENTION	IQUANT	1	Current Convention
ICHRANGE	IQUANT	2	Ich Range
ICHRANGEMODE	TOGGLE	T	Ich Auto Range
ICHOFFSETENABLE	TOGGLE	F	Ich Offset Enable
ICHOFFSET	QUANT	0	Ich Offset (V)
ICHFILTER	IQUANT	1	Ich Filter
VCHRANGE	IQUANT	2	Vch Range
VCHRANGEMODE	TOGGLE	T	Vch Auto Range
VCHOFFSETENABLE	TOGGLE	F	Vch Offset Enable
VCHOFFSET	QUANT	0	Vch Offset (V)
VCHFILTER	IQUANT	1	Vch Filter
IERANGELOWERLIMIT	IQUANT	9	I/E Range Lower Limit
IERANGEMODE	TOGGLE	F	I/E AutoRange
IERANGE	IQUANT	9	I/E Range
ACHSELECT	IQUANT	1	Ach Select
ACHRANGE	IQUANT	2	Ach Range
ACHOFFSETENABLE	TOGGLE	F	Ach Offset Enable
ACHOFFSET	QUANT	0	Ach Offset (V)
ACHFILTER	IQUANT	1	Ach Filter
CABLEID	IQUANT	14	Cable ID
DCCALDATE	LABEL	5-7-2017	DC Calibration Date
ACCALDATE	LABEL	12/3/2015	AC Calibration Date
FRAMEWORKVERSION	QUANT	7.01	Framework Version
INSTRUMENTVERSION	LABEL	4.00	Instrument Version
CURVE	TABLE	89
	Pt	T	Vf	Im	Vu	Pwr	Sig	Ach	Temp	IERange	Over
	#	s	V	A	V	W	V	V	deg C	#	bits
	0	0.013333	8.49193E-001	-9.92927E-005	0.00000E+000	-8.43186E-005	-5.99601E-002	8.49513E-001	3.58000E+000	9	...........
	1	0.026667	8.35515E-001	-9.95417E-005	0.00000E+000	-8.31686E-005	-5.99601E-002	8.35831E-001	3.58000E+000	9	...........
	2	0.04	8.22687E-001	-9.89989E-005	0.00000E+000	-8.14451E-005	-5.99601E-002	8.22991E-001	3.58000E+000	9	...........
	3	0.053333	8.10386E-001	-9.99855E-005	0.00000E+000	-8.10269E-005	-5.99601E-002	8.10678E-001	3.58000E+000	9	...........
	4	0.066667	7.98513E-001	-9.87249E-005	0.00000E+000	-7.88331E-005	-5.99601E-002	7.98777E-001	3.58000E+000	9	...........
	5	0.08	7.86866E-001	-9.92698E-005	0.00000E+000	-7.81120E-005	-5.99601E-002	7.87159E-001	3.58000E+000	9	...........
	6	0.093333	7.75462E-001	-9.85467E-005	0.00000E+000	-7.64192E-005	-5.99601E-002	7.75745E-001	3.58000E+000	9	...........
	7	0.106667	7.64218E-001	-9.90520E-005	0.00000E+000	-7.56973E-005	-5.99601E-002	7.64491E-001	3.58000E+000	9	...........
	8	0.12	7.53114E-001	-9.87342E-005	0.00000E+000	-7.43581E-005	-5.99601E-002	7.53369E-001	3.58000E+000	9	...........
	9	0.133333	7.42082E-001	-9.90499E-005	0.00000E+000	-7.35032E-005	-5.99601E-002	7.42353E-001	3.58000E+000	9	...........
	10	0.146667	7.31137E-001	-9.90354E-005	0.00000E+000	-7.24084E-005	-5.99601E-002	7.31403E-001	3.58000E+000	9	...........
	11	0.16	7.20238E-001	-9.82050E-005	0.00000E+000	-7.07309E-005	-5.99601E-002	7.20514E-001	3.58000E+000	9	...........
	12	0.173333	7.09375E-001	-9.87280E-005	0.00000E+000	-7.00352E-005	-5.99601E-002	7.09644E-001	3.58000E+000	9	...........
	13	0.186667	6.98586E-001	-9.86134E-005	0.00000E+000	-6.88899E-005	-5.99601E-002	6.98842E-001	3.58000E+000	9	...........
	14	0.2	6.87773E-001	-9.92864E-005	0.00000E+000	-6.82865E-005	-5.99601E-002	6.88060E-001	3.58000E+000	9	...........
	15	0.213333	6.77030E-001	-9.91833E-005	0.00000E+000	-6.71501E-005	-5.99601E-002	6.77274E-001	3.58000E+000	9	...........
	16	0.226667	6.66278E-001	-9.80529E-005	0.00000E+000	-6.53304E-005	-5.99601E-002	6.66532E-001	3.58000E+000	9	...........
	17	0.24	6.55557E-001	-9.92052E-005	0.00000E+000	-6.50347E-005	-5.99601E-002	6.55769E-001	3.58000E+000	9	...........
	18	0.253333	6.44831E-001	-9.88020E-005	0.00000E+000	-6.37106E-005	-5.99601E-002	6.45063E-001	3.58000E+000	9	...........
	19	0.266667	6.34128E-001	-9.94261E-005	0.00000E+000	-6.30489E-005	-5.99601E-002	6.34339E-001	3.58000E+000	9	...........
	20	0.28	6.23471E-001	-9.81716E-005	0.00000E+000	-6.12071E-005	-5.99601E-002	6.23668E-001	3.58000E+000	9	...........
	21	0.293333	6.12768E-001	-9.94094E-005	0.00000E+000	-6.09149E-005	-5.99601E-002	6.12999E-001	3.58000E+000	9	...........
	22	0.306667	6.02071E-001	-9.89655E-005	0.00000E+000	-5.95843E-005	-5.99601E-002	6.02328E-001	3.58000E+000	9	...........
	23	0.32	5.91449E-001	-9.82164E-005	0.00000E+000	-5.80900E-005	-5.99601E-002	5.91697E-001	3.57925E+000	9	...........
	24	0.333333	5.80831E-001	-9.83310E-005	0.00000E+000	-5.71137E-005	-5.99601E-002	5.81045E-001	3.57850E+000	9	...........
	25	0.346667	5.70253E-001	-9.83217E-005	0.00000E+000	-5.60683E-005	-5.99601E-002	5.70463E-001	3.57850E+000	9	...........
	26	0.36	5.59627E-001	-9.80018E-005	0.00000E+000	-5.48445E-005	-5.99601E-002	5.59889E-001	3.57850E+000	9	...........
	27	0.373333	5.49076E-001	-9.88832E-005	0.00000E+000	-5.42944E-005	-5.99601E-002	5.49332E-001	3.57850E+000	9	...........
	28	0.386667	5.38565E-001	-9.81154E-005	0.00000E+000	-5.28416E-005	-5.99601E-002	5.38809E-001	3.57850E+000	9	...........
	29	0.4	5.28045E-001	-9.91052E-005	0.00000E+000	-5.23320E-005	-5.99601E-002	5.28289E-001	3.57850E+000	9	...........
	30	0.413333	5.17624E-001	-9.90426E-005	0.00000E+000	-5.12668E-005	-5.99601E-002	5.17834E-001	3.57850E+000	9	...........
	31	0.426667	5.07155E-001	-9.79455E-005	0.00000E+000	-4.96736E-005	-5.99601E-002	5.07414E-001	3.57850E+000	9	...........
	32	0.44	4.96788E-001	-9.92271E-005	0.00000E+000	-4.92948E-005	-5.99601E-002	4.97036E-001	3.57850E+000	9	...........
	33	0.453333	4.86542E-001	-9.84269E-005	0.00000E+000	-4.78888E-005	-5.99601E-002	4.86751E-001	3.57850E+000	9	...........
	34	0.466667	4.76529E-001	-9.86613E-005	0.00000E+000	-4.70149E-005	-5.99601E-002	4.76627E-001	3.57850E+000	9	...........
	35	0.48	4.66286E-001	-9.85050E-005	0.00000E+000	-4.59315E-005	-5.99601E-002	4.66382E-001	3.57850E+000	9	...........
	36	0.493333	4.56089E-001	-9.93177E-005	0.00000E+000	-4.52977E-005	-5.99601E-002	4.56183E-001	3.57850E+000	9	...........
	37	0.506667	4.45950E-001	-9.89072E-005	0.00000E+000	-4.41076E-005	-5.99601E-002	4.46049E-001	3.57850E+000	9	...........
	38	0.52	4.35864E-001	-9.93229E-005	0.00000E+000	-4.32913E-005	-5.99601E-002	4.35962E-001	3.57850E+000	9	...........
	39	0.533333	4.25830E-001	-9.92062E-005	0.00000E+000	-4.22450E-005	-5.99601E-002	4.25930E-001	3.57850E+000	9	...........
	40	0.546667	4.15864E-001	-9.84602E-005	0.00000E+000	-4.09461E-005	-5.99601E-002	4.15953E-001	3.57850E+000	9	...........
	41	0.56	4.05947E-001	-9.92479E-005	0.00000E+000	-4.02894E-005	-5.99601E-002	4.06031E-001	3.57850E+000	9	...........
	42	0.573333	3.96084E-001	-9.84998E-005	0.00000E+000	-3.90142E-005	-5.99601E-002	3.96163E-001	3.57850E+000	9	...........
	43	0.586667	3.86277E-001	-9.95396E-005	0.00000E+000	-3.84499E-005	-5.99601E-002	3.86354E-001	3.57850E+000	9	...........
	44	0.6	3.76529E-001	-9.92166E-005	0.00000E+000	-3.73580E-005	-5.99601E-002	3.76596E-001	3.57850E+000	9	...........
	45	0.613333	3.66828E-001	-9.94729E-005	0.00000E+000	-3.64895E-005	-5.99601E-002	3.66904E-001	3.57850E+000	9	...........
	46	0.626667	3.57180E-001	-9.86019E-005	0.00000E+000	-3.52186E-005	-5.99601E-002	3.57246E-001	3.57850E+000	9	...........
	47	0.64	3.47587E-001	-9.98168E-005	0.00000E+000	-3.46950E-005	-5.99601E-002	3.47658E-001	3.57850E+000	9	...........
	48	0.653333	3.38046E-001	-9.89457E-005	0.00000E+000	-3.34482E-005	-5.99601E-002	3.38112E-001	3.57850E+000	9	...........
	49	0.666667	3.28558E-001	-9.85717E-005	0.00000E+000	-3.23865E-005	-5.99601E-002	3.28618E-001	3.57850E+000	9	...........
	50	0.68	3.19116E-001	-9.97824E-005	0.00000E+000	-3.18422E-005	-5.99601E-002	3.19180E-001	3.57850E+000	9	...........
	51	0.693333	3.09723E-001	-9.87197E-005	0.00000E+000	-3.05757E-005	-5.99601E-002	3.09783E-001	3.57850E+000	9	...........
	52	0.706667	3.00375E-001	-9.86280E-005	0.00000E+000	-2.96254E-005	-5.99601E-002	3.00432E-001	3.57850E+000	9	...........
	53	0.72	2.91077E-001	-9.84498E-005	0.00000E+000	-2.86564E-005	-5.99601E-002	2.91132E-001	3.57850E+000	9	...........
	54	0.733333	2.81822E-001	-9.87197E-005	0.00000E+000	-2.78214E-005	-5.99601E-002	2.81876E-001	3.57850E+000	9	...........
	55	0.746667	2.72608E-001	-9.95771E-005	0.00000E+000	-2.71455E-005	-5.99601E-002	2.72659E-001	3.57850E+000	9	...........
	56	0.76	2.63439E-001	-9.93604E-005	0.00000E+000	-2.61754E-005	-5.99601E-002	2.63492E-001	3.57850E+000	9	...........
	57	0.773333	2.54312E-001	-9.89134E-005	0.00000E+000	-2.51548E-005	-5.99601E-002	2.54361E-001	3.57850E+000	9	...........
	58	0.786667	2.45230E-001	-9.85821E-005	0.00000E+000	-2.41753E-005	-5.99601E-002	2.45278E-001	3.57850E+000	9	...........
	59	0.8	2.36190E-001	-9.94229E-005	0.00000E+000	-2.34827E-005	-5.99601E-002	2.36229E-001	3.57850E+000	9	...........
	60	0.813333	2.27195E-001	-9.89009E-005	0.00000E+000	-2.24698E-005	-5.99601E-002	2.27230E-001	3.57850E+000	9	...........
	61	0.826667	2.18233E-001	-9.88561E-005	0.00000E+000	-2.15737E-005	-5.99601E-002	2.18270E-001	3.57850E+000	9	...........
	62	0.84	2.09318E-001	-9.95365E-005	0.00000E+000	-2.08348E-005	-5.99601E-002	2.09355E-001	3.57850E+000	9	...........
	63	0.853333	2.00455E-001	-9.94656E-005	0.00000E+000	-1.99384E-005	-5.99601E-002	2.00492E-001	3.57850E+000	9	...........
	64	0.866667	1.91644E-001	-9.87874E-005	0.00000E+000	-1.89320E-005	-5.99601E-002	1.91680E-001	3.57850E+000	9	...........
	65	0.88	1.82878E-001	-9.86415E-005	0.00000E+000	-1.80394E-005	-5.99601E-002	1.82903E-001	3.57850E+000	9	...........
	66	0.893333	1.74159E-001	-9.85728E-005	0.00000E+000	-1.71673E-005	-5.99601E-002	1.74180E-001	3.57850E+000	9	...........
	67	0.906667	1.65497E-001	-9.92396E-005	0.00000E+000	-1.64238E-005	-5.99601E-002	1.65518E-001	3.57850E+000	9	...........
	68	0.92	1.56892E-001	-9.90801E-005	0.00000E+000	-1.55449E-005	-5.99601E-002	1.56909E-001	3.57850E+000	9	...........
	69	0.933333	1.48352E-001	-9.87447E-005	0.00000E+000	-1.46490E-005	-5.99601E-002	1.48366E-001	3.57850E+000	9	...........
	70	0.946667	1.39866E-001	-9.88520E-005	0.00000E+000	-1.38261E-005	-5.99601E-002	1.39880E-001	3.57850E+000	9	...........
	71	0.96	1.31444E-001	-9.85738E-005	0.00000E+000	-1.29569E-005	-5.99601E-002	1.31459E-001	3.57850E+000	9	...........
	72	0.97333	1.23094E-001	-9.82883E-005	0.00000E+000	-1.20987E-005	-5.99601E-002	1.23107E-001	3.57850E+000	9	...........
	73	0.98667	1.14806E-001	-9.90989E-005	0.00000E+000	-1.13772E-005	-5.99601E-002	1.14822E-001	3.57850E+000	9	...........
	74	1	1.06591E-001	-9.92760E-005	0.00000E+000	-1.05819E-005	-5.99601E-002	1.06602E-001	3.57850E+000	9	...........
	75	1.01333	9.84419E-002	-9.84998E-005	0.00000E+000	-9.69651E-006	-5.99601E-002	9.84517E-002	3.57850E+000	9	...........
	76	1.02667	9.03660E-002	-9.96605E-005	0.00000E+000	-9.00592E-006	-5.99601E-002	9.03743E-002	3.57850E+000	9	...........
	77	1.04	8.23603E-002	-9.85352E-005	0.00000E+000	-8.11539E-006	-5.99601E-002	8.23630E-002	3.57850E+000	9	...........
	78	1.05333	7.44239E-002	-9.93885E-005	0.00000E+000	-7.39688E-006	-5.99601E-002	7.44174E-002	3.57850E+000	9	...........
	79	1.06667	6.65533E-002	-9.84769E-005	0.00000E+000	-6.55396E-006	-5.99601E-002	6.65483E-002	3.57850E+000	9	...........
	80	1.08	5.87514E-002	-9.87624E-005	0.00000E+000	-5.80243E-006	-5.99601E-002	5.87421E-002	3.57850E+000	9	...........
	81	1.09333	5.10207E-002	-9.92177E-005	0.00000E+000	-5.06216E-006	-5.99601E-002	5.10086E-002	3.57850E+000	9	...........
	82	1.10667	4.33928E-002	-9.92802E-005	0.00000E+000	-4.30805E-006	-5.99601E-002	4.33859E-002	3.57850E+000	9	...........
	83	1.12	3.57913E-002	-9.94625E-005	0.00000E+000	-3.55989E-006	-5.99601E-002	3.57782E-002	3.57850E+000	9	...........
	84	1.13333	2.82593E-002	-9.79310E-005	0.00000E+000	-2.76746E-006	-5.99601E-002	2.82406E-002	3.57850E+000	9	...........
	85	1.14667	2.07879E-002	-9.89614E-005	0.00000E+000	-2.05720E-006	-5.99601E-002	2.07669E-002	3.57850E+000	9	...........
	86	1.16	1.33770E-002	-9.89322E-005	0.00000E+000	-1.32342E-006	-5.99601E-002	1.33525E-002	3.57850E+000	9	...........
	87	1.17333	6.03465E-003	-9.85915E-005	0.00000E+000	-5.94966E-007	-5.99601E-002	6.00449E-003	3.57850E+000	9	...........
	88	1.18	5.63862E-004	-9.86915E-005	0.00000E+000	-5.56484E-008	-5.99601E-002	5.23580E-004	3.57850E+000	9	...........
STARTTIMEOFFSET	QUANT	897.0857	Start Time Offset (s)
