EXPLAIN
TAG	PWR800_DISCHARGE
TITLE	LABEL	PWR Cyclic Charge Discharge (Cell) - Discharge Step	Test &Identifier
DATE	LABEL	13-7-2017	Date
TIME	LABEL	15:44:13	Time
NOTES	NOTES	2	&Notes...
	supercap test cell
	6M KOH
PSTAT	PSTAT	IFC5000-01520	Potentiostat
CAPACITY	QUANT	1.00000E-003	Capacity (A-hr)
CELLTYPE	SELECTOR	1	&Cell Type
WORKINGCONNECTION	SELECTOR	0	&Working Lead
MAXDISCHARGETIME	VARIABLEANDUNITS	1.00000E+002	s	1.00000E+002	second(s)	Max &Discharge Time
DISCHARGEMODE	MULTIPARAM	0	1.00000E-004	&Discharge Mode	Constant Current	Amp(s)
SAMPLETIME	QUANT	1.00000E-002	Sa&mple Period (s)
DISCHARGESTOPAT1	MULTIPARAM	3	0.00000E+000	Discharge Stop At &1	Voltage < Limit	V
DISCHARGESTOPAT2	MULTIPARAM	0	0.00000E+000	Discharge Stop At &2	None	N/A
AESBHCSELECTOR	TOGGLE	F	Save Both Half Cells
IRCOMP	TOGGLE	F	IR &Measure
EOC	QUANT	0	Open Circuit (V)
SEQUENCER	TOGGLE	TRUE	Run as Sequence
PSTATMODEL	IQUANT	53	Pstat Model
PSTATSECTION	LABEL	IFC5000-01520	Pstat Section
PSTATSERIALNO	LABEL	01520	Pstat Serial Number
CTRLMODE	IQUANT	0	Control Mode
ELECTROMETER	IQUANT	1	RE=0 or CS=1
IESTAB	IQUANT	0	I/E Stability
CASPEED	IQUANT	4	Control Amp Speed
CONVENTION	IQUANT	1	Current Convention
ICHRANGE	IQUANT	2	Ich Range
ICHRANGEMODE	TOGGLE	T	Ich Auto Range
ICHOFFSETENABLE	TOGGLE	F	Ich Offset Enable
ICHOFFSET	QUANT	0	Ich Offset (V)
ICHFILTER	IQUANT	1	Ich Filter
VCHRANGE	IQUANT	2	Vch Range
VCHRANGEMODE	TOGGLE	T	Vch Auto Range
VCHOFFSETENABLE	TOGGLE	F	Vch Offset Enable
VCHOFFSET	QUANT	0	Vch Offset (V)
VCHFILTER	IQUANT	1	Vch Filter
IERANGELOWERLIMIT	IQUANT	9	I/E Range Lower Limit
IERANGEMODE	TOGGLE	F	I/E AutoRange
IERANGE	IQUANT	9	I/E Range
ACHSELECT	IQUANT	1	Ach Select
ACHRANGE	IQUANT	2	Ach Range
ACHOFFSETENABLE	TOGGLE	F	Ach Offset Enable
ACHOFFSET	QUANT	0	Ach Offset (V)
ACHFILTER	IQUANT	1	Ach Filter
CABLEID	IQUANT	14	Cable ID
DCCALDATE	LABEL	5-7-2017	DC Calibration Date
ACCALDATE	LABEL	12/3/2015	AC Calibration Date
FRAMEWORKVERSION	QUANT	7.01	Framework Version
INSTRUMENTVERSION	LABEL	4.00	Instrument Version
CURVE	TABLE	86
	Pt	T	Vf	Im	Vu	Pwr	Sig	Ach	Temp	IERange	Over
	#	s	V	A	V	W	V	V	deg C	#	bits
	0	0.013333	8.45458E-001	-9.91739E-005	0.00000E+000	-8.38473E-005	-5.99601E-002	8.45784E-001	3.57913E+000	9	...........
	1	0.026667	8.31157E-001	-9.86561E-005	0.00000E+000	-8.19988E-005	-5.99601E-002	8.31473E-001	3.57900E+000	9	...........
	2	0.04	8.17707E-001	-9.80143E-005	0.00000E+000	-8.01470E-005	-5.99601E-002	8.18018E-001	3.57900E+000	9	...........
	3	0.053333	8.04850E-001	-9.93052E-005	0.00000E+000	-7.99258E-005	-5.99601E-002	8.05135E-001	3.57900E+000	9	...........
	4	0.066667	7.92351E-001	-9.90385E-005	0.00000E+000	-7.84732E-005	-5.99601E-002	7.92649E-001	3.57900E+000	9	...........
	5	0.08	7.80155E-001	-9.79560E-005	0.00000E+000	-7.64208E-005	-5.99601E-002	7.80461E-001	3.57900E+000	9	...........
	6	0.093333	7.68209E-001	-9.80216E-005	0.00000E+000	-7.53011E-005	-5.99601E-002	7.68477E-001	3.57900E+000	9	...........
	7	0.106667	7.56397E-001	-9.78184E-005	0.00000E+000	-7.39896E-005	-5.99601E-002	7.56667E-001	3.57900E+000	9	...........
	8	0.12	7.44715E-001	-9.96751E-005	0.00000E+000	-7.42296E-005	-5.99601E-002	7.45003E-001	3.57900E+000	9	...........
	9	0.133333	7.33125E-001	-9.91906E-005	0.00000E+000	-7.27191E-005	-5.99601E-002	7.33403E-001	3.57900E+000	9	...........
	10	0.146667	7.21629E-001	-9.91427E-005	0.00000E+000	-7.15443E-005	-5.99601E-002	7.21898E-001	3.57900E+000	9	...........
	11	0.16	7.10134E-001	-9.91291E-005	0.00000E+000	-7.03950E-005	-5.99601E-002	7.10425E-001	3.57900E+000	9	...........
	12	0.173333	6.98741E-001	-9.87499E-005	0.00000E+000	-6.90006E-005	-5.99601E-002	6.99002E-001	3.57900E+000	9	...........
	13	0.186667	6.87359E-001	-9.85082E-005	0.00000E+000	-6.77105E-005	-5.99601E-002	6.87614E-001	3.57900E+000	9	...........
	14	0.2	6.76040E-001	-9.89801E-005	0.00000E+000	-6.69145E-005	-5.99601E-002	6.76285E-001	3.57900E+000	9	...........
	15	0.213333	6.64711E-001	-9.90270E-005	0.00000E+000	-6.58243E-005	-5.99601E-002	6.64968E-001	3.57900E+000	9	...........
	16	0.226667	6.53399E-001	-9.83956E-005	0.00000E+000	-6.42916E-005	-5.99601E-002	6.53654E-001	3.57900E+000	9	...........
	17	0.24	6.42137E-001	-9.76465E-005	0.00000E+000	-6.27025E-005	-5.99601E-002	6.42374E-001	3.57900E+000	9	...........
	18	0.253333	6.30863E-001	-9.88113E-005	0.00000E+000	-6.23365E-005	-5.99601E-002	6.31123E-001	3.57900E+000	9	...........
	19	0.266667	6.19674E-001	-9.92979E-005	0.00000E+000	-6.15324E-005	-5.99601E-002	6.19909E-001	3.57900E+000	9	...........
	20	0.28	6.08405E-001	-9.86988E-005	0.00000E+000	-6.00489E-005	-5.99601E-002	6.08721E-001	3.57900E+000	9	...........
	21	0.293333	5.97280E-001	-9.82435E-005	0.00000E+000	-5.86789E-005	-5.99601E-002	5.97561E-001	3.57900E+000	9	...........
	22	0.306667	5.86131E-001	-9.90760E-005	0.00000E+000	-5.80715E-005	-5.99601E-002	5.86425E-001	3.57900E+000	9	...........
	23	0.32	5.75043E-001	-9.85926E-005	0.00000E+000	-5.66949E-005	-5.99601E-002	5.75325E-001	3.57900E+000	9	...........
	24	0.333333	5.63975E-001	-9.90562E-005	0.00000E+000	-5.58652E-005	-5.99601E-002	5.64235E-001	3.57900E+000	9	...........
	25	0.346667	5.52921E-001	-9.88937E-005	0.00000E+000	-5.46804E-005	-5.99601E-002	5.53195E-001	3.57900E+000	9	...........
	26	0.36	5.41937E-001	-9.94552E-005	0.00000E+000	-5.38984E-005	-5.99601E-002	5.42179E-001	3.57900E+000	9	...........
	27	0.373333	5.30969E-001	-9.85332E-005	0.00000E+000	-5.23180E-005	-5.99601E-002	5.31180E-001	3.57900E+000	9	...........
	28	0.386667	5.20071E-001	-9.94657E-005	0.00000E+000	-5.17292E-005	-5.99601E-002	5.20300E-001	3.57900E+000	9	...........
	29	0.4	5.09198E-001	-9.85457E-005	0.00000E+000	-5.01793E-005	-5.99601E-002	5.09414E-001	3.57900E+000	9	...........
	30	0.413333	4.98381E-001	-9.93469E-005	0.00000E+000	-4.95126E-005	-5.99601E-002	4.98600E-001	3.57900E+000	9	...........
	31	0.426667	4.87715E-001	-9.93208E-005	0.00000E+000	-4.84403E-005	-5.99601E-002	4.87891E-001	3.57900E+000	9	...........
	32	0.44	4.77335E-001	-9.96803E-005	0.00000E+000	-4.75809E-005	-5.99601E-002	4.77429E-001	3.57900E+000	9	...........
	33	0.453333	4.66710E-001	-9.93229E-005	0.00000E+000	-4.63550E-005	-5.99601E-002	4.66808E-001	3.57900E+000	9	...........
	34	0.466667	4.56159E-001	-9.85540E-005	0.00000E+000	-4.49563E-005	-5.99601E-002	4.56246E-001	3.57900E+000	9	...........
	35	0.48	4.45669E-001	-9.93938E-005	0.00000E+000	-4.42967E-005	-5.99601E-002	4.45751E-001	3.57900E+000	9	...........
	36	0.493333	4.35247E-001	-9.90260E-005	0.00000E+000	-4.31008E-005	-5.99601E-002	4.35326E-001	3.57900E+000	9	...........
	37	0.506667	4.24891E-001	-9.89291E-005	0.00000E+000	-4.20341E-005	-5.99601E-002	4.24973E-001	3.57900E+000	9	...........
	38	0.52	4.14602E-001	-9.95417E-005	0.00000E+000	-4.12702E-005	-5.99601E-002	4.14684E-001	3.57900E+000	9	...........
	39	0.533333	4.04390E-001	-9.90093E-005	0.00000E+000	-4.00384E-005	-5.99601E-002	4.04466E-001	3.57900E+000	9	...........
	40	0.546667	3.94241E-001	-9.86467E-005	0.00000E+000	-3.88906E-005	-5.99601E-002	3.94312E-001	3.57900E+000	9	...........
	41	0.56	3.84153E-001	-9.90770E-005	0.00000E+000	-3.80607E-005	-5.99601E-002	3.84227E-001	3.57900E+000	9	...........
	42	0.573333	3.74144E-001	-9.97449E-005	0.00000E+000	-3.73189E-005	-5.99601E-002	3.74211E-001	3.57900E+000	9	...........
	43	0.586667	3.64198E-001	-9.81695E-005	0.00000E+000	-3.57532E-005	-5.99601E-002	3.64261E-001	3.57900E+000	9	...........
	44	0.6	3.54311E-001	-9.92521E-005	0.00000E+000	-3.51661E-005	-5.99601E-002	3.54376E-001	3.57900E+000	9	...........
	45	0.613333	3.44481E-001	-9.97334E-005	0.00000E+000	-3.43563E-005	-5.99601E-002	3.44546E-001	3.57900E+000	9	...........
	46	0.626667	3.34719E-001	-9.87395E-005	0.00000E+000	-3.30499E-005	-5.99601E-002	3.34778E-001	3.57900E+000	9	...........
	47	0.64	3.25013E-001	-9.91989E-005	0.00000E+000	-3.22410E-005	-5.99601E-002	3.25073E-001	3.57900E+000	9	...........
	48	0.653333	3.15364E-001	-9.90322E-005	0.00000E+000	-3.12312E-005	-5.99601E-002	3.15421E-001	3.57900E+000	9	...........
	49	0.666667	3.05771E-001	-9.82477E-005	0.00000E+000	-3.00413E-005	-5.99601E-002	3.05830E-001	3.57900E+000	9	...........
	50	0.68	2.96237E-001	-9.87645E-005	0.00000E+000	-2.92577E-005	-5.99601E-002	2.96284E-001	3.57900E+000	9	...........
	51	0.693333	2.86745E-001	-9.90937E-005	0.00000E+000	-2.84147E-005	-5.99601E-002	2.86796E-001	3.57900E+000	9	...........
	52	0.706667	2.77312E-001	-9.79643E-005	0.00000E+000	-2.71667E-005	-5.99601E-002	2.77363E-001	3.57900E+000	9	...........
	53	0.72	2.67930E-001	-9.88395E-005	0.00000E+000	-2.64821E-005	-5.99601E-002	2.67971E-001	3.57900E+000	9	...........
	54	0.733333	2.58599E-001	-9.81216E-005	0.00000E+000	-2.53742E-005	-5.99601E-002	2.58645E-001	3.57900E+000	9	...........
	55	0.746667	2.49321E-001	-9.91354E-005	0.00000E+000	-2.47165E-005	-5.99601E-002	2.49359E-001	3.57900E+000	9	...........
	56	0.76	2.40093E-001	-9.88322E-005	0.00000E+000	-2.37289E-005	-5.99601E-002	2.40131E-001	3.57900E+000	9	...........
	57	0.773333	2.30913E-001	-9.94302E-005	0.00000E+000	-2.29597E-005	-5.99601E-002	2.30948E-001	3.57900E+000	9	...........
	58	0.786667	2.21786E-001	-9.90520E-005	0.00000E+000	-2.19684E-005	-5.99601E-002	2.21820E-001	3.57900E+000	9	...........
	59	0.8	2.12709E-001	-9.94094E-005	0.00000E+000	-2.11452E-005	-5.99601E-002	2.12740E-001	3.57900E+000	9	...........
	60	0.813333	2.03686E-001	-9.94698E-005	0.00000E+000	-2.02607E-005	-5.99601E-002	2.03724E-001	3.57900E+000	9	...........
	61	0.826667	1.94730E-001	-9.83925E-005	0.00000E+000	-1.91600E-005	-5.99601E-002	1.94760E-001	3.57900E+000	9	...........
	62	0.84	1.85820E-001	-9.92021E-005	0.00000E+000	-1.84338E-005	-5.99601E-002	1.85848E-001	3.57900E+000	9	...........
	63	0.853333	1.76976E-001	-9.90645E-005	0.00000E+000	-1.75321E-005	-5.99601E-002	1.77004E-001	3.57900E+000	9	...........
	64	0.866667	1.68199E-001	-9.87009E-005	0.00000E+000	-1.66014E-005	-5.99601E-002	1.68225E-001	3.57900E+000	9	...........
	65	0.88	1.59488E-001	-9.82612E-005	0.00000E+000	-1.56715E-005	-5.99601E-002	1.59504E-001	3.57900E+000	9	...........
	66	0.893333	1.50846E-001	-9.85321E-005	0.00000E+000	-1.48631E-005	-5.99601E-002	1.50859E-001	3.57900E+000	9	...........
	67	0.906667	1.42267E-001	-9.90499E-005	0.00000E+000	-1.40915E-005	-5.99601E-002	1.42283E-001	3.57900E+000	9	...........
	68	0.92	1.33763E-001	-9.85384E-005	0.00000E+000	-1.31808E-005	-5.99601E-002	1.33774E-001	3.57900E+000	9	...........
	69	0.933333	1.25330E-001	-1.00098E-004	0.00000E+000	-1.25453E-005	-5.99601E-002	1.25343E-001	3.57900E+000	9	...........
	70	0.946667	1.16974E-001	-9.83279E-005	0.00000E+000	-1.15018E-005	-5.99601E-002	1.16991E-001	3.57900E+000	9	...........
	71	0.96	1.08691E-001	-9.91020E-005	0.00000E+000	-1.07715E-005	-5.99601E-002	1.08705E-001	3.57900E+000	9	...........
	72	0.97333	1.00492E-001	-9.96094E-005	0.00000E+000	-1.00100E-005	-5.99601E-002	1.00504E-001	3.57900E+000	9	...........
	73	0.98667	9.23693E-002	-9.93531E-005	0.00000E+000	-9.17718E-006	-5.99601E-002	9.23781E-002	3.57900E+000	9	...........
	74	1	8.43155E-002	-9.87759E-005	0.00000E+000	-8.32834E-006	-5.99601E-002	8.43205E-002	3.57900E+000	9	...........
	75	1.01333	7.63316E-002	-9.94198E-005	0.00000E+000	-7.58888E-006	-5.99601E-002	7.63359E-002	3.57870E+000	9	...........
	76	1.02667	6.84248E-002	-9.97355E-005	0.00000E+000	-6.82438E-006	-5.99601E-002	6.84279E-002	3.57860E+000	9	...........
	77	1.04	6.05897E-002	-9.83800E-005	0.00000E+000	-5.96081E-006	-5.99601E-002	6.05865E-002	3.57860E+000	9	...........
	78	1.05333	5.28260E-002	-9.89166E-005	0.00000E+000	-5.22537E-006	-5.99601E-002	5.28181E-002	3.57860E+000	9	...........
	79	1.06667	4.51630E-002	-9.88614E-005	0.00000E+000	-4.46488E-006	-5.99601E-002	4.51566E-002	3.57860E+000	9	...........
	80	1.08	3.75416E-002	-9.88572E-005	0.00000E+000	-3.71126E-006	-5.99601E-002	3.75279E-002	3.57860E+000	9	...........
	81	1.09333	2.99783E-002	-9.90343E-005	0.00000E+000	-2.96888E-006	-5.99601E-002	2.99630E-002	3.57860E+000	9	...........
	82	1.10667	2.24864E-002	-9.81404E-005	0.00000E+000	-2.20682E-006	-5.99601E-002	2.24660E-002	3.57860E+000	9	...........
	83	1.12	1.50628E-002	-9.82914E-005	0.00000E+000	-1.48054E-006	-5.99601E-002	1.50334E-002	3.57860E+000	9	...........
	84	1.13333	7.70268E-003	-9.86426E-005	0.00000E+000	-7.59812E-007	-5.99601E-002	7.67112E-003	3.57860E+000	9	...........
	85	1.14167	1.77604E-003	-9.85419E-005	0.00000E+000	-1.75015E-007	-5.99601E-002	1.74003E-003	3.57860E+000	9	...........
STARTTIMEOFFSET	QUANT	1906.971	Start Time Offset (s)
