EXPLAIN
TAG	PWR800_DISCHARGE
TITLE	LABEL	PWR Cyclic Charge Discharge (Cell) - Discharge Step	Test &Identifier
DATE	LABEL	13-7-2017	Date
TIME	LABEL	15:05:56	Time
NOTES	NOTES	2	&Notes...
	supercap test cell
	6M KOH
PSTAT	PSTAT	IFC5000-01520	Potentiostat
CAPACITY	QUANT	1.00000E-003	Capacity (A-hr)
CELLTYPE	SELECTOR	1	&Cell Type
WORKINGCONNECTION	SELECTOR	0	&Working Lead
MAXDISCHARGETIME	VARIABLEANDUNITS	1.00000E+002	s	1.00000E+002	second(s)	Max &Discharge Time
DISCHARGEMODE	MULTIPARAM	0	1.00000E-004	&Discharge Mode	Constant Current	Amp(s)
SAMPLETIME	QUANT	1.00000E-002	Sa&mple Period (s)
DISCHARGESTOPAT1	MULTIPARAM	3	0.00000E+000	Discharge Stop At &1	Voltage < Limit	V
DISCHARGESTOPAT2	MULTIPARAM	0	0.00000E+000	Discharge Stop At &2	None	N/A
AESBHCSELECTOR	TOGGLE	F	Save Both Half Cells
IRCOMP	TOGGLE	F	IR &Measure
EOC	QUANT	0	Open Circuit (V)
SEQUENCER	TOGGLE	TRUE	Run as Sequence
PSTATMODEL	IQUANT	53	Pstat Model
PSTATSECTION	LABEL	IFC5000-01520	Pstat Section
PSTATSERIALNO	LABEL	01520	Pstat Serial Number
CTRLMODE	IQUANT	0	Control Mode
ELECTROMETER	IQUANT	1	RE=0 or CS=1
IESTAB	IQUANT	0	I/E Stability
CASPEED	IQUANT	4	Control Amp Speed
CONVENTION	IQUANT	1	Current Convention
ICHRANGE	IQUANT	2	Ich Range
ICHRANGEMODE	TOGGLE	T	Ich Auto Range
ICHOFFSETENABLE	TOGGLE	F	Ich Offset Enable
ICHOFFSET	QUANT	0	Ich Offset (V)
ICHFILTER	IQUANT	1	Ich Filter
VCHRANGE	IQUANT	2	Vch Range
VCHRANGEMODE	TOGGLE	T	Vch Auto Range
VCHOFFSETENABLE	TOGGLE	F	Vch Offset Enable
VCHOFFSET	QUANT	0	Vch Offset (V)
VCHFILTER	IQUANT	1	Vch Filter
IERANGELOWERLIMIT	IQUANT	9	I/E Range Lower Limit
IERANGEMODE	TOGGLE	F	I/E AutoRange
IERANGE	IQUANT	9	I/E Range
ACHSELECT	IQUANT	1	Ach Select
ACHRANGE	IQUANT	2	Ach Range
ACHOFFSETENABLE	TOGGLE	F	Ach Offset Enable
ACHOFFSET	QUANT	0	Ach Offset (V)
ACHFILTER	IQUANT	1	Ach Filter
CABLEID	IQUANT	14	Cable ID
DCCALDATE	LABEL	5-7-2017	DC Calibration Date
ACCALDATE	LABEL	12/3/2015	AC Calibration Date
FRAMEWORKVERSION	QUANT	7.01	Framework Version
INSTRUMENTVERSION	LABEL	4.00	Instrument Version
CURVE	TABLE	93
	Pt	T	Vf	Im	Vu	Pwr	Sig	Ach	Temp	IERange	Over
	#	s	V	A	V	W	V	V	deg C	#	bits
	0	0.013333	8.57222E-001	-9.87343E-005	0.00000E+000	-8.46372E-005	-5.99601E-002	8.57564E-001	3.58020E+000	9	...........
	1	0.026667	8.44381E-001	-9.79372E-005	0.00000E+000	-8.26963E-005	-5.99601E-002	8.44728E-001	3.58020E+000	9	...........
	2	0.04	8.32338E-001	-9.85509E-005	0.00000E+000	-8.20276E-005	-5.99601E-002	8.32646E-001	3.58020E+000	9	...........
	3	0.053333	8.20842E-001	-9.89499E-005	0.00000E+000	-8.12223E-005	-5.99601E-002	8.21170E-001	3.58020E+000	9	...........
	4	0.066667	8.09749E-001	-9.86874E-005	0.00000E+000	-7.99120E-005	-5.99601E-002	8.10063E-001	3.58020E+000	9	...........
	5	0.08	7.98967E-001	-9.94167E-005	0.00000E+000	-7.94306E-005	-5.99601E-002	7.99271E-001	3.58020E+000	9	...........
	6	0.093333	7.88365E-001	-9.94104E-005	0.00000E+000	-7.83717E-005	-5.99601E-002	7.88671E-001	3.58020E+000	9	...........
	7	0.106667	7.77954E-001	-9.89916E-005	0.00000E+000	-7.70109E-005	-5.99601E-002	7.78270E-001	3.58020E+000	9	...........
	8	0.12	7.67685E-001	-9.87822E-005	0.00000E+000	-7.58336E-005	-5.99601E-002	7.67984E-001	3.58020E+000	9	...........
	9	0.133333	7.57525E-001	-9.91302E-005	0.00000E+000	-7.50936E-005	-5.99601E-002	7.57807E-001	3.58020E+000	9	...........
	10	0.146667	7.47430E-001	-9.93531E-005	0.00000E+000	-7.42595E-005	-5.99601E-002	7.47729E-001	3.58020E+000	9	...........
	11	0.16	7.37394E-001	-9.81487E-005	0.00000E+000	-7.23743E-005	-5.99601E-002	7.37671E-001	3.58020E+000	9	...........
	12	0.173333	7.27455E-001	-9.86353E-005	0.00000E+000	-7.17527E-005	-5.99601E-002	7.27699E-001	3.58020E+000	9	...........
	13	0.186667	7.17504E-001	-9.80966E-005	0.00000E+000	-7.03847E-005	-5.99601E-002	7.17761E-001	3.58020E+000	9	...........
	14	0.2	7.07589E-001	-9.88280E-005	0.00000E+000	-6.99296E-005	-5.99601E-002	7.07840E-001	3.58020E+000	9	...........
	15	0.213333	6.97711E-001	-9.88759E-005	0.00000E+000	-6.89868E-005	-5.99601E-002	6.97954E-001	3.58020E+000	9	...........
	16	0.226667	6.87843E-001	-9.84134E-005	0.00000E+000	-6.76929E-005	-5.99601E-002	6.88093E-001	3.58020E+000	9	...........
	17	0.24	6.77983E-001	-9.88301E-005	0.00000E+000	-6.70052E-005	-5.99601E-002	6.78250E-001	3.58020E+000	9	...........
	18	0.253333	6.68133E-001	-9.88259E-005	0.00000E+000	-6.60289E-005	-5.99601E-002	6.68417E-001	3.58020E+000	9	...........
	19	0.266667	6.58272E-001	-9.88999E-005	0.00000E+000	-6.51031E-005	-5.99601E-002	6.58544E-001	3.58020E+000	9	...........
	20	0.28	6.48445E-001	-9.87447E-005	0.00000E+000	-6.40305E-005	-5.99601E-002	6.48716E-001	3.58020E+000	9	...........
	21	0.293333	6.38596E-001	-9.89103E-005	0.00000E+000	-6.31638E-005	-5.99601E-002	6.38868E-001	3.58020E+000	9	...........
	22	0.306667	6.28763E-001	-9.92448E-005	0.00000E+000	-6.24014E-005	-5.99601E-002	6.29029E-001	3.58020E+000	9	...........
	23	0.32	6.18941E-001	-9.85800E-005	0.00000E+000	-6.10153E-005	-5.99601E-002	6.19199E-001	3.58020E+000	9	...........
	24	0.333333	6.09033E-001	-9.78163E-005	0.00000E+000	-5.95734E-005	-5.99601E-002	6.09362E-001	3.58020E+000	9	...........
	25	0.346667	5.99219E-001	-9.91072E-005	0.00000E+000	-5.93870E-005	-5.99601E-002	5.99540E-001	3.58020E+000	9	...........
	26	0.36	5.89393E-001	-9.86999E-005	0.00000E+000	-5.81730E-005	-5.99601E-002	5.89712E-001	3.58020E+000	9	...........
	27	0.373333	5.79558E-001	-9.91072E-005	0.00000E+000	-5.74384E-005	-5.99601E-002	5.79872E-001	3.58020E+000	9	...........
	28	0.386667	5.69749E-001	-9.82727E-005	0.00000E+000	-5.59908E-005	-5.99601E-002	5.70066E-001	3.58020E+000	9	...........
	29	0.4	5.59922E-001	-9.93104E-005	0.00000E+000	-5.56061E-005	-5.99601E-002	5.60240E-001	3.58020E+000	9	...........
	30	0.413333	5.50135E-001	-9.83977E-005	0.00000E+000	-5.41320E-005	-5.99601E-002	5.50427E-001	3.58020E+000	9	...........
	31	0.426667	5.40337E-001	-9.95938E-005	0.00000E+000	-5.38143E-005	-5.99601E-002	5.40641E-001	3.58020E+000	9	...........
	32	0.44	5.30541E-001	-9.84821E-005	0.00000E+000	-5.22488E-005	-5.99601E-002	5.30834E-001	3.58020E+000	9	...........
	33	0.453333	5.20784E-001	-9.89593E-005	0.00000E+000	-5.15364E-005	-5.99601E-002	5.21078E-001	3.58020E+000	9	...........
	34	0.466667	5.11032E-001	-9.98001E-005	0.00000E+000	-5.10010E-005	-5.99601E-002	5.11322E-001	3.58020E+000	9	...........
	35	0.48	5.01272E-001	-9.87363E-005	0.00000E+000	-4.94937E-005	-5.99601E-002	5.01575E-001	3.58020E+000	9	...........
	36	0.493333	4.91597E-001	-9.92635E-005	0.00000E+000	-4.87976E-005	-5.99601E-002	4.91860E-001	3.58020E+000	9	...........
	37	0.506667	4.82177E-001	-9.93031E-005	0.00000E+000	-4.78817E-005	-5.99601E-002	4.82305E-001	3.58020E+000	9	...........
	38	0.52	4.72603E-001	-9.91291E-005	0.00000E+000	-4.68488E-005	-5.99601E-002	4.72711E-001	3.58020E+000	9	...........
	39	0.533333	4.62965E-001	-9.90228E-005	0.00000E+000	-4.58441E-005	-5.99601E-002	4.63065E-001	3.58020E+000	9	...........
	40	0.546667	4.53348E-001	-9.88582E-005	0.00000E+000	-4.48172E-005	-5.99601E-002	4.53444E-001	3.58020E+000	9	...........
	41	0.56	4.43761E-001	-9.97991E-005	0.00000E+000	-4.42869E-005	-5.99601E-002	4.43855E-001	3.58020E+000	9	...........
	42	0.573333	4.34203E-001	-9.91937E-005	0.00000E+000	-4.30702E-005	-5.99601E-002	4.34293E-001	3.58020E+000	9	...........
	43	0.586667	4.24675E-001	-9.89614E-005	0.00000E+000	-4.20264E-005	-5.99601E-002	4.24760E-001	3.58020E+000	9	...........
	44	0.6	4.15184E-001	-9.94531E-005	0.00000E+000	-4.12913E-005	-5.99601E-002	4.15266E-001	3.58020E+000	9	...........
	45	0.613333	4.05717E-001	-9.84394E-005	0.00000E+000	-3.99385E-005	-5.99601E-002	4.05796E-001	3.58020E+000	9	...........
	46	0.626667	3.96291E-001	-9.80206E-005	0.00000E+000	-3.88446E-005	-5.99601E-002	3.96362E-001	3.57880E+000	9	...........
	47	0.64	3.86896E-001	-9.78591E-005	0.00000E+000	-3.78612E-005	-5.99601E-002	3.86967E-001	3.57880E+000	9	...........
	48	0.653333	3.77538E-001	-9.87072E-005	0.00000E+000	-3.72657E-005	-5.99601E-002	3.77608E-001	3.57880E+000	9	...........
	49	0.666667	3.68208E-001	-9.91208E-005	0.00000E+000	-3.64971E-005	-5.99601E-002	3.68278E-001	3.57880E+000	9	...........
	50	0.68	3.58912E-001	-9.90291E-005	0.00000E+000	-3.55428E-005	-5.99601E-002	3.58987E-001	3.57880E+000	9	...........
	51	0.693333	3.49652E-001	-9.92948E-005	0.00000E+000	-3.47186E-005	-5.99601E-002	3.49713E-001	3.57880E+000	9	...........
	52	0.706667	3.40419E-001	-9.85509E-005	0.00000E+000	-3.35486E-005	-5.99601E-002	3.40488E-001	3.57880E+000	9	...........
	53	0.72	3.31221E-001	-9.91031E-005	0.00000E+000	-3.28250E-005	-5.99601E-002	3.31289E-001	3.57880E+000	9	...........
	54	0.733333	3.22064E-001	-9.88770E-005	0.00000E+000	-3.18447E-005	-5.99601E-002	3.22126E-001	3.57880E+000	9	...........
	55	0.746667	3.12931E-001	-9.84092E-005	0.00000E+000	-3.07953E-005	-5.99601E-002	3.12987E-001	3.57880E+000	9	...........
	56	0.76	3.03826E-001	-9.94854E-005	0.00000E+000	-3.02263E-005	-5.99601E-002	3.03879E-001	3.57880E+000	9	...........
	57	0.773333	2.94747E-001	-9.81800E-005	0.00000E+000	-2.89382E-005	-5.99601E-002	2.94798E-001	3.57880E+000	9	...........
	58	0.786667	2.85692E-001	-9.92208E-005	0.00000E+000	-2.83466E-005	-5.99601E-002	2.85754E-001	3.57880E+000	9	...........
	59	0.8	2.76677E-001	-9.91364E-005	0.00000E+000	-2.74288E-005	-5.99601E-002	2.76726E-001	3.57880E+000	9	...........
	60	0.813333	2.67685E-001	-9.89916E-005	0.00000E+000	-2.64985E-005	-5.99601E-002	2.67739E-001	3.57880E+000	9	...........
	61	0.826667	2.58727E-001	-9.80977E-005	0.00000E+000	-2.53805E-005	-5.99601E-002	2.58786E-001	3.57880E+000	9	...........
	62	0.84	2.49798E-001	-9.77507E-005	0.00000E+000	-2.44179E-005	-5.99601E-002	2.49848E-001	3.57880E+000	9	...........
	63	0.853333	2.40908E-001	-9.96136E-005	0.00000E+000	-2.39977E-005	-5.99601E-002	2.40944E-001	3.57880E+000	9	...........
	64	0.866667	2.32032E-001	-9.85102E-005	0.00000E+000	-2.28575E-005	-5.99601E-002	2.32077E-001	3.57880E+000	9	...........
	65	0.88	2.23195E-001	-9.91854E-005	0.00000E+000	-2.21377E-005	-5.99601E-002	2.23233E-001	3.57880E+000	9	...........
	66	0.893333	2.14385E-001	-9.82987E-005	0.00000E+000	-2.10738E-005	-5.99601E-002	2.14419E-001	3.57880E+000	9	...........
	67	0.906667	2.05605E-001	-9.92073E-005	0.00000E+000	-2.03975E-005	-5.99601E-002	2.05646E-001	3.57880E+000	9	...........
	68	0.92	1.96861E-001	-9.92677E-005	0.00000E+000	-1.95419E-005	-5.99601E-002	1.96899E-001	3.57880E+000	9	...........
	69	0.933333	1.88157E-001	-9.80081E-005	0.00000E+000	-1.84409E-005	-5.99601E-002	1.88189E-001	3.57880E+000	9	...........
	70	0.946667	1.79485E-001	-9.93198E-005	0.00000E+000	-1.78264E-005	-5.99601E-002	1.79514E-001	3.57880E+000	9	...........
	71	0.96	1.70846E-001	-9.82029E-005	0.00000E+000	-1.67776E-005	-5.99601E-002	1.70875E-001	3.57880E+000	9	...........
	72	0.97333	1.62254E-001	-9.84561E-005	0.00000E+000	-1.59749E-005	-5.99601E-002	1.62280E-001	3.57880E+000	9	...........
	73	0.98667	1.53706E-001	-9.90322E-005	0.00000E+000	-1.52219E-005	-5.99601E-002	1.53728E-001	3.57880E+000	9	...........
	74	1	1.45199E-001	-9.81279E-005	0.00000E+000	-1.42481E-005	-5.99601E-002	1.45217E-001	3.57880E+000	9	...........
	75	1.01333	1.36739E-001	-9.83081E-005	0.00000E+000	-1.34426E-005	-5.99601E-002	1.36752E-001	3.57880E+000	9	...........
	76	1.02667	1.28326E-001	-9.87113E-005	0.00000E+000	-1.26673E-005	-5.99601E-002	1.28344E-001	3.57880E+000	9	...........
	77	1.04	1.19969E-001	-9.85623E-005	0.00000E+000	-1.18245E-005	-5.99601E-002	1.19986E-001	3.57880E+000	9	...........
	78	1.05333	1.11673E-001	-9.93375E-005	0.00000E+000	-1.10933E-005	-5.99601E-002	1.11686E-001	3.57880E+000	9	...........
	79	1.06667	1.03432E-001	-9.91072E-005	0.00000E+000	-1.02509E-005	-5.99601E-002	1.03445E-001	3.57880E+000	9	...........
	80	1.08	9.52433E-002	-9.87186E-005	0.00000E+000	-9.40228E-006	-5.99601E-002	9.52606E-002	3.57880E+000	9	...........
	81	1.09333	8.71239E-002	-9.87405E-005	0.00000E+000	-8.60266E-006	-5.99601E-002	8.71350E-002	3.57880E+000	9	...........
	82	1.10667	7.90721E-002	-9.87488E-005	0.00000E+000	-7.80828E-006	-5.99601E-002	7.90733E-002	3.57880E+000	9	...........
	83	1.12	7.10728E-002	-9.84290E-005	0.00000E+000	-6.99563E-006	-5.99601E-002	7.10701E-002	3.57880E+000	9	...........
	84	1.13333	6.31320E-002	-9.85707E-005	0.00000E+000	-6.22296E-006	-5.99601E-002	6.31309E-002	3.57880E+000	9	...........
	85	1.14667	5.52596E-002	-9.79685E-005	0.00000E+000	-5.41369E-006	-5.99601E-002	5.52530E-002	3.57880E+000	9	...........
	86	1.16	4.74674E-002	-9.88593E-005	0.00000E+000	-4.69259E-006	-5.99601E-002	4.74605E-002	3.57880E+000	9	...........
	87	1.17333	3.97430E-002	-9.87228E-005	0.00000E+000	-3.92354E-006	-5.99601E-002	3.97324E-002	3.57880E+000	9	...........
	88	1.18667	3.20543E-002	-9.87103E-005	0.00000E+000	-3.16409E-006	-5.99601E-002	3.20387E-002	3.57880E+000	9	...........
	89	1.2	2.44221E-002	-9.94156E-005	0.00000E+000	-2.42793E-006	-5.99601E-002	2.44041E-002	3.57880E+000	9	...........
	90	1.21333	1.68565E-002	-9.89885E-005	0.00000E+000	-1.66860E-006	-5.99601E-002	1.68346E-002	3.57880E+000	9	...........
	91	1.22667	9.34767E-003	-9.99095E-005	0.00000E+000	-9.33921E-007	-5.99601E-002	9.32092E-003	3.57880E+000	9	...........
	92	1.23833	2.35402E-003	-9.99105E-005	0.00000E+000	-2.35191E-007	-5.99601E-002	2.32424E-003	3.57880E+000	9	...........
STARTTIMEOFFSET	QUANT	171.925	Start Time Offset (s)
