EXPLAIN
TAG	PWR800_DISCHARGE
TITLE	LABEL	PWR Cyclic Charge Discharge (Cell) - Discharge Step	Test &Identifier
DATE	LABEL	13-7-2017	Date
TIME	LABEL	15:13:19	Time
NOTES	NOTES	2	&Notes...
	supercap test cell
	6M KOH
PSTAT	PSTAT	IFC5000-01520	Potentiostat
CAPACITY	QUANT	1.00000E-003	Capacity (A-hr)
CELLTYPE	SELECTOR	1	&Cell Type
WORKINGCONNECTION	SELECTOR	0	&Working Lead
MAXDISCHARGETIME	VARIABLEANDUNITS	1.00000E+002	s	1.00000E+002	second(s)	Max &Discharge Time
DISCHARGEMODE	MULTIPARAM	0	1.00000E-004	&Discharge Mode	Constant Current	Amp(s)
SAMPLETIME	QUANT	1.00000E-002	Sa&mple Period (s)
DISCHARGESTOPAT1	MULTIPARAM	3	0.00000E+000	Discharge Stop At &1	Voltage < Limit	V
DISCHARGESTOPAT2	MULTIPARAM	0	0.00000E+000	Discharge Stop At &2	None	N/A
AESBHCSELECTOR	TOGGLE	F	Save Both Half Cells
IRCOMP	TOGGLE	F	IR &Measure
EOC	QUANT	0	Open Circuit (V)
SEQUENCER	TOGGLE	TRUE	Run as Sequence
PSTATMODEL	IQUANT	53	Pstat Model
PSTATSECTION	LABEL	IFC5000-01520	Pstat Section
PSTATSERIALNO	LABEL	01520	Pstat Serial Number
CTRLMODE	IQUANT	0	Control Mode
ELECTROMETER	IQUANT	1	RE=0 or CS=1
IESTAB	IQUANT	0	I/E Stability
CASPEED	IQUANT	4	Control Amp Speed
CONVENTION	IQUANT	1	Current Convention
ICHRANGE	IQUANT	2	Ich Range
ICHRANGEMODE	TOGGLE	T	Ich Auto Range
ICHOFFSETENABLE	TOGGLE	F	Ich Offset Enable
ICHOFFSET	QUANT	0	Ich Offset (V)
ICHFILTER	IQUANT	1	Ich Filter
VCHRANGE	IQUANT	2	Vch Range
VCHRANGEMODE	TOGGLE	T	Vch Auto Range
VCHOFFSETENABLE	TOGGLE	F	Vch Offset Enable
VCHOFFSET	QUANT	0	Vch Offset (V)
VCHFILTER	IQUANT	1	Vch Filter
IERANGELOWERLIMIT	IQUANT	9	I/E Range Lower Limit
IERANGEMODE	TOGGLE	F	I/E AutoRange
IERANGE	IQUANT	9	I/E Range
ACHSELECT	IQUANT	1	Ach Select
ACHRANGE	IQUANT	2	Ach Range
ACHOFFSETENABLE	TOGGLE	F	Ach Offset Enable
ACHOFFSET	QUANT	0	Ach Offset (V)
ACHFILTER	IQUANT	1	Ach Filter
CABLEID	IQUANT	14	Cable ID
DCCALDATE	LABEL	5-7-2017	DC Calibration Date
ACCALDATE	LABEL	12/3/2015	AC Calibration Date
FRAMEWORKVERSION	QUANT	7.01	Framework Version
INSTRUMENTVERSION	LABEL	4.00	Instrument Version
CURVE	TABLE	91
	Pt	T	Vf	Im	Vu	Pwr	Sig	Ach	Temp	IERange	Over
	#	s	V	A	V	W	V	V	deg C	#	bits
	0	0.013333	8.53137E-001	-9.89228E-005	0.00000E+000	-8.43947E-005	-5.99601E-002	8.53481E-001	3.57940E+000	9	...........
	1	0.026667	8.39739E-001	-9.92448E-005	0.00000E+000	-8.33397E-005	-5.99601E-002	8.40077E-001	3.57940E+000	9	...........
	2	0.04	8.27192E-001	-9.89749E-005	0.00000E+000	-8.18713E-005	-5.99601E-002	8.27526E-001	3.57940E+000	9	...........
	3	0.053333	8.15208E-001	-9.96740E-005	0.00000E+000	-8.12550E-005	-5.99601E-002	8.15522E-001	3.57940E+000	9	...........
	4	0.066667	8.03621E-001	-9.83706E-005	0.00000E+000	-7.90527E-005	-5.99601E-002	8.03916E-001	3.57940E+000	9	...........
	5	0.08	7.92320E-001	-9.86686E-005	0.00000E+000	-7.81772E-005	-5.99601E-002	7.92606E-001	3.57940E+000	9	...........
	6	0.093333	7.81219E-001	-9.90041E-005	0.00000E+000	-7.73439E-005	-5.99601E-002	7.81529E-001	3.57940E+000	9	...........
	7	0.106667	7.70312E-001	-9.83946E-005	0.00000E+000	-7.57946E-005	-5.99601E-002	7.70615E-001	3.57940E+000	9	...........
	8	0.12	7.59522E-001	-9.86488E-005	0.00000E+000	-7.49260E-005	-5.99601E-002	7.59822E-001	3.57940E+000	9	...........
	9	0.133333	7.48832E-001	-9.81341E-005	0.00000E+000	-7.34860E-005	-5.99601E-002	7.49128E-001	3.57940E+000	9	...........
	10	0.146667	7.38221E-001	-9.92458E-005	0.00000E+000	-7.32653E-005	-5.99601E-002	7.38501E-001	3.57940E+000	9	...........
	11	0.16	7.27670E-001	-9.89999E-005	0.00000E+000	-7.20393E-005	-5.99601E-002	7.27966E-001	3.57940E+000	9	...........
	12	0.173333	7.17180E-001	-9.88655E-005	0.00000E+000	-7.09044E-005	-5.99601E-002	7.17446E-001	3.57940E+000	9	...........
	13	0.186667	7.06715E-001	-9.95948E-005	0.00000E+000	-7.03852E-005	-5.99601E-002	7.06976E-001	3.57940E+000	9	...........
	14	0.2	6.96270E-001	-9.83467E-005	0.00000E+000	-6.84758E-005	-5.99601E-002	6.96558E-001	3.57940E+000	9	...........
	15	0.213333	6.85855E-001	-9.74506E-005	0.00000E+000	-6.68370E-005	-5.99601E-002	6.86115E-001	3.57940E+000	9	...........
	16	0.226667	6.75472E-001	-9.84946E-005	0.00000E+000	-6.65304E-005	-5.99601E-002	6.75754E-001	3.57940E+000	9	...........
	17	0.24	6.65077E-001	-9.97032E-005	0.00000E+000	-6.63103E-005	-5.99601E-002	6.65344E-001	3.57940E+000	9	...........
	18	0.253333	6.54700E-001	-9.81404E-005	0.00000E+000	-6.42525E-005	-5.99601E-002	6.54962E-001	3.57940E+000	9	...........
	19	0.266667	6.44336E-001	-9.91968E-005	0.00000E+000	-6.39161E-005	-5.99601E-002	6.44608E-001	3.57940E+000	9	...........
	20	0.28	6.33943E-001	-9.92239E-005	0.00000E+000	-6.29023E-005	-5.99601E-002	6.34238E-001	3.57940E+000	9	...........
	21	0.293333	6.23618E-001	-9.80601E-005	0.00000E+000	-6.11521E-005	-5.99601E-002	6.23882E-001	3.57940E+000	9	...........
	22	0.306667	6.13257E-001	-9.83863E-005	0.00000E+000	-6.03360E-005	-5.99601E-002	6.13531E-001	3.57940E+000	9	...........
	23	0.32	6.02916E-001	-9.90854E-005	0.00000E+000	-5.97401E-005	-5.99601E-002	6.03190E-001	3.57940E+000	9	...........
	24	0.333333	5.92607E-001	-9.84436E-005	0.00000E+000	-5.83383E-005	-5.99601E-002	5.92862E-001	3.57940E+000	9	...........
	25	0.346667	5.82264E-001	-9.81727E-005	0.00000E+000	-5.71624E-005	-5.99601E-002	5.82527E-001	3.57940E+000	9	...........
	26	0.36	5.71997E-001	-9.92458E-005	0.00000E+000	-5.67683E-005	-5.99601E-002	5.72218E-001	3.57940E+000	9	...........
	27	0.373333	5.61682E-001	-9.86582E-005	0.00000E+000	-5.54145E-005	-5.99601E-002	5.61922E-001	3.57940E+000	9	...........
	28	0.386667	5.51430E-001	-9.93042E-005	0.00000E+000	-5.47593E-005	-5.99601E-002	5.51679E-001	3.57940E+000	9	...........
	29	0.4	5.41184E-001	-9.93802E-005	0.00000E+000	-5.37830E-005	-5.99601E-002	5.41424E-001	3.57940E+000	9	...........
	30	0.413333	5.30946E-001	-9.88572E-005	0.00000E+000	-5.24879E-005	-5.99601E-002	5.31194E-001	3.57940E+000	9	...........
	31	0.426667	5.20779E-001	-9.84311E-005	0.00000E+000	-5.12608E-005	-5.99601E-002	5.21022E-001	3.57940E+000	9	...........
	32	0.44	5.10601E-001	-9.85561E-005	0.00000E+000	-5.03229E-005	-5.99601E-002	5.10849E-001	3.57940E+000	9	...........
	33	0.453333	5.00445E-001	-9.85321E-005	0.00000E+000	-4.93099E-005	-5.99601E-002	5.00734E-001	3.57940E+000	9	...........
	34	0.466667	4.90384E-001	-9.80133E-005	0.00000E+000	-4.80641E-005	-5.99601E-002	4.90611E-001	3.57940E+000	9	...........
	35	0.48	4.80635E-001	-9.91958E-005	0.00000E+000	-4.76770E-005	-5.99601E-002	4.80760E-001	3.57940E+000	9	...........
	36	0.493333	4.70672E-001	-9.94719E-005	0.00000E+000	-4.68186E-005	-5.99601E-002	4.70772E-001	3.57940E+000	9	...........
	37	0.506667	4.60695E-001	-1.00019E-004	0.00000E+000	-4.60782E-005	-5.99601E-002	4.60790E-001	3.57940E+000	9	...........
	38	0.52	4.50767E-001	-9.92906E-005	0.00000E+000	-4.47569E-005	-5.99601E-002	4.50864E-001	3.57940E+000	9	...........
	39	0.533333	4.40872E-001	-9.92739E-005	0.00000E+000	-4.37671E-005	-5.99601E-002	4.40970E-001	3.57940E+000	9	...........
	40	0.546667	4.31034E-001	-9.87103E-005	0.00000E+000	-4.25475E-005	-5.99601E-002	4.31129E-001	3.57940E+000	9	...........
	41	0.56	4.21236E-001	-9.90906E-005	0.00000E+000	-4.17405E-005	-5.99601E-002	4.21329E-001	3.57940E+000	9	...........
	42	0.573333	4.11492E-001	-9.82727E-005	0.00000E+000	-4.04385E-005	-5.99601E-002	4.11579E-001	3.57940E+000	9	...........
	43	0.586667	4.01793E-001	-9.81643E-005	0.00000E+000	-3.94417E-005	-5.99601E-002	4.01876E-001	3.57940E+000	9	...........
	44	0.6	3.92147E-001	-9.88176E-005	0.00000E+000	-3.87510E-005	-5.99601E-002	3.92221E-001	3.57940E+000	9	...........
	45	0.613333	3.82544E-001	-9.92031E-005	0.00000E+000	-3.79495E-005	-5.99601E-002	3.82614E-001	3.57940E+000	9	...........
	46	0.626667	3.72988E-001	-9.86926E-005	0.00000E+000	-3.68111E-005	-5.99601E-002	3.73054E-001	3.57940E+000	9	...........
	47	0.64	3.63483E-001	-9.88791E-005	0.00000E+000	-3.59409E-005	-5.99601E-002	3.63550E-001	3.57940E+000	9	...........
	48	0.653333	3.54018E-001	-9.93885E-005	0.00000E+000	-3.51853E-005	-5.99601E-002	3.54079E-001	3.57940E+000	9	...........
	49	0.666667	3.44600E-001	-9.93844E-005	0.00000E+000	-3.42478E-005	-5.99601E-002	3.44662E-001	3.57940E+000	9	...........
	50	0.68	3.35229E-001	-9.83487E-005	0.00000E+000	-3.29693E-005	-5.99601E-002	3.35291E-001	3.57940E+000	9	...........
	51	0.693333	3.25905E-001	-9.83883E-005	0.00000E+000	-3.20653E-005	-5.99601E-002	3.25970E-001	3.57940E+000	9	...........
	52	0.706667	3.16627E-001	-9.82070E-005	0.00000E+000	-3.10950E-005	-5.99601E-002	3.16682E-001	3.57940E+000	9	...........
	53	0.72	3.07389E-001	-9.90395E-005	0.00000E+000	-3.04437E-005	-5.99601E-002	3.07449E-001	3.57940E+000	9	...........
	54	0.733333	2.98190E-001	-9.87915E-005	0.00000E+000	-2.94587E-005	-5.99601E-002	2.98251E-001	3.57940E+000	9	...........
	55	0.746667	2.89031E-001	-9.87509E-005	0.00000E+000	-2.85421E-005	-5.99601E-002	2.89091E-001	3.57940E+000	9	...........
	56	0.76	2.79914E-001	-9.87863E-005	0.00000E+000	-2.76517E-005	-5.99601E-002	2.79972E-001	3.57940E+000	9	...........
	57	0.773333	2.70839E-001	-9.80060E-005	0.00000E+000	-2.65438E-005	-5.99601E-002	2.70890E-001	3.58020E+000	9	...........
	58	0.786667	2.61795E-001	-9.89124E-005	0.00000E+000	-2.58948E-005	-5.99601E-002	2.61846E-001	3.58020E+000	9	...........
	59	0.8	2.52795E-001	-9.82164E-005	0.00000E+000	-2.48286E-005	-5.99601E-002	2.52846E-001	3.58020E+000	9	...........
	60	0.813333	2.43831E-001	-9.86894E-005	0.00000E+000	-2.40635E-005	-5.99601E-002	2.43875E-001	3.58020E+000	9	...........
	61	0.826667	2.34908E-001	-9.87343E-005	0.00000E+000	-2.31935E-005	-5.99601E-002	2.34944E-001	3.58020E+000	9	...........
	62	0.84	2.26020E-001	-9.87728E-005	0.00000E+000	-2.23246E-005	-5.99601E-002	2.26056E-001	3.58020E+000	9	...........
	63	0.853333	2.17169E-001	-9.94021E-005	0.00000E+000	-2.15871E-005	-5.99601E-002	2.17205E-001	3.58020E+000	9	...........
	64	0.866667	2.08363E-001	-9.87520E-005	0.00000E+000	-2.05763E-005	-5.99601E-002	2.08395E-001	3.58020E+000	9	...........
	65	0.88	1.99590E-001	-9.81070E-005	0.00000E+000	-1.95812E-005	-5.99601E-002	1.99629E-001	3.58020E+000	9	...........
	66	0.893333	1.90866E-001	-1.00078E-004	0.00000E+000	-1.91015E-005	-5.99601E-002	1.90899E-001	3.58020E+000	9	...........
	67	0.906667	1.82187E-001	-9.79695E-005	0.00000E+000	-1.78488E-005	-5.99601E-002	1.82218E-001	3.58020E+000	9	...........
	68	0.92	1.73551E-001	-9.90229E-005	0.00000E+000	-1.71855E-005	-5.99601E-002	1.73583E-001	3.58020E+000	9	...........
	69	0.933333	1.64967E-001	-9.85884E-005	0.00000E+000	-1.62638E-005	-5.99601E-002	1.64996E-001	3.58020E+000	9	...........
	70	0.946667	1.56436E-001	-9.82737E-005	0.00000E+000	-1.53736E-005	-5.99601E-002	1.56459E-001	3.58020E+000	9	...........
	71	0.96	1.47958E-001	-9.78705E-005	0.00000E+000	-1.44807E-005	-5.99601E-002	1.47983E-001	3.58020E+000	9	...........
	72	0.97333	1.39538E-001	-9.85790E-005	0.00000E+000	-1.37555E-005	-5.99601E-002	1.39550E-001	3.58020E+000	9	...........
	73	0.98667	1.31171E-001	-9.86103E-005	0.00000E+000	-1.29349E-005	-5.99601E-002	1.31189E-001	3.58020E+000	9	...........
	74	1	1.22874E-001	-9.88082E-005	0.00000E+000	-1.21409E-005	-5.99601E-002	1.22890E-001	3.58020E+000	9	...........
	75	1.01333	1.14637E-001	-9.88937E-005	0.00000E+000	-1.13368E-005	-5.99601E-002	1.14650E-001	3.58020E+000	9	...........
	76	1.02667	1.06464E-001	-9.84029E-005	0.00000E+000	-1.04764E-005	-5.99601E-002	1.06476E-001	3.58020E+000	9	...........
	77	1.04	9.83499E-002	-9.83519E-005	0.00000E+000	-9.67289E-006	-5.99601E-002	9.83611E-002	3.58020E+000	9	...........
	78	1.05333	9.03062E-002	-9.93125E-005	0.00000E+000	-8.96853E-006	-5.99601E-002	9.03176E-002	3.58020E+000	9	...........
	79	1.06667	8.23302E-002	-9.83696E-005	0.00000E+000	-8.09879E-006	-5.99601E-002	8.23351E-002	3.58020E+000	9	...........
	80	1.08	7.44180E-002	-9.85571E-005	0.00000E+000	-7.33442E-006	-5.99601E-002	7.44230E-002	3.58020E+000	9	...........
	81	1.09333	6.65769E-002	-9.92062E-005	0.00000E+000	-6.60485E-006	-5.99601E-002	6.65777E-002	3.58020E+000	9	...........
	82	1.10667	5.87963E-002	-9.94917E-005	0.00000E+000	-5.84975E-006	-5.99601E-002	5.87914E-002	3.58020E+000	9	...........
	83	1.12	5.10835E-002	-9.81070E-005	0.00000E+000	-5.01165E-006	-5.99601E-002	5.10730E-002	3.58020E+000	9	...........
	84	1.13333	4.34614E-002	-9.82664E-005	0.00000E+000	-4.27080E-006	-5.99601E-002	4.34556E-002	3.58020E+000	9	...........
	85	1.14667	3.58689E-002	-9.91823E-005	0.00000E+000	-3.55756E-006	-5.99601E-002	3.58548E-002	3.58020E+000	9	...........
	86	1.16	2.83400E-002	-9.91791E-005	0.00000E+000	-2.81074E-006	-5.99601E-002	2.83266E-002	3.58020E+000	9	...........
	87	1.17333	2.08733E-002	-9.88978E-005	0.00000E+000	-2.06433E-006	-5.99601E-002	2.08502E-002	3.58020E+000	9	...........
	88	1.18667	1.34662E-002	-9.92656E-005	0.00000E+000	-1.33673E-006	-5.99601E-002	1.34376E-002	3.58020E+000	9	...........
	89	1.2	6.11807E-003	-9.86905E-005	0.00000E+000	-6.03795E-007	-5.99601E-002	6.08698E-003	3.58020E+000	9	...........
	90	1.20667	6.39570E-004	-9.91312E-005	0.00000E+000	-6.34014E-008	-5.99601E-002	6.13003E-004	3.58020E+000	9	...........
STARTTIMEOFFSET	QUANT	509.8082	Start Time Offset (s)
