EXPLAIN
TAG	PWR800_DISCHARGE
TITLE	LABEL	PWR Cyclic Charge Discharge (Cell) - Discharge Step	Test &Identifier
DATE	LABEL	13-7-2017	Date
TIME	LABEL	15:45:27	Time
NOTES	NOTES	2	&Notes...
	supercap test cell
	6M KOH
PSTAT	PSTAT	IFC5000-01520	Potentiostat
CAPACITY	QUANT	1.00000E-003	Capacity (A-hr)
CELLTYPE	SELECTOR	1	&Cell Type
WORKINGCONNECTION	SELECTOR	0	&Working Lead
MAXDISCHARGETIME	VARIABLEANDUNITS	1.00000E+002	s	1.00000E+002	second(s)	Max &Discharge Time
DISCHARGEMODE	MULTIPARAM	0	1.00000E-004	&Discharge Mode	Constant Current	Amp(s)
SAMPLETIME	QUANT	1.00000E-002	Sa&mple Period (s)
DISCHARGESTOPAT1	MULTIPARAM	3	0.00000E+000	Discharge Stop At &1	Voltage < Limit	V
DISCHARGESTOPAT2	MULTIPARAM	0	0.00000E+000	Discharge Stop At &2	None	N/A
AESBHCSELECTOR	TOGGLE	F	Save Both Half Cells
IRCOMP	TOGGLE	F	IR &Measure
EOC	QUANT	0	Open Circuit (V)
SEQUENCER	TOGGLE	TRUE	Run as Sequence
PSTATMODEL	IQUANT	53	Pstat Model
PSTATSECTION	LABEL	IFC5000-01520	Pstat Section
PSTATSERIALNO	LABEL	01520	Pstat Serial Number
CTRLMODE	IQUANT	0	Control Mode
ELECTROMETER	IQUANT	1	RE=0 or CS=1
IESTAB	IQUANT	0	I/E Stability
CASPEED	IQUANT	4	Control Amp Speed
CONVENTION	IQUANT	1	Current Convention
ICHRANGE	IQUANT	2	Ich Range
ICHRANGEMODE	TOGGLE	T	Ich Auto Range
ICHOFFSETENABLE	TOGGLE	F	Ich Offset Enable
ICHOFFSET	QUANT	0	Ich Offset (V)
ICHFILTER	IQUANT	1	Ich Filter
VCHRANGE	IQUANT	2	Vch Range
VCHRANGEMODE	TOGGLE	T	Vch Auto Range
VCHOFFSETENABLE	TOGGLE	F	Vch Offset Enable
VCHOFFSET	QUANT	0	Vch Offset (V)
VCHFILTER	IQUANT	1	Vch Filter
IERANGELOWERLIMIT	IQUANT	9	I/E Range Lower Limit
IERANGEMODE	TOGGLE	F	I/E AutoRange
IERANGE	IQUANT	9	I/E Range
ACHSELECT	IQUANT	1	Ach Select
ACHRANGE	IQUANT	2	Ach Range
ACHOFFSETENABLE	TOGGLE	F	Ach Offset Enable
ACHOFFSET	QUANT	0	Ach Offset (V)
ACHFILTER	IQUANT	1	Ach Filter
CABLEID	IQUANT	14	Cable ID
DCCALDATE	LABEL	5-7-2017	DC Calibration Date
ACCALDATE	LABEL	12/3/2015	AC Calibration Date
FRAMEWORKVERSION	QUANT	7.01	Framework Version
INSTRUMENTVERSION	LABEL	4.00	Instrument Version
CURVE	TABLE	86
	Pt	T	Vf	Im	Vu	Pwr	Sig	Ach	Temp	IERange	Over
	#	s	V	A	V	W	V	V	deg C	#	bits
	0	0.013333	8.45538E-001	-9.92000E-005	0.00000E+000	-8.38773E-005	-5.99601E-002	8.45898E-001	3.57860E+000	9	...........
	1	0.026667	8.31265E-001	-9.88707E-005	0.00000E+000	-8.21878E-005	-5.99601E-002	8.31606E-001	3.57860E+000	9	...........
	2	0.04	8.17817E-001	-9.84477E-005	0.00000E+000	-8.05123E-005	-5.99601E-002	8.18142E-001	3.57860E+000	9	...........
	3	0.053333	8.04945E-001	-9.81445E-005	0.00000E+000	-7.90010E-005	-5.99601E-002	8.05231E-001	3.57860E+000	9	...........
	4	0.066667	7.92478E-001	-9.91896E-005	0.00000E+000	-7.86055E-005	-5.99601E-002	7.92744E-001	3.57860E+000	9	...........
	5	0.08	7.80279E-001	-9.88634E-005	0.00000E+000	-7.71410E-005	-5.99601E-002	7.80557E-001	3.57860E+000	9	...........
	6	0.093333	7.68294E-001	-9.92448E-005	0.00000E+000	-7.62492E-005	-5.99601E-002	7.68567E-001	3.57860E+000	9	...........
	7	0.106667	7.56467E-001	-9.83133E-005	0.00000E+000	-7.43708E-005	-5.99601E-002	7.56731E-001	3.57860E+000	9	...........
	8	0.12	7.44789E-001	-9.94740E-005	0.00000E+000	-7.40871E-005	-5.99601E-002	7.45053E-001	3.57860E+000	9	...........
	9	0.133333	7.33164E-001	-9.89145E-005	0.00000E+000	-7.25205E-005	-5.99601E-002	7.33431E-001	3.57860E+000	9	...........
	10	0.146667	7.21641E-001	-9.92708E-005	0.00000E+000	-7.16379E-005	-5.99601E-002	7.21905E-001	3.57860E+000	9	...........
	11	0.16	7.10146E-001	-9.95688E-005	0.00000E+000	-7.07084E-005	-5.99601E-002	7.10420E-001	3.57860E+000	9	...........
	12	0.173333	6.98737E-001	-9.89364E-005	0.00000E+000	-6.91305E-005	-5.99601E-002	6.98987E-001	3.57860E+000	9	...........
	13	0.186667	6.87327E-001	-9.89687E-005	0.00000E+000	-6.80238E-005	-5.99601E-002	6.87604E-001	3.57860E+000	9	...........
	14	0.2	6.75997E-001	-9.92760E-005	0.00000E+000	-6.71103E-005	-5.99601E-002	6.76253E-001	3.57860E+000	9	...........
	15	0.213333	6.64667E-001	-9.89822E-005	0.00000E+000	-6.57902E-005	-5.99601E-002	6.64910E-001	3.57860E+000	9	...........
	16	0.226667	6.53325E-001	-9.90843E-005	0.00000E+000	-6.47343E-005	-5.99601E-002	6.53624E-001	3.57860E+000	9	...........
	17	0.24	6.42050E-001	-9.88655E-005	0.00000E+000	-6.34766E-005	-5.99601E-002	6.42326E-001	3.57860E+000	9	...........
	18	0.253333	6.30777E-001	-9.93115E-005	0.00000E+000	-6.26434E-005	-5.99601E-002	6.31042E-001	3.57860E+000	9	...........
	19	0.266667	6.19564E-001	-9.97511E-005	0.00000E+000	-6.18022E-005	-5.99601E-002	6.19803E-001	3.57860E+000	9	...........
	20	0.28	6.08272E-001	-9.91520E-005	0.00000E+000	-6.03115E-005	-5.99601E-002	6.08593E-001	3.57860E+000	9	...........
	21	0.293333	5.97125E-001	-9.90864E-005	0.00000E+000	-5.91669E-005	-5.99601E-002	5.97397E-001	3.57860E+000	9	...........
	22	0.306667	5.85949E-001	-9.74631E-005	0.00000E+000	-5.71085E-005	-5.99601E-002	5.86222E-001	3.57860E+000	9	...........
	23	0.32	5.74810E-001	-9.81768E-005	0.00000E+000	-5.64330E-005	-5.99601E-002	5.75068E-001	3.57860E+000	9	...........
	24	0.333333	5.63725E-001	-9.85780E-005	0.00000E+000	-5.55708E-005	-5.99601E-002	5.64003E-001	3.57860E+000	9	...........
	25	0.346667	5.52659E-001	-9.87009E-005	0.00000E+000	-5.45480E-005	-5.99601E-002	5.52919E-001	3.57860E+000	9	...........
	26	0.36	5.41639E-001	-9.88593E-005	0.00000E+000	-5.35460E-005	-5.99601E-002	5.41926E-001	3.57860E+000	9	...........
	27	0.373333	5.30665E-001	-9.84373E-005	0.00000E+000	-5.22372E-005	-5.99601E-002	5.30915E-001	3.57860E+000	9	...........
	28	0.386667	5.19728E-001	-9.90031E-005	0.00000E+000	-5.14547E-005	-5.99601E-002	5.20002E-001	3.57860E+000	9	...........
	29	0.4	5.08839E-001	-9.84894E-005	0.00000E+000	-5.01153E-005	-5.99601E-002	5.09113E-001	3.57860E+000	9	...........
	30	0.413333	4.98003E-001	-9.91875E-005	0.00000E+000	-4.93957E-005	-5.99601E-002	4.98299E-001	3.57871E+000	9	...........
	31	0.426667	4.87354E-001	-9.89708E-005	0.00000E+000	-4.82337E-005	-5.99601E-002	4.87559E-001	3.57950E+000	9	...........
	32	0.44	4.76946E-001	-9.93875E-005	0.00000E+000	-4.74025E-005	-5.99601E-002	4.77046E-001	3.57950E+000	9	...........
	33	0.453333	4.66310E-001	-9.89958E-005	0.00000E+000	-4.61627E-005	-5.99601E-002	4.66408E-001	3.57950E+000	9	...........
	34	0.466667	4.55738E-001	-9.93156E-005	0.00000E+000	-4.52619E-005	-5.99601E-002	4.55835E-001	3.57950E+000	9	...........
	35	0.48	4.45234E-001	-9.95125E-005	0.00000E+000	-4.43063E-005	-5.99601E-002	4.45331E-001	3.57950E+000	9	...........
	36	0.493333	4.34798E-001	-9.92823E-005	0.00000E+000	-4.31677E-005	-5.99601E-002	4.34893E-001	3.57950E+000	9	...........
	37	0.506667	4.24432E-001	-9.94396E-005	0.00000E+000	-4.22054E-005	-5.99601E-002	4.24524E-001	3.57950E+000	9	...........
	38	0.52	4.14142E-001	-9.81049E-005	0.00000E+000	-4.06294E-005	-5.99601E-002	4.14224E-001	3.57950E+000	9	...........
	39	0.533333	4.03911E-001	-9.87957E-005	0.00000E+000	-3.99047E-005	-5.99601E-002	4.03993E-001	3.57950E+000	9	...........
	40	0.546667	3.93744E-001	-9.98230E-005	0.00000E+000	-3.93047E-005	-5.99601E-002	3.93823E-001	3.57950E+000	9	...........
	41	0.56	3.83656E-001	-9.87499E-005	0.00000E+000	-3.78860E-005	-5.99601E-002	3.83722E-001	3.57950E+000	9	...........
	42	0.573333	3.73631E-001	-9.86092E-005	0.00000E+000	-3.68435E-005	-5.99601E-002	3.73698E-001	3.57950E+000	9	...........
	43	0.586667	3.63666E-001	-9.86467E-005	0.00000E+000	-3.58744E-005	-5.99601E-002	3.63734E-001	3.57950E+000	9	...........
	44	0.6	3.53765E-001	-9.93781E-005	0.00000E+000	-3.51566E-005	-5.99601E-002	3.53829E-001	3.57950E+000	9	...........
	45	0.613333	3.43926E-001	-9.88614E-005	0.00000E+000	-3.40010E-005	-5.99601E-002	3.43994E-001	3.57950E+000	9	...........
	46	0.626667	3.34151E-001	-9.90437E-005	0.00000E+000	-3.30955E-005	-5.99601E-002	3.34212E-001	3.57950E+000	9	...........
	47	0.64	3.24438E-001	-9.88322E-005	0.00000E+000	-3.20650E-005	-5.99601E-002	3.24496E-001	3.57950E+000	9	...........
	48	0.653333	3.14779E-001	-9.90124E-005	0.00000E+000	-3.11671E-005	-5.99601E-002	3.14838E-001	3.57950E+000	9	...........
	49	0.666667	3.05175E-001	-9.83946E-005	0.00000E+000	-3.00276E-005	-5.99601E-002	3.05229E-001	3.57950E+000	9	...........
	50	0.68	2.95631E-001	-9.80331E-005	0.00000E+000	-2.89816E-005	-5.99601E-002	2.95679E-001	3.57950E+000	9	...........
	51	0.693333	2.86136E-001	-9.86634E-005	0.00000E+000	-2.82312E-005	-5.99601E-002	2.86190E-001	3.57950E+000	9	...........
	52	0.706667	2.76695E-001	-9.84894E-005	0.00000E+000	-2.72516E-005	-5.99601E-002	2.76741E-001	3.57950E+000	9	...........
	53	0.72	2.67301E-001	-9.86728E-005	0.00000E+000	-2.63754E-005	-5.99601E-002	2.67352E-001	3.57950E+000	9	...........
	54	0.733333	2.57958E-001	-9.83644E-005	0.00000E+000	-2.53739E-005	-5.99601E-002	2.58009E-001	3.57950E+000	9	...........
	55	0.746667	2.48672E-001	-9.94011E-005	0.00000E+000	-2.47182E-005	-5.99601E-002	2.48715E-001	3.57950E+000	9	...........
	56	0.76	2.39437E-001	-9.88145E-005	0.00000E+000	-2.36599E-005	-5.99601E-002	2.39477E-001	3.57950E+000	9	...........
	57	0.773333	2.30249E-001	-9.90937E-005	0.00000E+000	-2.28162E-005	-5.99601E-002	2.30284E-001	3.57950E+000	9	...........
	58	0.786667	2.21108E-001	-9.89697E-005	0.00000E+000	-2.18830E-005	-5.99601E-002	2.21151E-001	3.57950E+000	9	...........
	59	0.8	2.12032E-001	-9.85352E-005	0.00000E+000	-2.08926E-005	-5.99601E-002	2.12067E-001	3.57950E+000	9	...........
	60	0.813333	2.03004E-001	-9.82842E-005	0.00000E+000	-1.99521E-005	-5.99601E-002	2.03038E-001	3.57950E+000	9	...........
	61	0.826667	1.94040E-001	-9.89708E-005	0.00000E+000	-1.92043E-005	-5.99601E-002	1.94066E-001	3.57950E+000	9	...........
	62	0.84	1.85132E-001	-9.83248E-005	0.00000E+000	-1.82031E-005	-5.99601E-002	1.85159E-001	3.57950E+000	9	...........
	63	0.853333	1.76280E-001	-9.87790E-005	0.00000E+000	-1.74128E-005	-5.99601E-002	1.76310E-001	3.57950E+000	9	...........
	64	0.866667	1.67498E-001	-9.94396E-005	0.00000E+000	-1.66559E-005	-5.99601E-002	1.67527E-001	3.57950E+000	9	...........
	65	0.88	1.58784E-001	-9.73694E-005	0.00000E+000	-1.54607E-005	-5.99601E-002	1.58805E-001	3.57950E+000	9	...........
	66	0.893333	1.50139E-001	-9.86728E-005	0.00000E+000	-1.48146E-005	-5.99601E-002	1.50153E-001	3.57950E+000	9	...........
	67	0.906667	1.41561E-001	-9.93677E-005	0.00000E+000	-1.40666E-005	-5.99601E-002	1.41574E-001	3.57950E+000	9	...........
	68	0.92	1.33058E-001	-9.84415E-005	0.00000E+000	-1.30984E-005	-5.99601E-002	1.33073E-001	3.57950E+000	9	...........
	69	0.933333	1.24630E-001	-9.86436E-005	0.00000E+000	-1.22939E-005	-5.99601E-002	1.24643E-001	3.57950E+000	9	...........
	70	0.946667	1.16277E-001	-9.83165E-005	0.00000E+000	-1.14319E-005	-5.99601E-002	1.16287E-001	3.57950E+000	9	...........
	71	0.96	1.07997E-001	-9.81143E-005	0.00000E+000	-1.05960E-005	-5.99601E-002	1.08013E-001	3.57950E+000	9	...........
	72	0.97333	9.97970E-002	-9.84811E-005	0.00000E+000	-9.82811E-006	-5.99601E-002	9.98094E-002	3.57950E+000	9	...........
	73	0.98667	9.16731E-002	-9.90624E-005	0.00000E+000	-9.08136E-006	-5.99601E-002	9.16824E-002	3.57950E+000	9	...........
	74	1	8.36276E-002	-9.84738E-005	0.00000E+000	-8.23512E-006	-5.99601E-002	8.36291E-002	3.57950E+000	9	...........
	75	1.01333	7.56519E-002	-9.92344E-005	0.00000E+000	-7.50727E-006	-5.99601E-002	7.56502E-002	3.57950E+000	9	...........
	76	1.02667	6.77456E-002	-9.81414E-005	0.00000E+000	-6.64865E-006	-5.99601E-002	6.77418E-002	3.57950E+000	9	...........
	77	1.04	5.99112E-002	-9.96553E-005	0.00000E+000	-5.97047E-006	-5.99601E-002	5.99029E-002	3.57950E+000	9	...........
	78	1.05333	5.21511E-002	-9.96042E-005	0.00000E+000	-5.19447E-006	-5.99601E-002	5.21429E-002	3.57950E+000	9	...........
	79	1.06667	4.44981E-002	-9.97740E-005	0.00000E+000	-4.43975E-006	-5.99601E-002	4.44817E-002	3.57950E+000	9	...........
	80	1.08	3.68700E-002	-9.95188E-005	0.00000E+000	-3.66926E-006	-5.99601E-002	3.68573E-002	3.57950E+000	9	...........
	81	1.09333	2.93147E-002	-9.83852E-005	0.00000E+000	-2.88413E-006	-5.99601E-002	2.92970E-002	3.57950E+000	9	...........
	82	1.10667	2.18239E-002	-1.00056E-004	0.00000E+000	-2.18362E-006	-5.99601E-002	2.18040E-002	3.57950E+000	9	...........
	83	1.12	1.44029E-002	-9.86634E-005	0.00000E+000	-1.42103E-006	-5.99601E-002	1.43782E-002	3.57950E+000	9	...........
	84	1.13333	7.04770E-003	-9.90666E-005	0.00000E+000	-6.98191E-007	-5.99601E-002	7.01954E-003	3.57950E+000	9	...........
	85	1.14167	1.12046E-003	-9.92321E-005	0.00000E+000	-1.11186E-007	-5.99601E-002	1.08163E-003	3.57950E+000	9	...........
STARTTIMEOFFSET	QUANT	1963.045	Start Time Offset (s)
