EXPLAIN
TAG	PWR800_DISCHARGE
TITLE	LABEL	PWR Cyclic Charge Discharge (Cell) - Discharge Step	Test &Identifier
DATE	LABEL	13-7-2017	Date
TIME	LABEL	15:54:53	Time
NOTES	NOTES	2	&Notes...
	supercap test cell
	6M KOH
PSTAT	PSTAT	IFC5000-01520	Potentiostat
CAPACITY	QUANT	1.00000E-003	Capacity (A-hr)
CELLTYPE	SELECTOR	1	&Cell Type
WORKINGCONNECTION	SELECTOR	0	&Working Lead
MAXDISCHARGETIME	VARIABLEANDUNITS	1.00000E+002	s	1.00000E+002	second(s)	Max &Discharge Time
DISCHARGEMODE	MULTIPARAM	0	1.00000E-004	&Discharge Mode	Constant Current	Amp(s)
SAMPLETIME	QUANT	1.00000E-002	Sa&mple Period (s)
DISCHARGESTOPAT1	MULTIPARAM	3	0.00000E+000	Discharge Stop At &1	Voltage < Limit	V
DISCHARGESTOPAT2	MULTIPARAM	0	0.00000E+000	Discharge Stop At &2	None	N/A
AESBHCSELECTOR	TOGGLE	F	Save Both Half Cells
IRCOMP	TOGGLE	F	IR &Measure
EOC	QUANT	0	Open Circuit (V)
SEQUENCER	TOGGLE	TRUE	Run as Sequence
PSTATMODEL	IQUANT	53	Pstat Model
PSTATSECTION	LABEL	IFC5000-01520	Pstat Section
PSTATSERIALNO	LABEL	01520	Pstat Serial Number
CTRLMODE	IQUANT	0	Control Mode
ELECTROMETER	IQUANT	1	RE=0 or CS=1
IESTAB	IQUANT	0	I/E Stability
CASPEED	IQUANT	4	Control Amp Speed
CONVENTION	IQUANT	1	Current Convention
ICHRANGE	IQUANT	2	Ich Range
ICHRANGEMODE	TOGGLE	T	Ich Auto Range
ICHOFFSETENABLE	TOGGLE	F	Ich Offset Enable
ICHOFFSET	QUANT	0	Ich Offset (V)
ICHFILTER	IQUANT	1	Ich Filter
VCHRANGE	IQUANT	2	Vch Range
VCHRANGEMODE	TOGGLE	T	Vch Auto Range
VCHOFFSETENABLE	TOGGLE	F	Vch Offset Enable
VCHOFFSET	QUANT	0	Vch Offset (V)
VCHFILTER	IQUANT	1	Vch Filter
IERANGELOWERLIMIT	IQUANT	9	I/E Range Lower Limit
IERANGEMODE	TOGGLE	F	I/E AutoRange
IERANGE	IQUANT	9	I/E Range
ACHSELECT	IQUANT	1	Ach Select
ACHRANGE	IQUANT	2	Ach Range
ACHOFFSETENABLE	TOGGLE	F	Ach Offset Enable
ACHOFFSET	QUANT	0	Ach Offset (V)
ACHFILTER	IQUANT	1	Ach Filter
CABLEID	IQUANT	14	Cable ID
DCCALDATE	LABEL	5-7-2017	DC Calibration Date
ACCALDATE	LABEL	12/3/2015	AC Calibration Date
FRAMEWORKVERSION	QUANT	7.01	Framework Version
INSTRUMENTVERSION	LABEL	4.00	Instrument Version
CURVE	TABLE	85
	Pt	T	Vf	Im	Vu	Pwr	Sig	Ach	Temp	IERange	Over
	#	s	V	A	V	W	V	V	deg C	#	bits
	0	0.013333	8.44740E-001	-9.99251E-005	0.00000E+000	-8.44107E-005	-5.99601E-002	8.45089E-001	3.57910E+000	9	...........
	1	0.026667	8.30455E-001	-9.92344E-005	0.00000E+000	-8.24096E-005	-5.99601E-002	8.30800E-001	3.57910E+000	9	...........
	2	0.04	8.16991E-001	-9.93240E-005	0.00000E+000	-8.11468E-005	-5.99601E-002	8.17348E-001	3.57910E+000	9	...........
	3	0.053333	8.04091E-001	-9.89280E-005	0.00000E+000	-7.95472E-005	-5.99601E-002	8.04410E-001	3.57910E+000	9	...........
	4	0.066667	7.91544E-001	-9.88436E-005	0.00000E+000	-7.82391E-005	-5.99601E-002	7.91847E-001	3.57910E+000	9	...........
	5	0.08	7.79274E-001	-9.91927E-005	0.00000E+000	-7.72983E-005	-5.99601E-002	7.79575E-001	3.57910E+000	9	...........
	6	0.093333	7.67200E-001	-9.87634E-005	0.00000E+000	-7.57713E-005	-5.99601E-002	7.67492E-001	3.57910E+000	9	...........
	7	0.106667	7.55293E-001	-9.73215E-005	0.00000E+000	-7.35062E-005	-5.99601E-002	7.55557E-001	3.57910E+000	9	...........
	8	0.12	7.43476E-001	-9.86957E-005	0.00000E+000	-7.33779E-005	-5.99601E-002	7.43766E-001	3.57910E+000	9	...........
	9	0.133333	7.31766E-001	-9.88770E-005	0.00000E+000	-7.23548E-005	-5.99601E-002	7.32029E-001	3.57910E+000	9	...........
	10	0.146667	7.20125E-001	-9.85040E-005	0.00000E+000	-7.09352E-005	-5.99601E-002	7.20373E-001	3.57910E+000	9	...........
	11	0.16	7.08485E-001	-9.85207E-005	0.00000E+000	-6.98004E-005	-5.99601E-002	7.08766E-001	3.57910E+000	9	...........
	12	0.173333	6.96944E-001	-9.85582E-005	0.00000E+000	-6.86895E-005	-5.99601E-002	6.97218E-001	3.57910E+000	9	...........
	13	0.186667	6.85408E-001	-9.84613E-005	0.00000E+000	-6.74862E-005	-5.99601E-002	6.85682E-001	3.57910E+000	9	...........
	14	0.2	6.73931E-001	-9.89207E-005	0.00000E+000	-6.66657E-005	-5.99601E-002	6.74187E-001	3.57910E+000	9	...........
	15	0.213333	6.62430E-001	-9.84300E-005	0.00000E+000	-6.52030E-005	-5.99601E-002	6.62715E-001	3.57910E+000	9	...........
	16	0.226667	6.50986E-001	-9.91020E-005	0.00000E+000	-6.45140E-005	-5.99601E-002	6.51272E-001	3.57910E+000	9	...........
	17	0.24	6.39560E-001	-9.93208E-005	0.00000E+000	-6.35217E-005	-5.99601E-002	6.39836E-001	3.57910E+000	9	...........
	18	0.253333	6.28165E-001	-9.93219E-005	0.00000E+000	-6.23905E-005	-5.99601E-002	6.28451E-001	3.57910E+000	9	...........
	19	0.266667	6.16792E-001	-9.92885E-005	0.00000E+000	-6.12404E-005	-5.99601E-002	6.17083E-001	3.57910E+000	9	...........
	20	0.28	6.05418E-001	-9.95313E-005	0.00000E+000	-6.02580E-005	-5.99601E-002	6.05728E-001	3.57910E+000	9	...........
	21	0.293333	5.94149E-001	-9.86186E-005	0.00000E+000	-5.85941E-005	-5.99601E-002	5.94417E-001	3.57910E+000	9	...........
	22	0.306667	5.82849E-001	-9.94511E-005	0.00000E+000	-5.79650E-005	-5.99601E-002	5.83115E-001	3.57910E+000	9	...........
	23	0.32	5.71601E-001	-9.94125E-005	0.00000E+000	-5.68243E-005	-5.99601E-002	5.71870E-001	3.57910E+000	9	...........
	24	0.333333	5.60384E-001	-9.90551E-005	0.00000E+000	-5.55089E-005	-5.99601E-002	5.60650E-001	3.57910E+000	9	...........
	25	0.346667	5.49206E-001	-9.85457E-005	0.00000E+000	-5.41218E-005	-5.99601E-002	5.49450E-001	3.57910E+000	9	...........
	26	0.36	5.38080E-001	-9.95292E-005	0.00000E+000	-5.35547E-005	-5.99601E-002	5.38330E-001	3.57910E+000	9	...........
	27	0.373333	5.27001E-001	-9.82352E-005	0.00000E+000	-5.17701E-005	-5.99601E-002	5.27230E-001	3.57910E+000	9	...........
	28	0.386667	5.15972E-001	-9.83290E-005	0.00000E+000	-5.07350E-005	-5.99601E-002	5.16231E-001	3.57910E+000	9	...........
	29	0.4	5.04957E-001	-9.83685E-005	0.00000E+000	-4.96719E-005	-5.99601E-002	5.05235E-001	3.57910E+000	9	...........
	30	0.413333	4.94059E-001	-9.91864E-005	0.00000E+000	-4.90039E-005	-5.99601E-002	4.94335E-001	3.57910E+000	9	...........
	31	0.426667	4.83446E-001	-9.94948E-005	0.00000E+000	-4.81003E-005	-5.99601E-002	4.83591E-001	3.57910E+000	9	...........
	32	0.44	4.72807E-001	-9.91020E-005	0.00000E+000	-4.68562E-005	-5.99601E-002	4.72902E-001	3.57910E+000	9	...........
	33	0.453333	4.62089E-001	-9.88509E-005	0.00000E+000	-4.56779E-005	-5.99601E-002	4.62182E-001	3.57910E+000	9	...........
	34	0.466667	4.51445E-001	-9.95969E-005	0.00000E+000	-4.49625E-005	-5.99601E-002	4.51539E-001	3.57910E+000	9	...........
	35	0.48	4.40867E-001	-9.81498E-005	0.00000E+000	-4.32710E-005	-5.99601E-002	4.40960E-001	3.57910E+000	9	...........
	36	0.493333	4.30364E-001	-9.84102E-005	0.00000E+000	-4.23522E-005	-5.99601E-002	4.30447E-001	3.57910E+000	9	...........
	37	0.506667	4.19928E-001	-9.90333E-005	0.00000E+000	-4.15869E-005	-5.99601E-002	4.20015E-001	3.57910E+000	9	...........
	38	0.52	4.09574E-001	-9.92771E-005	0.00000E+000	-4.06613E-005	-5.99601E-002	4.09651E-001	3.57910E+000	9	...........
	39	0.533333	3.99285E-001	-9.91177E-005	0.00000E+000	-3.95762E-005	-5.99601E-002	3.99362E-001	3.57910E+000	9	...........
	40	0.546667	3.89068E-001	-9.92687E-005	0.00000E+000	-3.86223E-005	-5.99601E-002	3.89141E-001	3.57910E+000	9	...........
	41	0.56	3.78924E-001	-9.92333E-005	0.00000E+000	-3.76019E-005	-5.99601E-002	3.78992E-001	3.57910E+000	9	...........
	42	0.573333	3.68844E-001	-9.97126E-005	0.00000E+000	-3.67783E-005	-5.99601E-002	3.68915E-001	3.57910E+000	9	...........
	43	0.586667	3.58837E-001	-9.81779E-005	0.00000E+000	-3.52299E-005	-5.99601E-002	3.58902E-001	3.57910E+000	9	...........
	44	0.6	3.48891E-001	-9.92375E-005	0.00000E+000	-3.46231E-005	-5.99601E-002	3.48954E-001	3.57910E+000	9	...........
	45	0.613333	3.39009E-001	-9.82560E-005	0.00000E+000	-3.33097E-005	-5.99601E-002	3.39074E-001	3.57910E+000	9	...........
	46	0.626667	3.29191E-001	-9.77382E-005	0.00000E+000	-3.21746E-005	-5.99601E-002	3.29255E-001	3.57910E+000	9	...........
	47	0.64	3.19439E-001	-9.90135E-005	0.00000E+000	-3.16288E-005	-5.99601E-002	3.19497E-001	3.57910E+000	9	...........
	48	0.653333	3.09735E-001	-9.79726E-005	0.00000E+000	-3.03456E-005	-5.99601E-002	3.09794E-001	3.57910E+000	9	...........
	49	0.666667	3.00098E-001	-9.95396E-005	0.00000E+000	-2.98716E-005	-5.99601E-002	3.00151E-001	3.57910E+000	9	...........
	50	0.68	2.90512E-001	-9.98803E-005	0.00000E+000	-2.90165E-005	-5.99601E-002	2.90565E-001	3.57910E+000	9	...........
	51	0.693333	2.80988E-001	-9.87999E-005	0.00000E+000	-2.77616E-005	-5.99601E-002	2.81044E-001	3.57910E+000	9	...........
	52	0.706667	2.71514E-001	-9.82831E-005	0.00000E+000	-2.66852E-005	-5.99601E-002	2.71558E-001	3.57910E+000	9	...........
	53	0.72	2.62086E-001	-9.84477E-005	0.00000E+000	-2.58018E-005	-5.99601E-002	2.62146E-001	3.57910E+000	9	...........
	54	0.733333	2.52723E-001	-9.90801E-005	0.00000E+000	-2.50398E-005	-5.99601E-002	2.52771E-001	3.57910E+000	9	...........
	55	0.746667	2.43403E-001	-9.91343E-005	0.00000E+000	-2.41296E-005	-5.99601E-002	2.43450E-001	3.57966E+000	9	...........
	56	0.76	2.34146E-001	-9.89187E-005	0.00000E+000	-2.31614E-005	-5.99601E-002	2.34188E-001	3.58000E+000	9	...........
	57	0.773333	2.24939E-001	-1.00001E-004	0.00000E+000	-2.24942E-005	-5.99601E-002	2.24974E-001	3.58000E+000	9	...........
	58	0.786667	2.15786E-001	-9.94459E-005	0.00000E+000	-2.14590E-005	-5.99601E-002	2.15822E-001	3.58000E+000	9	...........
	59	0.8	2.06693E-001	-9.82956E-005	0.00000E+000	-2.03170E-005	-5.99601E-002	2.06723E-001	3.58000E+000	9	...........
	60	0.813333	1.97653E-001	-9.93990E-005	0.00000E+000	-1.96465E-005	-5.99601E-002	1.97686E-001	3.58000E+000	9	...........
	61	0.826667	1.88676E-001	-9.97417E-005	0.00000E+000	-1.88189E-005	-5.99601E-002	1.88704E-001	3.58000E+000	9	...........
	62	0.84	1.79761E-001	-9.90072E-005	0.00000E+000	-1.77977E-005	-5.99601E-002	1.79784E-001	3.58000E+000	9	...........
	63	0.853333	1.70912E-001	-9.93958E-005	0.00000E+000	-1.69879E-005	-5.99601E-002	1.70934E-001	3.58000E+000	9	...........
	64	0.866667	1.62130E-001	-9.91698E-005	0.00000E+000	-1.60784E-005	-5.99601E-002	1.62153E-001	3.58000E+000	9	...........
	65	0.88	1.53421E-001	-9.93688E-005	0.00000E+000	-1.52453E-005	-5.99601E-002	1.53438E-001	3.58000E+000	9	...........
	66	0.893333	1.44787E-001	-9.91031E-005	0.00000E+000	-1.43489E-005	-5.99601E-002	1.44801E-001	3.58000E+000	9	...........
	67	0.906667	1.36217E-001	-9.98709E-005	0.00000E+000	-1.36041E-005	-5.99601E-002	1.36230E-001	3.58000E+000	9	...........
	68	0.92	1.27731E-001	-9.87551E-005	0.00000E+000	-1.26141E-005	-5.99601E-002	1.27739E-001	3.58000E+000	9	...........
	69	0.933333	1.19313E-001	-9.85425E-005	0.00000E+000	-1.17574E-005	-5.99601E-002	1.19328E-001	3.58000E+000	9	...........
	70	0.946667	1.10979E-001	-9.96761E-005	0.00000E+000	-1.10620E-005	-5.99601E-002	1.10981E-001	3.58000E+000	9	...........
	71	0.96	1.02716E-001	-9.96980E-005	0.00000E+000	-1.02406E-005	-5.99601E-002	1.02720E-001	3.58000E+000	9	...........
	72	0.97333	9.45349E-002	-9.84811E-005	0.00000E+000	-9.30990E-006	-5.99601E-002	9.45372E-002	3.58000E+000	9	...........
	73	0.98667	8.64297E-002	-9.92666E-005	0.00000E+000	-8.57959E-006	-5.99601E-002	8.64302E-002	3.58000E+000	9	...........
	74	1	7.84022E-002	-9.88072E-005	0.00000E+000	-7.74670E-006	-5.99601E-002	7.83988E-002	3.58000E+000	9	...........
	75	1.01333	7.04438E-002	-9.90281E-005	0.00000E+000	-6.97591E-006	-5.99601E-002	7.04386E-002	3.58000E+000	9	...........
	76	1.02667	6.25654E-002	-9.95500E-005	0.00000E+000	-6.22838E-006	-5.99601E-002	6.25561E-002	3.58000E+000	9	...........
	77	1.04	5.47533E-002	-9.85446E-005	0.00000E+000	-5.39565E-006	-5.99601E-002	5.47441E-002	3.58000E+000	9	...........
	78	1.05333	4.70361E-002	-9.88301E-005	0.00000E+000	-4.64858E-006	-5.99601E-002	4.70282E-002	3.58000E+000	9	...........
	79	1.06667	3.93796E-002	-9.99095E-005	0.00000E+000	-3.93440E-006	-5.99601E-002	3.93676E-002	3.58000E+000	9	...........
	80	1.08	3.17812E-002	-9.85227E-005	0.00000E+000	-3.13117E-006	-5.99601E-002	3.17680E-002	3.58000E+000	9	...........
	81	1.09333	2.42481E-002	-9.88749E-005	0.00000E+000	-2.39753E-006	-5.99601E-002	2.42244E-002	3.58000E+000	9	...........
	82	1.10667	1.67782E-002	-9.80997E-005	0.00000E+000	-1.64594E-006	-5.99601E-002	1.67568E-002	3.58000E+000	9	...........
	83	1.12	9.37859E-003	-9.91104E-005	0.00000E+000	-9.29515E-007	-5.99601E-002	9.35121E-003	3.58000E+000	9	...........
	84	1.13167	2.50249E-003	-9.92509E-005	0.00000E+000	-2.48375E-007	-5.99601E-002	2.46609E-003	3.58000E+000	9	...........
STARTTIMEOFFSET	QUANT	2386.571	Start Time Offset (s)
