EXPLAIN
TAG	PWR800_DISCHARGE
TITLE	LABEL	PWR Cyclic Charge Discharge (Cell) - Discharge Step	Test &Identifier
DATE	LABEL	13-7-2017	Date
TIME	LABEL	15:44:34	Time
NOTES	NOTES	2	&Notes...
	supercap test cell
	6M KOH
PSTAT	PSTAT	IFC5000-01520	Potentiostat
CAPACITY	QUANT	1.00000E-003	Capacity (A-hr)
CELLTYPE	SELECTOR	1	&Cell Type
WORKINGCONNECTION	SELECTOR	0	&Working Lead
MAXDISCHARGETIME	VARIABLEANDUNITS	1.00000E+002	s	1.00000E+002	second(s)	Max &Discharge Time
DISCHARGEMODE	MULTIPARAM	0	1.00000E-004	&Discharge Mode	Constant Current	Amp(s)
SAMPLETIME	QUANT	1.00000E-002	Sa&mple Period (s)
DISCHARGESTOPAT1	MULTIPARAM	3	0.00000E+000	Discharge Stop At &1	Voltage < Limit	V
DISCHARGESTOPAT2	MULTIPARAM	0	0.00000E+000	Discharge Stop At &2	None	N/A
AESBHCSELECTOR	TOGGLE	F	Save Both Half Cells
IRCOMP	TOGGLE	F	IR &Measure
EOC	QUANT	0	Open Circuit (V)
SEQUENCER	TOGGLE	TRUE	Run as Sequence
PSTATMODEL	IQUANT	53	Pstat Model
PSTATSECTION	LABEL	IFC5000-01520	Pstat Section
PSTATSERIALNO	LABEL	01520	Pstat Serial Number
CTRLMODE	IQUANT	0	Control Mode
ELECTROMETER	IQUANT	1	RE=0 or CS=1
IESTAB	IQUANT	0	I/E Stability
CASPEED	IQUANT	4	Control Amp Speed
CONVENTION	IQUANT	1	Current Convention
ICHRANGE	IQUANT	2	Ich Range
ICHRANGEMODE	TOGGLE	T	Ich Auto Range
ICHOFFSETENABLE	TOGGLE	F	Ich Offset Enable
ICHOFFSET	QUANT	0	Ich Offset (V)
ICHFILTER	IQUANT	1	Ich Filter
VCHRANGE	IQUANT	2	Vch Range
VCHRANGEMODE	TOGGLE	T	Vch Auto Range
VCHOFFSETENABLE	TOGGLE	F	Vch Offset Enable
VCHOFFSET	QUANT	0	Vch Offset (V)
VCHFILTER	IQUANT	1	Vch Filter
IERANGELOWERLIMIT	IQUANT	9	I/E Range Lower Limit
IERANGEMODE	TOGGLE	F	I/E AutoRange
IERANGE	IQUANT	9	I/E Range
ACHSELECT	IQUANT	1	Ach Select
ACHRANGE	IQUANT	2	Ach Range
ACHOFFSETENABLE	TOGGLE	F	Ach Offset Enable
ACHOFFSET	QUANT	0	Ach Offset (V)
ACHFILTER	IQUANT	1	Ach Filter
CABLEID	IQUANT	14	Cable ID
DCCALDATE	LABEL	5-7-2017	DC Calibration Date
ACCALDATE	LABEL	12/3/2015	AC Calibration Date
FRAMEWORKVERSION	QUANT	7.01	Framework Version
INSTRUMENTVERSION	LABEL	4.00	Instrument Version
CURVE	TABLE	86
	Pt	T	Vf	Im	Vu	Pwr	Sig	Ach	Temp	IERange	Over
	#	s	V	A	V	W	V	V	deg C	#	bits
	0	0.013333	8.45379E-001	-9.91124E-005	0.00000E+000	-8.37876E-005	-5.99601E-002	8.45749E-001	3.57990E+000	9	...........
	1	0.026667	8.31084E-001	-9.87790E-005	0.00000E+000	-8.20936E-005	-5.99601E-002	8.31445E-001	3.57990E+000	9	...........
	2	0.04	8.17637E-001	-9.87186E-005	0.00000E+000	-8.07160E-005	-5.99601E-002	8.17997E-001	3.57990E+000	9	...........
	3	0.053333	8.04773E-001	-9.87988E-005	0.00000E+000	-7.95106E-005	-5.99601E-002	8.05108E-001	3.57990E+000	9	...........
	4	0.066667	7.92291E-001	-9.98157E-005	0.00000E+000	-7.90830E-005	-5.99601E-002	7.92611E-001	3.57990E+000	9	...........
	5	0.08	7.80120E-001	-9.93813E-005	0.00000E+000	-7.75293E-005	-5.99601E-002	7.80415E-001	3.57990E+000	9	...........
	6	0.093333	7.68143E-001	-9.87655E-005	0.00000E+000	-7.58660E-005	-5.99601E-002	7.68456E-001	3.57990E+000	9	...........
	7	0.106667	7.56348E-001	-9.92479E-005	0.00000E+000	-7.50660E-005	-5.99601E-002	7.56650E-001	3.57990E+000	9	...........
	8	0.12	7.44645E-001	-9.83227E-005	0.00000E+000	-7.32155E-005	-5.99601E-002	7.44960E-001	3.57990E+000	9	...........
	9	0.133333	7.33055E-001	-9.96563E-005	0.00000E+000	-7.30535E-005	-5.99601E-002	7.33364E-001	3.57990E+000	9	...........
	10	0.146667	7.21542E-001	-9.87134E-005	0.00000E+000	-7.12259E-005	-5.99601E-002	7.21825E-001	3.57990E+000	9	...........
	11	0.16	7.10065E-001	-9.90385E-005	0.00000E+000	-7.03238E-005	-5.99601E-002	7.10356E-001	3.57990E+000	9	...........
	12	0.173333	6.98641E-001	-9.91020E-005	0.00000E+000	-6.92367E-005	-5.99601E-002	6.98965E-001	3.57990E+000	9	...........
	13	0.186667	6.87260E-001	-9.85071E-005	0.00000E+000	-6.77000E-005	-5.99601E-002	6.87555E-001	3.57990E+000	9	...........
	14	0.2	6.75939E-001	-9.83696E-005	0.00000E+000	-6.64918E-005	-5.99601E-002	6.76210E-001	3.57990E+000	9	...........
	15	0.213333	6.64613E-001	-9.93802E-005	0.00000E+000	-6.60494E-005	-5.99601E-002	6.64892E-001	3.57990E+000	9	...........
	16	0.226667	6.53317E-001	-9.79716E-005	0.00000E+000	-6.40065E-005	-5.99601E-002	6.53584E-001	3.57990E+000	9	...........
	17	0.24	6.42016E-001	-9.90291E-005	0.00000E+000	-6.35783E-005	-5.99601E-002	6.42292E-001	3.57920E+000	9	...........
	18	0.253333	6.30781E-001	-9.84040E-005	0.00000E+000	-6.20713E-005	-5.99601E-002	6.31037E-001	3.57850E+000	9	...........
	19	0.266667	6.19590E-001	-9.90718E-005	0.00000E+000	-6.13840E-005	-5.99601E-002	6.19838E-001	3.57850E+000	9	...........
	20	0.28	6.08331E-001	-9.88186E-005	0.00000E+000	-6.01145E-005	-5.99601E-002	6.08621E-001	3.57850E+000	9	...........
	21	0.293333	5.97170E-001	-9.87384E-005	0.00000E+000	-5.89636E-005	-5.99601E-002	5.97441E-001	3.57850E+000	9	...........
	22	0.306667	5.86011E-001	-9.86103E-005	0.00000E+000	-5.77866E-005	-5.99601E-002	5.86276E-001	3.57850E+000	9	...........
	23	0.32	5.74913E-001	-9.95188E-005	0.00000E+000	-5.72146E-005	-5.99601E-002	5.75163E-001	3.57850E+000	9	...........
	24	0.333333	5.63824E-001	-9.86905E-005	0.00000E+000	-5.56440E-005	-5.99601E-002	5.64077E-001	3.57850E+000	9	...........
	25	0.346667	5.52759E-001	-9.94636E-005	0.00000E+000	-5.49794E-005	-5.99601E-002	5.53031E-001	3.57850E+000	9	...........
	26	0.36	5.41778E-001	-9.93240E-005	0.00000E+000	-5.38115E-005	-5.99601E-002	5.42022E-001	3.57850E+000	9	...........
	27	0.373333	5.30794E-001	-9.83404E-005	0.00000E+000	-5.21985E-005	-5.99601E-002	5.31062E-001	3.57850E+000	9	...........
	28	0.386667	5.19922E-001	-9.89728E-005	0.00000E+000	-5.14582E-005	-5.99601E-002	5.20170E-001	3.57850E+000	9	...........
	29	0.4	5.09015E-001	-9.90583E-005	0.00000E+000	-5.04221E-005	-5.99601E-002	5.09311E-001	3.57850E+000	9	...........
	30	0.413333	4.98207E-001	-9.95865E-005	0.00000E+000	-4.96147E-005	-5.99601E-002	4.98475E-001	3.57850E+000	9	...........
	31	0.426667	4.87561E-001	-9.88957E-005	0.00000E+000	-4.82177E-005	-5.99601E-002	4.87752E-001	3.57850E+000	9	...........
	32	0.44	4.77156E-001	-9.86446E-005	0.00000E+000	-4.70689E-005	-5.99601E-002	4.77261E-001	3.57850E+000	9	...........
	33	0.453333	4.66536E-001	-9.93354E-005	0.00000E+000	-4.63435E-005	-5.99601E-002	4.66637E-001	3.57850E+000	9	...........
	34	0.466667	4.55982E-001	-9.89468E-005	0.00000E+000	-4.51179E-005	-5.99601E-002	4.56072E-001	3.57850E+000	9	...........
	35	0.48	4.45491E-001	-9.90843E-005	0.00000E+000	-4.41412E-005	-5.99601E-002	4.45581E-001	3.57850E+000	9	...........
	36	0.493333	4.35061E-001	-9.88353E-005	0.00000E+000	-4.29993E-005	-5.99601E-002	4.35152E-001	3.57850E+000	9	...........
	37	0.506667	4.24705E-001	-9.82800E-005	0.00000E+000	-4.17400E-005	-5.99601E-002	4.24796E-001	3.57850E+000	9	...........
	38	0.52	4.14418E-001	-9.89739E-005	0.00000E+000	-4.10166E-005	-5.99601E-002	4.14507E-001	3.57850E+000	9	...........
	39	0.533333	4.04203E-001	-9.90406E-005	0.00000E+000	-4.00325E-005	-5.99601E-002	4.04277E-001	3.57850E+000	9	...........
	40	0.546667	3.94051E-001	-9.92239E-005	0.00000E+000	-3.90993E-005	-5.99601E-002	3.94123E-001	3.57850E+000	9	...........
	41	0.56	3.83963E-001	-9.93427E-005	0.00000E+000	-3.81439E-005	-5.99601E-002	3.84042E-001	3.57850E+000	9	...........
	42	0.573333	3.73950E-001	-9.87051E-005	0.00000E+000	-3.69107E-005	-5.99601E-002	3.74019E-001	3.57850E+000	9	...........
	43	0.586667	3.63998E-001	-9.84988E-005	0.00000E+000	-3.58533E-005	-5.99601E-002	3.64072E-001	3.57850E+000	9	...........
	44	0.6	3.54117E-001	-9.86332E-005	0.00000E+000	-3.49277E-005	-5.99601E-002	3.54180E-001	3.57850E+000	9	...........
	45	0.613333	3.44290E-001	-9.94917E-005	0.00000E+000	-3.42540E-005	-5.99601E-002	3.44356E-001	3.57850E+000	9	...........
	46	0.626667	3.34527E-001	-9.80518E-005	0.00000E+000	-3.28010E-005	-5.99601E-002	3.34595E-001	3.57850E+000	9	...........
	47	0.64	3.24826E-001	-9.91573E-005	0.00000E+000	-3.22088E-005	-5.99601E-002	3.24884E-001	3.57850E+000	9	...........
	48	0.653333	3.15174E-001	-9.89134E-005	0.00000E+000	-3.11750E-005	-5.99601E-002	3.15233E-001	3.57850E+000	9	...........
	49	0.666667	3.05578E-001	-9.87103E-005	0.00000E+000	-3.01637E-005	-5.99601E-002	3.05636E-001	3.57850E+000	9	...........
	50	0.68	2.96040E-001	-9.92594E-005	0.00000E+000	-2.93847E-005	-5.99601E-002	2.96093E-001	3.57850E+000	9	...........
	51	0.693333	2.86548E-001	-9.91208E-005	0.00000E+000	-2.84028E-005	-5.99601E-002	2.86602E-001	3.57850E+000	9	...........
	52	0.706667	2.77109E-001	-9.95657E-005	0.00000E+000	-2.75906E-005	-5.99601E-002	2.77161E-001	3.57850E+000	9	...........
	53	0.72	2.67724E-001	-9.87322E-005	0.00000E+000	-2.64329E-005	-5.99601E-002	2.67779E-001	3.57850E+000	9	...........
	54	0.733333	2.58387E-001	-9.84842E-005	0.00000E+000	-2.54470E-005	-5.99601E-002	2.58440E-001	3.57850E+000	9	...........
	55	0.746667	2.49110E-001	-9.89864E-005	0.00000E+000	-2.46585E-005	-5.99601E-002	2.49160E-001	3.57850E+000	9	...........
	56	0.76	2.39874E-001	-9.95688E-005	0.00000E+000	-2.38840E-005	-5.99601E-002	2.39918E-001	3.57850E+000	9	...........
	57	0.773333	2.30697E-001	-9.89416E-005	0.00000E+000	-2.28256E-005	-5.99601E-002	2.30738E-001	3.57850E+000	9	...........
	58	0.786667	2.21568E-001	-9.86644E-005	0.00000E+000	-2.18609E-005	-5.99601E-002	2.21602E-001	3.57850E+000	9	...........
	59	0.8	2.12489E-001	-9.88291E-005	0.00000E+000	-2.10001E-005	-5.99601E-002	2.12528E-001	3.57850E+000	9	...........
	60	0.813333	2.03464E-001	-9.91896E-005	0.00000E+000	-2.01815E-005	-5.99601E-002	2.03502E-001	3.57850E+000	9	...........
	61	0.826667	1.94504E-001	-9.84206E-005	0.00000E+000	-1.91432E-005	-5.99601E-002	1.94536E-001	3.57850E+000	9	...........
	62	0.84	1.85598E-001	-9.80070E-005	0.00000E+000	-1.81899E-005	-5.99601E-002	1.85621E-001	3.57850E+000	9	...........
	63	0.853333	1.76754E-001	-9.90124E-005	0.00000E+000	-1.75008E-005	-5.99601E-002	1.76779E-001	3.57850E+000	9	...........
	64	0.866667	1.67973E-001	-9.90645E-005	0.00000E+000	-1.66402E-005	-5.99601E-002	1.67997E-001	3.57850E+000	9	...........
	65	0.88	1.59262E-001	-9.89312E-005	0.00000E+000	-1.57559E-005	-5.99601E-002	1.59281E-001	3.57850E+000	9	...........
	66	0.893333	1.50619E-001	-9.82717E-005	0.00000E+000	-1.48016E-005	-5.99601E-002	1.50634E-001	3.57850E+000	9	...........
	67	0.906667	1.42043E-001	-9.84832E-005	0.00000E+000	-1.39888E-005	-5.99601E-002	1.42058E-001	3.57850E+000	9	...........
	68	0.92	1.33540E-001	-9.90718E-005	0.00000E+000	-1.32301E-005	-5.99601E-002	1.33553E-001	3.57850E+000	9	...........
	69	0.933333	1.25114E-001	-9.90666E-005	0.00000E+000	-1.23946E-005	-5.99601E-002	1.25124E-001	3.57850E+000	9	...........
	70	0.946667	1.16755E-001	-9.85290E-005	0.00000E+000	-1.15037E-005	-5.99601E-002	1.16768E-001	3.57850E+000	9	...........
	71	0.96	1.08482E-001	-9.86696E-005	0.00000E+000	-1.07038E-005	-5.99601E-002	1.08484E-001	3.57850E+000	9	...........
	72	0.97333	1.00275E-001	-9.92864E-005	0.00000E+000	-9.95595E-006	-5.99601E-002	1.00283E-001	3.57850E+000	9	...........
	73	0.98667	9.21434E-002	-9.91395E-005	0.00000E+000	-9.13506E-006	-5.99601E-002	9.21535E-002	3.57850E+000	9	...........
	74	1	8.40931E-002	-9.89635E-005	0.00000E+000	-8.32215E-006	-5.99601E-002	8.40991E-002	3.57850E+000	9	...........
	75	1.01333	7.61169E-002	-9.95511E-005	0.00000E+000	-7.57752E-006	-5.99601E-002	7.61185E-002	3.57850E+000	9	...........
	76	1.02667	6.82169E-002	-9.86092E-005	0.00000E+000	-6.72682E-006	-5.99601E-002	6.82151E-002	3.57850E+000	9	...........
	77	1.04	6.03811E-002	-9.85946E-005	0.00000E+000	-5.95326E-006	-5.99601E-002	6.03749E-002	3.57850E+000	9	...........
	78	1.05333	5.26170E-002	-9.87468E-005	0.00000E+000	-5.19576E-006	-5.99601E-002	5.26151E-002	3.57850E+000	9	...........
	79	1.06667	4.49602E-002	-9.94719E-005	0.00000E+000	-4.47227E-006	-5.99601E-002	4.49470E-002	3.57850E+000	9	...........
	80	1.08	3.73390E-002	-9.86363E-005	0.00000E+000	-3.68298E-006	-5.99601E-002	3.73266E-002	3.57850E+000	9	...........
	81	1.09333	2.97804E-002	-9.88259E-005	0.00000E+000	-2.94308E-006	-5.99601E-002	2.97603E-002	3.57850E+000	9	...........
	82	1.10667	2.22876E-002	-9.91312E-005	0.00000E+000	-2.20939E-006	-5.99601E-002	2.22661E-002	3.57850E+000	9	...........
	83	1.12	1.48601E-002	-9.89676E-005	0.00000E+000	-1.47067E-006	-5.99601E-002	1.48357E-002	3.57850E+000	9	...........
	84	1.13333	7.50285E-003	-9.86248E-005	0.00000E+000	-7.39967E-007	-5.99601E-002	7.47098E-003	3.57850E+000	9	...........
	85	1.14167	1.57308E-003	-9.88120E-005	0.00000E+000	-1.55439E-007	-5.99601E-002	1.54003E-003	3.57850E+000	9	...........
STARTTIMEOFFSET	QUANT	1923.33	Start Time Offset (s)
