EXPLAIN
TAG	PWR800_DISCHARGE
TITLE	LABEL	PWR Cyclic Charge Discharge (Cell) - Discharge Step	Test &Identifier
DATE	LABEL	13-7-2017	Date
TIME	LABEL	15:54:31	Time
NOTES	NOTES	2	&Notes...
	supercap test cell
	6M KOH
PSTAT	PSTAT	IFC5000-01520	Potentiostat
CAPACITY	QUANT	1.00000E-003	Capacity (A-hr)
CELLTYPE	SELECTOR	1	&Cell Type
WORKINGCONNECTION	SELECTOR	0	&Working Lead
MAXDISCHARGETIME	VARIABLEANDUNITS	1.00000E+002	s	1.00000E+002	second(s)	Max &Discharge Time
DISCHARGEMODE	MULTIPARAM	0	1.00000E-004	&Discharge Mode	Constant Current	Amp(s)
SAMPLETIME	QUANT	1.00000E-002	Sa&mple Period (s)
DISCHARGESTOPAT1	MULTIPARAM	3	0.00000E+000	Discharge Stop At &1	Voltage < Limit	V
DISCHARGESTOPAT2	MULTIPARAM	0	0.00000E+000	Discharge Stop At &2	None	N/A
AESBHCSELECTOR	TOGGLE	F	Save Both Half Cells
IRCOMP	TOGGLE	F	IR &Measure
EOC	QUANT	0	Open Circuit (V)
SEQUENCER	TOGGLE	TRUE	Run as Sequence
PSTATMODEL	IQUANT	53	Pstat Model
PSTATSECTION	LABEL	IFC5000-01520	Pstat Section
PSTATSERIALNO	LABEL	01520	Pstat Serial Number
CTRLMODE	IQUANT	0	Control Mode
ELECTROMETER	IQUANT	1	RE=0 or CS=1
IESTAB	IQUANT	0	I/E Stability
CASPEED	IQUANT	4	Control Amp Speed
CONVENTION	IQUANT	1	Current Convention
ICHRANGE	IQUANT	2	Ich Range
ICHRANGEMODE	TOGGLE	T	Ich Auto Range
ICHOFFSETENABLE	TOGGLE	F	Ich Offset Enable
ICHOFFSET	QUANT	0	Ich Offset (V)
ICHFILTER	IQUANT	1	Ich Filter
VCHRANGE	IQUANT	2	Vch Range
VCHRANGEMODE	TOGGLE	T	Vch Auto Range
VCHOFFSETENABLE	TOGGLE	F	Vch Offset Enable
VCHOFFSET	QUANT	0	Vch Offset (V)
VCHFILTER	IQUANT	1	Vch Filter
IERANGELOWERLIMIT	IQUANT	9	I/E Range Lower Limit
IERANGEMODE	TOGGLE	F	I/E AutoRange
IERANGE	IQUANT	9	I/E Range
ACHSELECT	IQUANT	1	Ach Select
ACHRANGE	IQUANT	2	Ach Range
ACHOFFSETENABLE	TOGGLE	F	Ach Offset Enable
ACHOFFSET	QUANT	0	Ach Offset (V)
ACHFILTER	IQUANT	1	Ach Filter
CABLEID	IQUANT	14	Cable ID
DCCALDATE	LABEL	5-7-2017	DC Calibration Date
ACCALDATE	LABEL	12/3/2015	AC Calibration Date
FRAMEWORKVERSION	QUANT	7.01	Framework Version
INSTRUMENTVERSION	LABEL	4.00	Instrument Version
CURVE	TABLE	85
	Pt	T	Vf	Im	Vu	Pwr	Sig	Ach	Temp	IERange	Over
	#	s	V	A	V	W	V	V	deg C	#	bits
	0	0.013333	8.46762E-001	-9.91135E-005	0.00000E+000	-8.39255E-005	-5.99601E-002	8.47072E-001	3.58000E+000	9	...........
	1	0.026667	8.32434E-001	-9.91479E-005	0.00000E+000	-8.25341E-005	-5.99601E-002	8.32730E-001	3.58000E+000	9	...........
	2	0.04	8.18968E-001	-9.86186E-005	0.00000E+000	-8.07655E-005	-5.99601E-002	8.19253E-001	3.58000E+000	9	...........
	3	0.053333	8.06037E-001	-9.87415E-005	0.00000E+000	-7.95893E-005	-5.99601E-002	8.06308E-001	3.58000E+000	9	...........
	4	0.066667	7.93470E-001	-9.76851E-005	0.00000E+000	-7.75101E-005	-5.99601E-002	7.93767E-001	3.58000E+000	9	...........
	5	0.08	7.81189E-001	-9.84571E-005	0.00000E+000	-7.69136E-005	-5.99601E-002	7.81486E-001	3.58000E+000	9	...........
	6	0.093333	7.69121E-001	-9.89530E-005	0.00000E+000	-7.61068E-005	-5.99601E-002	7.69386E-001	3.58000E+000	9	...........
	7	0.106667	7.57189E-001	-9.89291E-005	0.00000E+000	-7.49080E-005	-5.99601E-002	7.57441E-001	3.58000E+000	9	...........
	8	0.12	7.45386E-001	-9.86717E-005	0.00000E+000	-7.35485E-005	-5.99601E-002	7.45646E-001	3.58000E+000	9	...........
	9	0.133333	7.33643E-001	-9.90926E-005	0.00000E+000	-7.26986E-005	-5.99601E-002	7.33890E-001	3.58000E+000	9	...........
	10	0.146667	7.21998E-001	-9.85998E-005	0.00000E+000	-7.11889E-005	-5.99601E-002	7.22239E-001	3.58000E+000	9	...........
	11	0.16	7.10377E-001	-9.87103E-005	0.00000E+000	-7.01215E-005	-5.99601E-002	7.10606E-001	3.58000E+000	9	...........
	12	0.173333	6.98838E-001	-9.91937E-005	0.00000E+000	-6.93204E-005	-5.99601E-002	6.99060E-001	3.58000E+000	9	...........
	13	0.186667	6.87303E-001	-9.87478E-005	0.00000E+000	-6.78696E-005	-5.99601E-002	6.87524E-001	3.58000E+000	9	...........
	14	0.2	6.75821E-001	-9.89114E-005	0.00000E+000	-6.68464E-005	-5.99601E-002	6.76048E-001	3.58000E+000	9	...........
	15	0.213333	6.64316E-001	-9.90927E-005	0.00000E+000	-6.58288E-005	-5.99601E-002	6.64600E-001	3.58000E+000	9	...........
	16	0.226667	6.52888E-001	-9.84352E-005	0.00000E+000	-6.42671E-005	-5.99601E-002	6.53138E-001	3.58000E+000	9	...........
	17	0.24	6.41454E-001	-9.91854E-005	0.00000E+000	-6.36228E-005	-5.99601E-002	6.41703E-001	3.58000E+000	9	...........
	18	0.253333	6.30020E-001	-9.90999E-005	0.00000E+000	-6.24350E-005	-5.99601E-002	6.30284E-001	3.58000E+000	9	...........
	19	0.266667	6.18689E-001	-9.95750E-005	0.00000E+000	-6.16060E-005	-5.99601E-002	6.18911E-001	3.58000E+000	9	...........
	20	0.28	6.07272E-001	-9.87353E-005	0.00000E+000	-5.99592E-005	-5.99601E-002	6.07541E-001	3.58000E+000	9	...........
	21	0.293333	5.95977E-001	-9.84154E-005	0.00000E+000	-5.86533E-005	-5.99601E-002	5.96210E-001	3.58000E+000	9	...........
	22	0.306667	5.84662E-001	-9.86196E-005	0.00000E+000	-5.76592E-005	-5.99601E-002	5.84906E-001	3.58000E+000	9	...........
	23	0.32	5.73411E-001	-9.92604E-005	0.00000E+000	-5.69170E-005	-5.99601E-002	5.73642E-001	3.57886E+000	9	...........
	24	0.333333	5.62155E-001	-9.87863E-005	0.00000E+000	-5.55333E-005	-5.99601E-002	5.62435E-001	3.57870E+000	9	...........
	25	0.346667	5.50970E-001	-9.85436E-005	0.00000E+000	-5.42946E-005	-5.99601E-002	5.51220E-001	3.57870E+000	9	...........
	26	0.36	5.39835E-001	-9.88937E-005	0.00000E+000	-5.33862E-005	-5.99601E-002	5.40105E-001	3.57870E+000	9	...........
	27	0.373333	5.28743E-001	-9.91354E-005	0.00000E+000	-5.24171E-005	-5.99601E-002	5.29004E-001	3.57870E+000	9	...........
	28	0.386667	5.17713E-001	-9.89457E-005	0.00000E+000	-5.12255E-005	-5.99601E-002	5.17958E-001	3.57870E+000	9	...........
	29	0.4	5.06670E-001	-9.90479E-005	0.00000E+000	-5.01846E-005	-5.99601E-002	5.06978E-001	3.57870E+000	9	...........
	30	0.413333	4.95760E-001	-9.83925E-005	0.00000E+000	-4.87790E-005	-5.99601E-002	4.96050E-001	3.57870E+000	9	...........
	31	0.426667	4.85057E-001	-9.84977E-005	0.00000E+000	-4.77770E-005	-5.99601E-002	4.85243E-001	3.57870E+000	9	...........
	32	0.44	4.74483E-001	-9.82612E-005	0.00000E+000	-4.66233E-005	-5.99601E-002	4.74584E-001	3.57870E+000	9	...........
	33	0.453333	4.63746E-001	-9.90301E-005	0.00000E+000	-4.59249E-005	-5.99601E-002	4.63843E-001	3.57870E+000	9	...........
	34	0.466667	4.53082E-001	-9.85217E-005	0.00000E+000	-4.46384E-005	-5.99601E-002	4.53177E-001	3.57870E+000	9	...........
	35	0.48	4.42486E-001	-9.89437E-005	0.00000E+000	-4.37812E-005	-5.99601E-002	4.42577E-001	3.57870E+000	9	...........
	36	0.493333	4.31967E-001	-9.92187E-005	0.00000E+000	-4.28592E-005	-5.99601E-002	4.32050E-001	3.57870E+000	9	...........
	37	0.506667	4.21508E-001	-9.94886E-005	0.00000E+000	-4.19353E-005	-5.99601E-002	4.21599E-001	3.57870E+000	9	...........
	38	0.52	4.11127E-001	-9.83175E-005	0.00000E+000	-4.04210E-005	-5.99601E-002	4.11213E-001	3.57870E+000	9	...........
	39	0.533333	4.00821E-001	-9.91468E-005	0.00000E+000	-3.97401E-005	-5.99601E-002	4.00897E-001	3.57870E+000	9	...........
	40	0.546667	3.90583E-001	-9.86269E-005	0.00000E+000	-3.85220E-005	-5.99601E-002	3.90654E-001	3.57870E+000	9	...........
	41	0.56	3.80422E-001	-9.96553E-005	0.00000E+000	-3.79110E-005	-5.99601E-002	3.80490E-001	3.57870E+000	9	...........
	42	0.573333	3.70318E-001	-9.88843E-005	0.00000E+000	-3.66186E-005	-5.99601E-002	3.70388E-001	3.57870E+000	9	...........
	43	0.586667	3.60283E-001	-9.94271E-005	0.00000E+000	-3.58219E-005	-5.99601E-002	3.60356E-001	3.57870E+000	9	...........
	44	0.6	3.50324E-001	-9.88061E-005	0.00000E+000	-3.46142E-005	-5.99601E-002	3.50390E-001	3.57870E+000	9	...........
	45	0.613333	3.40418E-001	-9.79237E-005	0.00000E+000	-3.33350E-005	-5.99601E-002	3.40482E-001	3.57870E+000	9	...........
	46	0.626667	3.30582E-001	-9.87884E-005	0.00000E+000	-3.26577E-005	-5.99601E-002	3.30643E-001	3.57870E+000	9	...........
	47	0.64	3.20806E-001	-9.94188E-005	0.00000E+000	-3.18941E-005	-5.99601E-002	3.20867E-001	3.57870E+000	9	...........
	48	0.653333	3.11088E-001	-9.90697E-005	0.00000E+000	-3.08194E-005	-5.99601E-002	3.11150E-001	3.57870E+000	9	...........
	49	0.666667	3.01430E-001	-9.84081E-005	0.00000E+000	-2.96632E-005	-5.99601E-002	3.01483E-001	3.57870E+000	9	...........
	50	0.68	2.91826E-001	-9.88166E-005	0.00000E+000	-2.88372E-005	-5.99601E-002	2.91873E-001	3.57870E+000	9	...........
	51	0.693333	2.82276E-001	-9.88207E-005	0.00000E+000	-2.78947E-005	-5.99601E-002	2.82331E-001	3.57870E+000	9	...........
	52	0.706667	2.72781E-001	-9.98730E-005	0.00000E+000	-2.72435E-005	-5.99601E-002	2.72832E-001	3.57870E+000	9	...........
	53	0.72	2.63342E-001	-9.85759E-005	0.00000E+000	-2.59592E-005	-5.99601E-002	2.63395E-001	3.57870E+000	9	...........
	54	0.733333	2.53955E-001	-9.84394E-005	0.00000E+000	-2.49992E-005	-5.99601E-002	2.54004E-001	3.57870E+000	9	...........
	55	0.746667	2.44623E-001	-9.81456E-005	0.00000E+000	-2.40086E-005	-5.99601E-002	2.44662E-001	3.57870E+000	9	...........
	56	0.76	2.35343E-001	-9.96084E-005	0.00000E+000	-2.34422E-005	-5.99601E-002	2.35379E-001	3.57870E+000	9	...........
	57	0.773333	2.26114E-001	-9.95563E-005	0.00000E+000	-2.25111E-005	-5.99601E-002	2.26152E-001	3.57870E+000	9	...........
	58	0.786667	2.16948E-001	-9.87843E-005	0.00000E+000	-2.14311E-005	-5.99601E-002	2.16980E-001	3.57870E+000	9	...........
	59	0.8	2.07829E-001	-9.95417E-005	0.00000E+000	-2.06877E-005	-5.99601E-002	2.07858E-001	3.57870E+000	9	...........
	60	0.813333	1.98771E-001	-9.91239E-005	0.00000E+000	-1.97030E-005	-5.99601E-002	1.98795E-001	3.57870E+000	9	...........
	61	0.826667	1.89776E-001	-9.78382E-005	0.00000E+000	-1.85674E-005	-5.99601E-002	1.89799E-001	3.57870E+000	9	...........
	62	0.84	1.80840E-001	-9.89864E-005	0.00000E+000	-1.79007E-005	-5.99601E-002	1.80864E-001	3.57870E+000	9	...........
	63	0.853333	1.71964E-001	-9.83665E-005	0.00000E+000	-1.69155E-005	-5.99601E-002	1.71995E-001	3.57870E+000	9	...........
	64	0.866667	1.63167E-001	-9.89833E-005	0.00000E+000	-1.61508E-005	-5.99601E-002	1.63188E-001	3.57870E+000	9	...........
	65	0.88	1.54439E-001	-9.90927E-005	0.00000E+000	-1.53037E-005	-5.99601E-002	1.54449E-001	3.57870E+000	9	...........
	66	0.893333	1.45783E-001	-9.82935E-005	0.00000E+000	-1.43295E-005	-5.99601E-002	1.45796E-001	3.57870E+000	9	...........
	67	0.906667	1.37196E-001	-9.89593E-005	0.00000E+000	-1.35768E-005	-5.99601E-002	1.37209E-001	3.57870E+000	9	...........
	68	0.92	1.28683E-001	-9.92323E-005	0.00000E+000	-1.27695E-005	-5.99601E-002	1.28701E-001	3.57870E+000	9	...........
	69	0.933333	1.20252E-001	-9.88812E-005	0.00000E+000	-1.18906E-005	-5.99601E-002	1.20264E-001	3.57870E+000	9	...........
	70	0.946667	1.11893E-001	-9.96115E-005	0.00000E+000	-1.11458E-005	-5.99601E-002	1.11907E-001	3.57870E+000	9	...........
	71	0.96	1.03618E-001	-9.85738E-005	0.00000E+000	-1.02140E-005	-5.99601E-002	1.03623E-001	3.57870E+000	9	...........
	72	0.97333	9.54144E-002	-9.82237E-005	0.00000E+000	-9.37195E-006	-5.99601E-002	9.54191E-002	3.57870E+000	9	...........
	73	0.98667	8.72864E-002	-9.85321E-005	0.00000E+000	-8.60051E-006	-5.99601E-002	8.72866E-002	3.57870E+000	9	...........
	74	1	7.92391E-002	-9.83404E-005	0.00000E+000	-7.79241E-006	-5.99601E-002	7.92341E-002	3.57870E+000	9	...........
	75	1.01333	7.12611E-002	-9.92208E-005	0.00000E+000	-7.07058E-006	-5.99601E-002	7.12545E-002	3.57870E+000	9	...........
	76	1.02667	6.33584E-002	-9.87457E-005	0.00000E+000	-6.25637E-006	-5.99601E-002	6.33501E-002	3.57870E+000	9	...........
	77	1.04	5.55270E-002	-9.80633E-005	0.00000E+000	-5.44516E-006	-5.99601E-002	5.55192E-002	3.57870E+000	9	...........
	78	1.05333	4.77855E-002	-9.88926E-005	0.00000E+000	-4.72564E-006	-5.99601E-002	4.77800E-002	3.57870E+000	9	...........
	79	1.06667	4.01143E-002	-9.88739E-005	0.00000E+000	-3.96626E-006	-5.99601E-002	4.01068E-002	3.57870E+000	9	...........
	80	1.08	3.24945E-002	-9.87051E-005	0.00000E+000	-3.20737E-006	-5.99601E-002	3.24817E-002	3.57870E+000	9	...........
	81	1.09333	2.49437E-002	-9.87499E-005	0.00000E+000	-2.46319E-006	-5.99601E-002	2.49224E-002	3.57870E+000	9	...........
	82	1.10667	1.74601E-002	-9.85227E-005	0.00000E+000	-1.72022E-006	-5.99601E-002	1.74372E-002	3.57870E+000	9	...........
	83	1.12	1.00398E-002	-9.87790E-005	0.00000E+000	-9.91720E-007	-5.99601E-002	1.00113E-002	3.57870E+000	9	...........
	84	1.13333	2.68859E-003	-9.89676E-005	0.00000E+000	-2.66083E-007	-5.99601E-002	2.65420E-003	3.57870E+000	9	...........
STARTTIMEOFFSET	QUANT	2370.363	Start Time Offset (s)
