EXPLAIN
TAG	PWR800_DISCHARGE
TITLE	LABEL	PWR Cyclic Charge Discharge (Cell) - Discharge Step	Test &Identifier
DATE	LABEL	13-7-2017	Date
TIME	LABEL	15:54:50	Time
NOTES	NOTES	2	&Notes...
	supercap test cell
	6M KOH
PSTAT	PSTAT	IFC5000-01520	Potentiostat
CAPACITY	QUANT	1.00000E-003	Capacity (A-hr)
CELLTYPE	SELECTOR	1	&Cell Type
WORKINGCONNECTION	SELECTOR	0	&Working Lead
MAXDISCHARGETIME	VARIABLEANDUNITS	1.00000E+002	s	1.00000E+002	second(s)	Max &Discharge Time
DISCHARGEMODE	MULTIPARAM	0	1.00000E-004	&Discharge Mode	Constant Current	Amp(s)
SAMPLETIME	QUANT	1.00000E-002	Sa&mple Period (s)
DISCHARGESTOPAT1	MULTIPARAM	3	0.00000E+000	Discharge Stop At &1	Voltage < Limit	V
DISCHARGESTOPAT2	MULTIPARAM	0	0.00000E+000	Discharge Stop At &2	None	N/A
AESBHCSELECTOR	TOGGLE	F	Save Both Half Cells
IRCOMP	TOGGLE	F	IR &Measure
EOC	QUANT	0	Open Circuit (V)
SEQUENCER	TOGGLE	TRUE	Run as Sequence
PSTATMODEL	IQUANT	53	Pstat Model
PSTATSECTION	LABEL	IFC5000-01520	Pstat Section
PSTATSERIALNO	LABEL	01520	Pstat Serial Number
CTRLMODE	IQUANT	0	Control Mode
ELECTROMETER	IQUANT	1	RE=0 or CS=1
IESTAB	IQUANT	0	I/E Stability
CASPEED	IQUANT	4	Control Amp Speed
CONVENTION	IQUANT	1	Current Convention
ICHRANGE	IQUANT	2	Ich Range
ICHRANGEMODE	TOGGLE	T	Ich Auto Range
ICHOFFSETENABLE	TOGGLE	F	Ich Offset Enable
ICHOFFSET	QUANT	0	Ich Offset (V)
ICHFILTER	IQUANT	1	Ich Filter
VCHRANGE	IQUANT	2	Vch Range
VCHRANGEMODE	TOGGLE	T	Vch Auto Range
VCHOFFSETENABLE	TOGGLE	F	Vch Offset Enable
VCHOFFSET	QUANT	0	Vch Offset (V)
VCHFILTER	IQUANT	1	Vch Filter
IERANGELOWERLIMIT	IQUANT	9	I/E Range Lower Limit
IERANGEMODE	TOGGLE	F	I/E AutoRange
IERANGE	IQUANT	9	I/E Range
ACHSELECT	IQUANT	1	Ach Select
ACHRANGE	IQUANT	2	Ach Range
ACHOFFSETENABLE	TOGGLE	F	Ach Offset Enable
ACHOFFSET	QUANT	0	Ach Offset (V)
ACHFILTER	IQUANT	1	Ach Filter
CABLEID	IQUANT	14	Cable ID
DCCALDATE	LABEL	5-7-2017	DC Calibration Date
ACCALDATE	LABEL	12/3/2015	AC Calibration Date
FRAMEWORKVERSION	QUANT	7.01	Framework Version
INSTRUMENTVERSION	LABEL	4.00	Instrument Version
CURVE	TABLE	85
	Pt	T	Vf	Im	Vu	Pwr	Sig	Ach	Temp	IERange	Over
	#	s	V	A	V	W	V	V	deg C	#	bits
	0	0.013333	8.45864E-001	-9.82050E-005	0.00000E+000	-8.30681E-005	-5.99601E-002	8.46235E-001	3.57990E+000	9	...........
	1	0.026667	8.31523E-001	-9.87613E-005	0.00000E+000	-8.21223E-005	-5.99601E-002	8.31907E-001	3.57990E+000	9	...........
	2	0.04	8.18075E-001	-9.86947E-005	0.00000E+000	-8.07396E-005	-5.99601E-002	8.18393E-001	3.57990E+000	9	...........
	3	0.053333	8.05105E-001	-9.84831E-005	0.00000E+000	-7.92893E-005	-5.99601E-002	8.05433E-001	3.57990E+000	9	...........
	4	0.066667	7.92559E-001	-9.91145E-005	0.00000E+000	-7.85541E-005	-5.99601E-002	7.92868E-001	3.57990E+000	9	...........
	5	0.08	7.80272E-001	-9.90729E-005	0.00000E+000	-7.73038E-005	-5.99601E-002	7.80555E-001	3.57990E+000	9	...........
	6	0.093333	7.68204E-001	-9.87363E-005	0.00000E+000	-7.58497E-005	-5.99601E-002	7.68467E-001	3.57990E+000	9	...........
	7	0.106667	7.56277E-001	-9.86373E-005	0.00000E+000	-7.45972E-005	-5.99601E-002	7.56545E-001	3.57990E+000	9	...........
	8	0.12	7.44465E-001	-9.92656E-005	0.00000E+000	-7.38998E-005	-5.99601E-002	7.44731E-001	3.57990E+000	9	...........
	9	0.133333	7.32732E-001	-9.94646E-005	0.00000E+000	-7.28809E-005	-5.99601E-002	7.33006E-001	3.57990E+000	9	...........
	10	0.146667	7.21109E-001	-9.92000E-005	0.00000E+000	-7.15340E-005	-5.99601E-002	7.21364E-001	3.57990E+000	9	...........
	11	0.16	7.09466E-001	-9.82967E-005	0.00000E+000	-6.97382E-005	-5.99601E-002	7.09755E-001	3.57990E+000	9	...........
	12	0.173333	6.97922E-001	-9.85675E-005	0.00000E+000	-6.87924E-005	-5.99601E-002	6.98170E-001	3.57990E+000	9	...........
	13	0.186667	6.86403E-001	-9.86759E-005	0.00000E+000	-6.77314E-005	-5.99601E-002	6.86665E-001	3.57990E+000	9	...........
	14	0.2	6.74910E-001	-9.87155E-005	0.00000E+000	-6.66240E-005	-5.99601E-002	6.75160E-001	3.57990E+000	9	...........
	15	0.213333	6.63425E-001	-9.86353E-005	0.00000E+000	-6.54371E-005	-5.99601E-002	6.63699E-001	3.57990E+000	9	...........
	16	0.226667	6.52002E-001	-9.91916E-005	0.00000E+000	-6.46732E-005	-5.99601E-002	6.52239E-001	3.57990E+000	9	...........
	17	0.24	6.40566E-001	-9.85332E-005	0.00000E+000	-6.31170E-005	-5.99601E-002	6.40817E-001	3.57990E+000	9	...........
	18	0.253333	6.29158E-001	-9.95813E-005	0.00000E+000	-6.26523E-005	-5.99601E-002	6.29389E-001	3.57990E+000	9	...........
	19	0.266667	6.17796E-001	-9.90531E-005	0.00000E+000	-6.11946E-005	-5.99601E-002	6.18028E-001	3.57990E+000	9	...........
	20	0.28	6.06393E-001	-9.81362E-005	0.00000E+000	-5.95091E-005	-5.99601E-002	6.06663E-001	3.57990E+000	9	...........
	21	0.293333	5.95096E-001	-9.86915E-005	0.00000E+000	-5.87310E-005	-5.99601E-002	5.95347E-001	3.57990E+000	9	...........
	22	0.306667	5.83790E-001	-9.88541E-005	0.00000E+000	-5.77100E-005	-5.99601E-002	5.84052E-001	3.57990E+000	9	...........
	23	0.32	5.72563E-001	-9.94146E-005	0.00000E+000	-5.69211E-005	-5.99601E-002	5.72826E-001	3.57990E+000	9	...........
	24	0.333333	5.61345E-001	-9.82956E-005	0.00000E+000	-5.51778E-005	-5.99601E-002	5.61595E-001	3.57990E+000	9	...........
	25	0.346667	5.50153E-001	-9.85227E-005	0.00000E+000	-5.42026E-005	-5.99601E-002	5.50430E-001	3.57990E+000	9	...........
	26	0.36	5.39018E-001	-9.76309E-005	0.00000E+000	-5.26248E-005	-5.99601E-002	5.39282E-001	3.57990E+000	9	...........
	27	0.373333	5.27937E-001	-9.83800E-005	0.00000E+000	-5.19384E-005	-5.99601E-002	5.28175E-001	3.57990E+000	9	...........
	28	0.386667	5.16912E-001	-9.81164E-005	0.00000E+000	-5.07176E-005	-5.99601E-002	5.17129E-001	3.57990E+000	9	...........
	29	0.4	5.05882E-001	-9.84832E-005	0.00000E+000	-4.98209E-005	-5.99601E-002	5.06160E-001	3.57990E+000	9	...........
	30	0.413333	4.94974E-001	-9.90364E-005	0.00000E+000	-4.90205E-005	-5.99601E-002	4.95258E-001	3.57990E+000	9	...........
	31	0.426667	4.84314E-001	-9.85134E-005	0.00000E+000	-4.77114E-005	-5.99601E-002	4.84496E-001	3.57990E+000	9	...........
	32	0.44	4.73704E-001	-9.90291E-005	0.00000E+000	-4.69105E-005	-5.99601E-002	4.73798E-001	3.57990E+000	9	...........
	33	0.453333	4.62976E-001	-9.85092E-005	0.00000E+000	-4.56074E-005	-5.99601E-002	4.63074E-001	3.57990E+000	9	...........
	34	0.466667	4.52325E-001	-9.91145E-005	0.00000E+000	-4.48319E-005	-5.99601E-002	4.52416E-001	3.57990E+000	9	...........
	35	0.48	4.41746E-001	-9.92364E-005	0.00000E+000	-4.38373E-005	-5.99601E-002	4.41829E-001	3.57990E+000	9	...........
	36	0.493333	4.31230E-001	-9.92260E-005	0.00000E+000	-4.27893E-005	-5.99601E-002	4.31316E-001	3.57990E+000	9	...........
	37	0.506667	4.20787E-001	-9.88416E-005	0.00000E+000	-4.15912E-005	-5.99601E-002	4.20871E-001	3.57990E+000	9	...........
	38	0.52	4.10414E-001	-9.90968E-005	0.00000E+000	-4.06707E-005	-5.99601E-002	4.10504E-001	3.57990E+000	9	...........
	39	0.533333	4.00127E-001	-9.84404E-005	0.00000E+000	-3.93887E-005	-5.99601E-002	4.00205E-001	3.57990E+000	9	...........
	40	0.546667	3.89904E-001	-9.87770E-005	0.00000E+000	-3.85135E-005	-5.99601E-002	3.89977E-001	3.57990E+000	9	...........
	41	0.56	3.79751E-001	-9.87072E-005	0.00000E+000	-3.74842E-005	-5.99601E-002	3.79822E-001	3.57990E+000	9	...........
	42	0.573333	3.69666E-001	-9.94469E-005	0.00000E+000	-3.67621E-005	-5.99601E-002	3.69734E-001	3.57990E+000	9	...........
	43	0.586667	3.59649E-001	-9.90770E-005	0.00000E+000	-3.56330E-005	-5.99601E-002	3.59713E-001	3.57990E+000	9	...........
	44	0.6	3.49692E-001	-9.87082E-005	0.00000E+000	-3.45175E-005	-5.99601E-002	3.49758E-001	3.57990E+000	9	...........
	45	0.613333	3.39801E-001	-9.81664E-005	0.00000E+000	-3.33571E-005	-5.99601E-002	3.39867E-001	3.57990E+000	9	...........
	46	0.626667	3.29976E-001	-9.94052E-005	0.00000E+000	-3.28013E-005	-5.99601E-002	3.30038E-001	3.57990E+000	9	...........
	47	0.64	3.20215E-001	-9.84394E-005	0.00000E+000	-3.15217E-005	-5.99601E-002	3.20273E-001	3.57990E+000	9	...........
	48	0.653333	3.10509E-001	-9.89280E-005	0.00000E+000	-3.07181E-005	-5.99601E-002	3.10562E-001	3.57990E+000	9	...........
	49	0.666667	3.00857E-001	-9.84988E-005	0.00000E+000	-2.96341E-005	-5.99601E-002	3.00911E-001	3.57990E+000	9	...........
	50	0.68	2.91260E-001	-9.94167E-005	0.00000E+000	-2.89561E-005	-5.99601E-002	2.91309E-001	3.57990E+000	9	...........
	51	0.693333	2.81725E-001	-9.88947E-005	0.00000E+000	-2.78611E-005	-5.99601E-002	2.81777E-001	3.57990E+000	9	...........
	52	0.706667	2.72241E-001	-9.83644E-005	0.00000E+000	-2.67788E-005	-5.99601E-002	2.72297E-001	3.57990E+000	9	...........
	53	0.72	2.62812E-001	-9.93344E-005	0.00000E+000	-2.61062E-005	-5.99601E-002	2.62865E-001	3.57990E+000	9	...........
	54	0.733333	2.53442E-001	-9.98126E-005	0.00000E+000	-2.52967E-005	-5.99601E-002	2.53482E-001	3.57990E+000	9	...........
	55	0.746667	2.44119E-001	-9.77768E-005	0.00000E+000	-2.38691E-005	-5.99601E-002	2.44160E-001	3.57990E+000	9	...........
	56	0.76	2.34857E-001	-9.84790E-005	0.00000E+000	-2.31285E-005	-5.99601E-002	2.34889E-001	3.57990E+000	9	...........
	57	0.773333	2.25642E-001	-9.98157E-005	0.00000E+000	-2.25226E-005	-5.99601E-002	2.25673E-001	3.57990E+000	9	...........
	58	0.786667	2.16480E-001	-9.89280E-005	0.00000E+000	-2.14159E-005	-5.99601E-002	2.16513E-001	3.57990E+000	9	...........
	59	0.8	2.07382E-001	-9.90697E-005	0.00000E+000	-2.05452E-005	-5.99601E-002	2.07407E-001	3.57990E+000	9	...........
	60	0.813333	1.98335E-001	-9.87322E-005	0.00000E+000	-1.95820E-005	-5.99601E-002	1.98370E-001	3.57990E+000	9	...........
	61	0.826667	1.89355E-001	-9.87447E-005	0.00000E+000	-1.86978E-005	-5.99601E-002	1.89379E-001	3.57997E+000	9	...........
	62	0.84	1.80426E-001	-9.97230E-005	0.00000E+000	-1.79926E-005	-5.99601E-002	1.80458E-001	3.58000E+000	9	...........
	63	0.853333	1.71574E-001	-9.88332E-005	0.00000E+000	-1.69572E-005	-5.99601E-002	1.71600E-001	3.58000E+000	9	...........
	64	0.866667	1.62789E-001	-9.84748E-005	0.00000E+000	-1.60306E-005	-5.99601E-002	1.62810E-001	3.58000E+000	9	...........
	65	0.88	1.54075E-001	-9.91104E-005	0.00000E+000	-1.52704E-005	-5.99601E-002	1.54091E-001	3.58000E+000	9	...........
	66	0.893333	1.45431E-001	-9.94552E-005	0.00000E+000	-1.44639E-005	-5.99601E-002	1.45449E-001	3.58000E+000	9	...........
	67	0.906667	1.36863E-001	-9.79966E-005	0.00000E+000	-1.34121E-005	-5.99601E-002	1.36878E-001	3.58000E+000	9	...........
	68	0.92	1.28360E-001	-9.96282E-005	0.00000E+000	-1.27883E-005	-5.99601E-002	1.28377E-001	3.58000E+000	9	...........
	69	0.933333	1.19943E-001	-9.85332E-005	0.00000E+000	-1.18184E-005	-5.99601E-002	1.19956E-001	3.58000E+000	9	...........
	70	0.946667	1.11597E-001	-9.97365E-005	0.00000E+000	-1.11303E-005	-5.99601E-002	1.11608E-001	3.58000E+000	9	...........
	71	0.96	1.03329E-001	-9.89499E-005	0.00000E+000	-1.02244E-005	-5.99601E-002	1.03338E-001	3.58000E+000	9	...........
	72	0.97333	9.51403E-002	-9.92396E-005	0.00000E+000	-9.44168E-006	-5.99601E-002	9.51505E-002	3.58000E+000	9	...........
	73	0.98667	8.70242E-002	-9.88468E-005	0.00000E+000	-8.60206E-006	-5.99601E-002	8.70282E-002	3.58000E+000	9	...........
	74	1	7.89947E-002	-9.94771E-005	0.00000E+000	-7.85816E-006	-5.99601E-002	7.89926E-002	3.58000E+000	9	...........
	75	1.01333	7.10303E-002	-9.86259E-005	0.00000E+000	-7.00543E-006	-5.99601E-002	7.10234E-002	3.58000E+000	9	...........
	76	1.02667	6.31377E-002	-9.88228E-005	0.00000E+000	-6.23945E-006	-5.99601E-002	6.31346E-002	3.58000E+000	9	...........
	77	1.04	5.53176E-002	-9.88780E-005	0.00000E+000	-5.46970E-006	-5.99601E-002	5.53083E-002	3.58000E+000	9	...........
	78	1.05333	4.75833E-002	-9.98751E-005	0.00000E+000	-4.75238E-006	-5.99601E-002	4.75754E-002	3.58000E+000	9	...........
	79	1.06667	3.99209E-002	-9.88655E-005	0.00000E+000	-3.94680E-006	-5.99601E-002	3.99119E-002	3.58000E+000	9	...........
	80	1.08	3.23114E-002	-1.00098E-004	0.00000E+000	-3.23431E-006	-5.99601E-002	3.22981E-002	3.58000E+000	9	...........
	81	1.09333	2.47736E-002	-9.80081E-005	0.00000E+000	-2.42801E-006	-5.99601E-002	2.47534E-002	3.58000E+000	9	...........
	82	1.10667	1.72982E-002	-9.82800E-005	0.00000E+000	-1.70007E-006	-5.99601E-002	1.72739E-002	3.58000E+000	9	...........
	83	1.12	9.89267E-003	-9.87561E-005	0.00000E+000	-9.76962E-007	-5.99601E-002	9.86254E-003	3.58000E+000	9	...........
	84	1.13333	2.55308E-003	-9.88926E-005	0.00000E+000	-2.52481E-007	-5.99601E-002	2.52321E-003	3.58000E+000	9	...........
STARTTIMEOFFSET	QUANT	2384.254	Start Time Offset (s)
