EXPLAIN
TAG	PWR800_DISCHARGE
TITLE	LABEL	PWR Cyclic Charge Discharge (Cell) - Discharge Step	Test &Identifier
DATE	LABEL	13-7-2017	Date
TIME	LABEL	15:25:37	Time
NOTES	NOTES	2	&Notes...
	supercap test cell
	6M KOH
PSTAT	PSTAT	IFC5000-01520	Potentiostat
CAPACITY	QUANT	1.00000E-003	Capacity (A-hr)
CELLTYPE	SELECTOR	1	&Cell Type
WORKINGCONNECTION	SELECTOR	0	&Working Lead
MAXDISCHARGETIME	VARIABLEANDUNITS	1.00000E+002	s	1.00000E+002	second(s)	Max &Discharge Time
DISCHARGEMODE	MULTIPARAM	0	1.00000E-004	&Discharge Mode	Constant Current	Amp(s)
SAMPLETIME	QUANT	1.00000E-002	Sa&mple Period (s)
DISCHARGESTOPAT1	MULTIPARAM	3	0.00000E+000	Discharge Stop At &1	Voltage < Limit	V
DISCHARGESTOPAT2	MULTIPARAM	0	0.00000E+000	Discharge Stop At &2	None	N/A
AESBHCSELECTOR	TOGGLE	F	Save Both Half Cells
IRCOMP	TOGGLE	F	IR &Measure
EOC	QUANT	0	Open Circuit (V)
SEQUENCER	TOGGLE	TRUE	Run as Sequence
PSTATMODEL	IQUANT	53	Pstat Model
PSTATSECTION	LABEL	IFC5000-01520	Pstat Section
PSTATSERIALNO	LABEL	01520	Pstat Serial Number
CTRLMODE	IQUANT	0	Control Mode
ELECTROMETER	IQUANT	1	RE=0 or CS=1
IESTAB	IQUANT	0	I/E Stability
CASPEED	IQUANT	4	Control Amp Speed
CONVENTION	IQUANT	1	Current Convention
ICHRANGE	IQUANT	2	Ich Range
ICHRANGEMODE	TOGGLE	T	Ich Auto Range
ICHOFFSETENABLE	TOGGLE	F	Ich Offset Enable
ICHOFFSET	QUANT	0	Ich Offset (V)
ICHFILTER	IQUANT	1	Ich Filter
VCHRANGE	IQUANT	2	Vch Range
VCHRANGEMODE	TOGGLE	T	Vch Auto Range
VCHOFFSETENABLE	TOGGLE	F	Vch Offset Enable
VCHOFFSET	QUANT	0	Vch Offset (V)
VCHFILTER	IQUANT	1	Vch Filter
IERANGELOWERLIMIT	IQUANT	9	I/E Range Lower Limit
IERANGEMODE	TOGGLE	F	I/E AutoRange
IERANGE	IQUANT	9	I/E Range
ACHSELECT	IQUANT	1	Ach Select
ACHRANGE	IQUANT	2	Ach Range
ACHOFFSETENABLE	TOGGLE	F	Ach Offset Enable
ACHOFFSET	QUANT	0	Ach Offset (V)
ACHFILTER	IQUANT	1	Ach Filter
CABLEID	IQUANT	14	Cable ID
DCCALDATE	LABEL	5-7-2017	DC Calibration Date
ACCALDATE	LABEL	12/3/2015	AC Calibration Date
FRAMEWORKVERSION	QUANT	7.01	Framework Version
INSTRUMENTVERSION	LABEL	4.00	Instrument Version
CURVE	TABLE	88
	Pt	T	Vf	Im	Vu	Pwr	Sig	Ach	Temp	IERange	Over
	#	s	V	A	V	W	V	V	deg C	#	bits
	0	0.013333	8.49883E-001	-9.94792E-005	0.00000E+000	-8.45457E-005	-5.99601E-002	8.50158E-001	3.57990E+000	9	...........
	1	0.026667	8.36017E-001	-9.88999E-005	0.00000E+000	-8.26820E-005	-5.99601E-002	8.36320E-001	3.57990E+000	9	...........
	2	0.04	8.23021E-001	-9.88572E-005	0.00000E+000	-8.13615E-005	-5.99601E-002	8.23325E-001	3.57990E+000	9	...........
	3	0.053333	8.10556E-001	-9.86446E-005	0.00000E+000	-7.99570E-005	-5.99601E-002	8.10888E-001	3.57990E+000	9	...........
	4	0.066667	7.98539E-001	-9.94563E-005	0.00000E+000	-7.94197E-005	-5.99601E-002	7.98828E-001	3.57990E+000	9	...........
	5	0.08	7.86787E-001	-9.92406E-005	0.00000E+000	-7.80812E-005	-5.99601E-002	7.87082E-001	3.57990E+000	9	...........
	6	0.093333	7.75247E-001	-9.86863E-005	0.00000E+000	-7.65062E-005	-5.99601E-002	7.75557E-001	3.57990E+000	9	...........
	7	0.106667	7.63885E-001	-9.88009E-005	0.00000E+000	-7.54725E-005	-5.99601E-002	7.64179E-001	3.57990E+000	9	...........
	8	0.12	7.52667E-001	-9.81914E-005	0.00000E+000	-7.39054E-005	-5.99601E-002	7.52936E-001	3.57990E+000	9	...........
	9	0.133333	7.41498E-001	-9.88843E-005	0.00000E+000	-7.33225E-005	-5.99601E-002	7.41788E-001	3.57990E+000	9	...........
	10	0.146667	7.30429E-001	-9.81258E-005	0.00000E+000	-7.16739E-005	-5.99601E-002	7.30688E-001	3.57990E+000	9	...........
	11	0.16	7.19452E-001	-9.95938E-005	0.00000E+000	-7.16530E-005	-5.99601E-002	7.19709E-001	3.57990E+000	9	...........
	12	0.173333	7.08433E-001	-9.84634E-005	0.00000E+000	-6.97547E-005	-5.99601E-002	7.08728E-001	3.57990E+000	9	...........
	13	0.186667	6.97527E-001	-9.87040E-005	0.00000E+000	-6.88487E-005	-5.99601E-002	6.97800E-001	3.57990E+000	9	...........
	14	0.2	6.86618E-001	-9.89812E-005	0.00000E+000	-6.79622E-005	-5.99601E-002	6.86927E-001	3.57990E+000	9	...........
	15	0.213333	6.75762E-001	-9.87936E-005	0.00000E+000	-6.67610E-005	-5.99601E-002	6.76054E-001	3.57990E+000	9	...........
	16	0.226667	6.64885E-001	-9.95313E-005	0.00000E+000	-6.61768E-005	-5.99601E-002	6.65173E-001	3.57990E+000	9	...........
	17	0.24	6.54037E-001	-9.92291E-005	0.00000E+000	-6.48995E-005	-5.99601E-002	6.54325E-001	3.57990E+000	9	...........
	18	0.253333	6.43217E-001	-9.90312E-005	0.00000E+000	-6.36985E-005	-5.99601E-002	6.43513E-001	3.57990E+000	9	...........
	19	0.266667	6.32381E-001	-9.89041E-005	0.00000E+000	-6.25451E-005	-5.99601E-002	6.32683E-001	3.57990E+000	9	...........
	20	0.28	6.21604E-001	-9.99418E-005	0.00000E+000	-6.21242E-005	-5.99601E-002	6.21882E-001	3.57990E+000	9	...........
	21	0.293333	6.10800E-001	-9.87655E-005	0.00000E+000	-6.03259E-005	-5.99601E-002	6.11094E-001	3.57990E+000	9	...........
	22	0.306667	6.00033E-001	-9.89833E-005	0.00000E+000	-5.93932E-005	-5.99601E-002	6.00346E-001	3.57990E+000	9	...........
	23	0.32	5.89302E-001	-9.87718E-005	0.00000E+000	-5.82064E-005	-5.99601E-002	5.89595E-001	3.57921E+000	9	...........
	24	0.333333	5.78574E-001	-9.85071E-005	0.00000E+000	-5.69937E-005	-5.99601E-002	5.78861E-001	3.57880E+000	9	...........
	25	0.346667	5.67871E-001	-9.87374E-005	0.00000E+000	-5.60701E-005	-5.99601E-002	5.68158E-001	3.57880E+000	9	...........
	26	0.36	5.57195E-001	-9.94427E-005	0.00000E+000	-5.54090E-005	-5.99601E-002	5.57489E-001	3.57880E+000	9	...........
	27	0.373333	5.46550E-001	-9.85957E-005	0.00000E+000	-5.38874E-005	-5.99601E-002	5.46819E-001	3.57880E+000	9	...........
	28	0.386667	5.35928E-001	-9.87197E-005	0.00000E+000	-5.29067E-005	-5.99601E-002	5.36211E-001	3.57880E+000	9	...........
	29	0.4	5.25383E-001	-9.91406E-005	0.00000E+000	-5.20868E-005	-5.99601E-002	5.25646E-001	3.57880E+000	9	...........
	30	0.413333	5.14824E-001	-9.85436E-005	0.00000E+000	-5.07326E-005	-5.99601E-002	5.15109E-001	3.57880E+000	9	...........
	31	0.426667	5.04292E-001	-9.85467E-005	0.00000E+000	-4.96963E-005	-5.99601E-002	5.04600E-001	3.57880E+000	9	...........
	32	0.44	4.93855E-001	-9.81247E-005	0.00000E+000	-4.84594E-005	-5.99601E-002	4.94131E-001	3.57880E+000	9	...........
	33	0.453333	4.83691E-001	-9.83269E-005	0.00000E+000	-4.75598E-005	-5.99601E-002	4.83856E-001	3.57880E+000	9	...........
	34	0.466667	4.73492E-001	-9.84779E-005	0.00000E+000	-4.66286E-005	-5.99601E-002	4.73594E-001	3.57880E+000	9	...........
	35	0.48	4.63184E-001	-9.86811E-005	0.00000E+000	-4.57075E-005	-5.99601E-002	4.63287E-001	3.57880E+000	9	...........
	36	0.493333	4.52935E-001	-9.88884E-005	0.00000E+000	-4.47900E-005	-5.99601E-002	4.53035E-001	3.57880E+000	9	...........
	37	0.506667	4.42742E-001	-9.99480E-005	0.00000E+000	-4.42512E-005	-5.99601E-002	4.42835E-001	3.57880E+000	9	...........
	38	0.52	4.32606E-001	-9.91395E-005	0.00000E+000	-4.28884E-005	-5.99601E-002	4.32699E-001	3.57880E+000	9	...........
	39	0.533333	4.22528E-001	-9.87301E-005	0.00000E+000	-4.17162E-005	-5.99601E-002	4.22615E-001	3.57880E+000	9	...........
	40	0.546667	4.12508E-001	-9.89447E-005	0.00000E+000	-4.08155E-005	-5.99601E-002	4.12588E-001	3.57880E+000	9	...........
	41	0.56	4.02544E-001	-9.85519E-005	0.00000E+000	-3.96715E-005	-5.99601E-002	4.02621E-001	3.57880E+000	9	...........
	42	0.573333	3.92637E-001	-9.96813E-005	0.00000E+000	-3.91386E-005	-5.99601E-002	3.92707E-001	3.57880E+000	9	...........
	43	0.586667	3.82788E-001	-9.94417E-005	0.00000E+000	-3.80651E-005	-5.99601E-002	3.82860E-001	3.57880E+000	9	...........
	44	0.6	3.72999E-001	-9.86030E-005	0.00000E+000	-3.67788E-005	-5.99601E-002	3.73068E-001	3.57880E+000	9	...........
	45	0.613333	3.63262E-001	-9.94083E-005	0.00000E+000	-3.61112E-005	-5.99601E-002	3.63335E-001	3.57880E+000	9	...........
	46	0.626667	3.53583E-001	-9.93260E-005	0.00000E+000	-3.51200E-005	-5.99601E-002	3.53656E-001	3.57880E+000	9	...........
	47	0.64	3.43959E-001	-9.94521E-005	0.00000E+000	-3.42074E-005	-5.99601E-002	3.44027E-001	3.57880E+000	9	...........
	48	0.653333	3.34389E-001	-9.92416E-005	0.00000E+000	-3.31853E-005	-5.99601E-002	3.34453E-001	3.57880E+000	9	...........
	49	0.666667	3.24873E-001	-9.89489E-005	0.00000E+000	-3.21458E-005	-5.99601E-002	3.24934E-001	3.57880E+000	9	...........
	50	0.68	3.15404E-001	-9.97428E-005	0.00000E+000	-3.14593E-005	-5.99601E-002	3.15464E-001	3.57880E+000	9	...........
	51	0.693333	3.05983E-001	-9.92906E-005	0.00000E+000	-3.03812E-005	-5.99601E-002	3.06041E-001	3.57880E+000	9	...........
	52	0.706667	2.96617E-001	-9.84321E-005	0.00000E+000	-2.91966E-005	-5.99601E-002	2.96672E-001	3.57880E+000	9	...........
	53	0.72	2.87291E-001	-9.95678E-005	0.00000E+000	-2.86049E-005	-5.99601E-002	2.87348E-001	3.57880E+000	9	...........
	54	0.733333	2.78016E-001	-9.81268E-005	0.00000E+000	-2.72808E-005	-5.99601E-002	2.78067E-001	3.57880E+000	9	...........
	55	0.746667	2.68784E-001	-9.94531E-005	0.00000E+000	-2.67314E-005	-5.99601E-002	2.68831E-001	3.57880E+000	9	...........
	56	0.76	2.59587E-001	-9.90124E-005	0.00000E+000	-2.57024E-005	-5.99601E-002	2.59640E-001	3.57880E+000	9	...........
	57	0.773333	2.50440E-001	-9.96105E-005	0.00000E+000	-2.49465E-005	-5.99601E-002	2.50488E-001	3.57880E+000	9	...........
	58	0.786667	2.41341E-001	-9.90354E-005	0.00000E+000	-2.39012E-005	-5.99601E-002	2.41382E-001	3.57880E+000	9	...........
	59	0.8	2.32281E-001	-9.87728E-005	0.00000E+000	-2.29431E-005	-5.99601E-002	2.32320E-001	3.57880E+000	9	...........
	60	0.813333	2.23262E-001	-9.93906E-005	0.00000E+000	-2.21902E-005	-5.99601E-002	2.23298E-001	3.57880E+000	9	...........
	61	0.826667	2.14291E-001	-9.94438E-005	0.00000E+000	-2.13099E-005	-5.99601E-002	2.14328E-001	3.57880E+000	9	...........
	62	0.84	2.05366E-001	-9.99668E-005	0.00000E+000	-2.05298E-005	-5.99601E-002	2.05403E-001	3.57880E+000	9	...........
	63	0.853333	1.96493E-001	-9.90041E-005	0.00000E+000	-1.94536E-005	-5.99601E-002	1.96527E-001	3.57880E+000	9	...........
	64	0.866667	1.87674E-001	-9.85780E-005	0.00000E+000	-1.85005E-005	-5.99601E-002	1.87709E-001	3.57880E+000	9	...........
	65	0.88	1.78895E-001	-9.88739E-005	0.00000E+000	-1.76880E-005	-5.99601E-002	1.78929E-001	3.57880E+000	9	...........
	66	0.893333	1.70183E-001	-9.85165E-005	0.00000E+000	-1.67658E-005	-5.99601E-002	1.70211E-001	3.57880E+000	9	...........
	67	0.906667	1.61527E-001	-9.87426E-005	0.00000E+000	-1.59496E-005	-5.99601E-002	1.61555E-001	3.57880E+000	9	...........
	68	0.92	1.52935E-001	-9.96938E-005	0.00000E+000	-1.52467E-005	-5.99601E-002	1.52948E-001	3.57880E+000	9	...........
	69	0.933333	1.44394E-001	-9.96334E-005	0.00000E+000	-1.43865E-005	-5.99601E-002	1.44414E-001	3.57880E+000	9	...........
	70	0.946667	1.35932E-001	-9.86530E-005	0.00000E+000	-1.34101E-005	-5.99601E-002	1.35951E-001	3.57880E+000	9	...........
	71	0.96	1.27532E-001	-9.98168E-005	0.00000E+000	-1.27299E-005	-5.99601E-002	1.27549E-001	3.57880E+000	9	...........
	72	0.97333	1.19199E-001	-9.90770E-005	0.00000E+000	-1.18099E-005	-5.99601E-002	1.19210E-001	3.57880E+000	9	...........
	73	0.98667	1.10938E-001	-9.93312E-005	0.00000E+000	-1.10196E-005	-5.99601E-002	1.10951E-001	3.57880E+000	9	...........
	74	1	1.02746E-001	-9.87749E-005	0.00000E+000	-1.01488E-005	-5.99601E-002	1.02759E-001	3.57880E+000	9	...........
	75	1.01333	9.46319E-002	-9.91812E-005	0.00000E+000	-9.38570E-006	-5.99601E-002	9.46406E-002	3.57880E+000	9	...........
	76	1.02667	8.65844E-002	-9.81393E-005	0.00000E+000	-8.49734E-006	-5.99601E-002	8.65885E-002	3.57880E+000	9	...........
	77	1.04	7.86055E-002	-9.89562E-005	0.00000E+000	-7.77850E-006	-5.99601E-002	7.86111E-002	3.57880E+000	9	...........
	78	1.05333	7.06988E-002	-9.87915E-005	0.00000E+000	-6.98445E-006	-5.99601E-002	7.06942E-002	3.57880E+000	9	...........
	79	1.06667	6.28603E-002	-9.86509E-005	0.00000E+000	-6.20123E-006	-5.99601E-002	6.28569E-002	3.57880E+000	9	...........
	80	1.08	5.50887E-002	-9.84571E-005	0.00000E+000	-5.42387E-006	-5.99601E-002	5.50863E-002	3.57880E+000	9	...........
	81	1.09333	4.74130E-002	-9.89447E-005	0.00000E+000	-4.69127E-006	-5.99601E-002	4.74043E-002	3.57880E+000	9	...........
	82	1.10667	3.97913E-002	-9.88749E-005	0.00000E+000	-3.93436E-006	-5.99601E-002	3.97839E-002	3.57880E+000	9	...........
	83	1.12	3.22181E-002	-9.85488E-005	0.00000E+000	-3.17506E-006	-5.99601E-002	3.22103E-002	3.57880E+000	9	...........
	84	1.13333	2.47174E-002	-9.92354E-005	0.00000E+000	-2.45284E-006	-5.99601E-002	2.46996E-002	3.57880E+000	9	...........
	85	1.14667	1.72779E-002	-9.89968E-005	0.00000E+000	-1.71046E-006	-5.99601E-002	1.72560E-002	3.57880E+000	9	...........
	86	1.16	9.90279E-003	-9.94052E-005	0.00000E+000	-9.84389E-007	-5.99601E-002	9.87547E-003	3.57880E+000	9	...........
	87	1.17333	2.59077E-003	-9.92541E-005	0.00000E+000	-2.57145E-007	-5.99601E-002	2.55595E-003	3.57880E+000	9	...........
STARTTIMEOFFSET	QUANT	1068.507	Start Time Offset (s)
