EXPLAIN
TAG	PWR800_DISCHARGE
TITLE	LABEL	PWR Cyclic Charge Discharge (Cell) - Discharge Step	Test &Identifier
DATE	LABEL	13-7-2017	Date
TIME	LABEL	15:24:17	Time
NOTES	NOTES	2	&Notes...
	supercap test cell
	6M KOH
PSTAT	PSTAT	IFC5000-01520	Potentiostat
CAPACITY	QUANT	1.00000E-003	Capacity (A-hr)
CELLTYPE	SELECTOR	1	&Cell Type
WORKINGCONNECTION	SELECTOR	0	&Working Lead
MAXDISCHARGETIME	VARIABLEANDUNITS	1.00000E+002	s	1.00000E+002	second(s)	Max &Discharge Time
DISCHARGEMODE	MULTIPARAM	0	1.00000E-004	&Discharge Mode	Constant Current	Amp(s)
SAMPLETIME	QUANT	1.00000E-002	Sa&mple Period (s)
DISCHARGESTOPAT1	MULTIPARAM	3	0.00000E+000	Discharge Stop At &1	Voltage < Limit	V
DISCHARGESTOPAT2	MULTIPARAM	0	0.00000E+000	Discharge Stop At &2	None	N/A
AESBHCSELECTOR	TOGGLE	F	Save Both Half Cells
IRCOMP	TOGGLE	F	IR &Measure
EOC	QUANT	0	Open Circuit (V)
SEQUENCER	TOGGLE	TRUE	Run as Sequence
PSTATMODEL	IQUANT	53	Pstat Model
PSTATSECTION	LABEL	IFC5000-01520	Pstat Section
PSTATSERIALNO	LABEL	01520	Pstat Serial Number
CTRLMODE	IQUANT	0	Control Mode
ELECTROMETER	IQUANT	1	RE=0 or CS=1
IESTAB	IQUANT	0	I/E Stability
CASPEED	IQUANT	4	Control Amp Speed
CONVENTION	IQUANT	1	Current Convention
ICHRANGE	IQUANT	2	Ich Range
ICHRANGEMODE	TOGGLE	T	Ich Auto Range
ICHOFFSETENABLE	TOGGLE	F	Ich Offset Enable
ICHOFFSET	QUANT	0	Ich Offset (V)
ICHFILTER	IQUANT	1	Ich Filter
VCHRANGE	IQUANT	2	Vch Range
VCHRANGEMODE	TOGGLE	T	Vch Auto Range
VCHOFFSETENABLE	TOGGLE	F	Vch Offset Enable
VCHOFFSET	QUANT	0	Vch Offset (V)
VCHFILTER	IQUANT	1	Vch Filter
IERANGELOWERLIMIT	IQUANT	9	I/E Range Lower Limit
IERANGEMODE	TOGGLE	F	I/E AutoRange
IERANGE	IQUANT	9	I/E Range
ACHSELECT	IQUANT	1	Ach Select
ACHRANGE	IQUANT	2	Ach Range
ACHOFFSETENABLE	TOGGLE	F	Ach Offset Enable
ACHOFFSET	QUANT	0	Ach Offset (V)
ACHFILTER	IQUANT	1	Ach Filter
CABLEID	IQUANT	14	Cable ID
DCCALDATE	LABEL	5-7-2017	DC Calibration Date
ACCALDATE	LABEL	12/3/2015	AC Calibration Date
FRAMEWORKVERSION	QUANT	7.01	Framework Version
INSTRUMENTVERSION	LABEL	4.00	Instrument Version
CURVE	TABLE	89
	Pt	T	Vf	Im	Vu	Pwr	Sig	Ach	Temp	IERange	Over
	#	s	V	A	V	W	V	V	deg C	#	bits
	0	0.013333	8.50121E-001	-9.80101E-005	0.00000E+000	-8.33204E-005	-5.99601E-002	8.50459E-001	3.57900E+000	9	...........
	1	0.026667	8.36307E-001	-9.95490E-005	0.00000E+000	-8.32535E-005	-5.99601E-002	8.36650E-001	3.57900E+000	9	...........
	2	0.04	8.23331E-001	-9.83581E-005	0.00000E+000	-8.09813E-005	-5.99601E-002	8.23657E-001	3.57900E+000	9	...........
	3	0.053333	8.10925E-001	-9.91687E-005	0.00000E+000	-8.04184E-005	-5.99601E-002	8.11236E-001	3.57900E+000	9	...........
	4	0.066667	7.98952E-001	-9.90812E-005	0.00000E+000	-7.91611E-005	-5.99601E-002	7.99242E-001	3.57900E+000	9	...........
	5	0.08	7.87222E-001	-9.87863E-005	0.00000E+000	-7.77668E-005	-5.99601E-002	7.87514E-001	3.57900E+000	9	...........
	6	0.093333	7.75754E-001	-9.88582E-005	0.00000E+000	-7.66897E-005	-5.99601E-002	7.76040E-001	3.57900E+000	9	...........
	7	0.106667	7.64423E-001	-9.78122E-005	0.00000E+000	-7.47699E-005	-5.99601E-002	7.64699E-001	3.57900E+000	9	...........
	8	0.12	7.53219E-001	-9.93448E-005	0.00000E+000	-7.48283E-005	-5.99601E-002	7.53499E-001	3.57900E+000	9	...........
	9	0.133333	7.42132E-001	-9.90604E-005	0.00000E+000	-7.35159E-005	-5.99601E-002	7.42409E-001	3.57900E+000	9	...........
	10	0.146667	7.31110E-001	-9.80049E-005	0.00000E+000	-7.16524E-005	-5.99601E-002	7.31371E-001	3.57900E+000	9	...........
	11	0.16	7.20145E-001	-9.89885E-005	0.00000E+000	-7.12861E-005	-5.99601E-002	7.20406E-001	3.57900E+000	9	...........
	12	0.173333	7.09177E-001	-9.95271E-005	0.00000E+000	-7.05824E-005	-5.99601E-002	7.09464E-001	3.57900E+000	9	...........
	13	0.186667	6.98321E-001	-9.91354E-005	0.00000E+000	-6.92283E-005	-5.99601E-002	6.98585E-001	3.57900E+000	9	...........
	14	0.2	6.87454E-001	-9.82237E-005	0.00000E+000	-6.75243E-005	-5.99601E-002	6.87722E-001	3.57900E+000	9	...........
	15	0.213333	6.76627E-001	-9.84196E-005	0.00000E+000	-6.65933E-005	-5.99601E-002	6.76910E-001	3.57900E+000	9	...........
	16	0.226667	6.65807E-001	-9.93719E-005	0.00000E+000	-6.61625E-005	-5.99601E-002	6.66087E-001	3.57900E+000	9	...........
	17	0.24	6.55024E-001	-9.90749E-005	0.00000E+000	-6.48964E-005	-5.99601E-002	6.55274E-001	3.57900E+000	9	...........
	18	0.253333	6.44236E-001	-9.99053E-005	0.00000E+000	-6.43626E-005	-5.99601E-002	6.44492E-001	3.57900E+000	9	...........
	19	0.266667	6.33432E-001	-9.94229E-005	0.00000E+000	-6.29776E-005	-5.99601E-002	6.33719E-001	3.57900E+000	9	...........
	20	0.28	6.22703E-001	-9.84331E-005	0.00000E+000	-6.12946E-005	-5.99601E-002	6.22959E-001	3.57900E+000	9	...........
	21	0.293333	6.11940E-001	-9.89572E-005	0.00000E+000	-6.05559E-005	-5.99601E-002	6.12232E-001	3.57900E+000	9	...........
	22	0.306667	6.01216E-001	-9.86884E-005	0.00000E+000	-5.93331E-005	-5.99601E-002	6.01513E-001	3.57900E+000	9	...........
	23	0.32	5.90511E-001	-9.86582E-005	0.00000E+000	-5.82587E-005	-5.99601E-002	5.90800E-001	3.57900E+000	9	...........
	24	0.333333	5.79822E-001	-9.84936E-005	0.00000E+000	-5.71087E-005	-5.99601E-002	5.80095E-001	3.57900E+000	9	...........
	25	0.346667	5.69183E-001	-9.91656E-005	0.00000E+000	-5.64434E-005	-5.99601E-002	5.69453E-001	3.57900E+000	9	...........
	26	0.36	5.58519E-001	-9.90072E-005	0.00000E+000	-5.52974E-005	-5.99601E-002	5.58809E-001	3.57900E+000	9	...........
	27	0.373333	5.47934E-001	-9.76715E-005	0.00000E+000	-5.35175E-005	-5.99601E-002	5.48162E-001	3.57900E+000	9	...........
	28	0.386667	5.37339E-001	-9.90499E-005	0.00000E+000	-5.32234E-005	-5.99601E-002	5.37587E-001	3.57900E+000	9	...........
	29	0.4	5.26781E-001	-9.87426E-005	0.00000E+000	-5.20157E-005	-5.99601E-002	5.27002E-001	3.57900E+000	9	...........
	30	0.413333	5.16300E-001	-9.94896E-005	0.00000E+000	-5.13665E-005	-5.99601E-002	5.16531E-001	3.57900E+000	9	...........
	31	0.426667	5.05763E-001	-1.00170E-004	0.00000E+000	-5.06623E-005	-5.99601E-002	5.06041E-001	3.57900E+000	9	...........
	32	0.44	4.95380E-001	-9.86144E-005	0.00000E+000	-4.88516E-005	-5.99601E-002	4.95599E-001	3.57900E+000	9	...........
	33	0.453333	4.85138E-001	-9.88999E-005	0.00000E+000	-4.79802E-005	-5.99601E-002	4.85302E-001	3.57900E+000	9	...........
	34	0.466667	4.75027E-001	-9.87540E-005	0.00000E+000	-4.69108E-005	-5.99601E-002	4.75122E-001	3.57900E+000	9	...........
	35	0.48	4.64747E-001	-9.95417E-005	0.00000E+000	-4.62617E-005	-5.99601E-002	4.64840E-001	3.57900E+000	9	...........
	36	0.493333	4.54519E-001	-9.84415E-005	0.00000E+000	-4.47435E-005	-5.99601E-002	4.54608E-001	3.57900E+000	9	...........
	37	0.506667	4.44341E-001	-9.84248E-005	0.00000E+000	-4.37342E-005	-5.99601E-002	4.44431E-001	3.57900E+000	9	...........
	38	0.52	4.34217E-001	-9.89812E-005	0.00000E+000	-4.29793E-005	-5.99601E-002	4.34309E-001	3.57900E+000	9	...........
	39	0.533333	4.24158E-001	-9.83696E-005	0.00000E+000	-4.17242E-005	-5.99601E-002	4.24247E-001	3.57890E+000	9	...........
	40	0.546667	4.14158E-001	-9.86321E-005	0.00000E+000	-4.08492E-005	-5.99601E-002	4.14243E-001	3.57880E+000	9	...........
	41	0.56	4.04211E-001	-9.94875E-005	0.00000E+000	-4.02140E-005	-5.99601E-002	4.04294E-001	3.57880E+000	9	...........
	42	0.573333	3.94329E-001	-9.89249E-005	0.00000E+000	-3.90089E-005	-5.99601E-002	3.94402E-001	3.57880E+000	9	...........
	43	0.586667	3.84494E-001	-9.93375E-005	0.00000E+000	-3.81947E-005	-5.99601E-002	3.84563E-001	3.57880E+000	9	...........
	44	0.6	3.74717E-001	-9.85853E-005	0.00000E+000	-3.69416E-005	-5.99601E-002	3.74792E-001	3.57880E+000	9	...........
	45	0.613333	3.64998E-001	-9.87426E-005	0.00000E+000	-3.60409E-005	-5.99601E-002	3.65076E-001	3.57880E+000	9	...........
	46	0.626667	3.55336E-001	-9.97365E-005	0.00000E+000	-3.54400E-005	-5.99601E-002	3.55407E-001	3.57880E+000	9	...........
	47	0.64	3.45722E-001	-9.86749E-005	0.00000E+000	-3.41140E-005	-5.99601E-002	3.45795E-001	3.57880E+000	9	...........
	48	0.653333	3.36162E-001	-9.91666E-005	0.00000E+000	-3.33360E-005	-5.99601E-002	3.36229E-001	3.57880E+000	9	...........
	49	0.666667	3.26655E-001	-9.84977E-005	0.00000E+000	-3.21748E-005	-5.99601E-002	3.26723E-001	3.57880E+000	9	...........
	50	0.68	3.17191E-001	-9.92823E-005	0.00000E+000	-3.14915E-005	-5.99601E-002	3.17259E-001	3.57880E+000	9	...........
	51	0.693333	3.07779E-001	-9.87811E-005	0.00000E+000	-3.04028E-005	-5.99601E-002	3.07845E-001	3.57880E+000	9	...........
	52	0.706667	2.98417E-001	-9.86822E-005	0.00000E+000	-2.94485E-005	-5.99601E-002	2.98475E-001	3.57880E+000	9	...........
	53	0.72	2.89105E-001	-9.84550E-005	0.00000E+000	-2.84638E-005	-5.99601E-002	2.89161E-001	3.57880E+000	9	...........
	54	0.733333	2.79841E-001	-9.88593E-005	0.00000E+000	-2.76649E-005	-5.99601E-002	2.79890E-001	3.57880E+000	9	...........
	55	0.746667	2.70614E-001	-9.89020E-005	0.00000E+000	-2.67642E-005	-5.99601E-002	2.70664E-001	3.57880E+000	9	...........
	56	0.76	2.61432E-001	-9.80529E-005	0.00000E+000	-2.56342E-005	-5.99601E-002	2.61479E-001	3.57880E+000	9	...........
	57	0.773333	2.52289E-001	-9.99314E-005	0.00000E+000	-2.52116E-005	-5.99601E-002	2.52339E-001	3.57880E+000	9	...........
	58	0.786667	2.43201E-001	-9.89426E-005	0.00000E+000	-2.40630E-005	-5.99601E-002	2.43244E-001	3.57880E+000	9	...........
	59	0.8	2.34148E-001	-9.87655E-005	0.00000E+000	-2.31257E-005	-5.99601E-002	2.34185E-001	3.57880E+000	9	...........
	60	0.813333	2.25141E-001	-9.93062E-005	0.00000E+000	-2.23579E-005	-5.99601E-002	2.25176E-001	3.57880E+000	9	...........
	61	0.826667	2.16175E-001	-9.89864E-005	0.00000E+000	-2.13984E-005	-5.99601E-002	2.16212E-001	3.57880E+000	9	...........
	62	0.84	2.07262E-001	-9.98345E-005	0.00000E+000	-2.06919E-005	-5.99601E-002	2.07296E-001	3.57880E+000	9	...........
	63	0.853333	1.98396E-001	-9.92323E-005	0.00000E+000	-1.96873E-005	-5.99601E-002	1.98430E-001	3.57880E+000	9	...........
	64	0.866667	1.89582E-001	-9.73548E-005	0.00000E+000	-1.84567E-005	-5.99601E-002	1.89608E-001	3.57880E+000	9	...........
	65	0.88	1.80807E-001	-9.87197E-005	0.00000E+000	-1.78492E-005	-5.99601E-002	1.80837E-001	3.57880E+000	9	...........
	66	0.893333	1.72098E-001	-9.89968E-005	0.00000E+000	-1.70372E-005	-5.99601E-002	1.72124E-001	3.57880E+000	9	...........
	67	0.906667	1.63446E-001	-9.86686E-005	0.00000E+000	-1.61270E-005	-5.99601E-002	1.63468E-001	3.57880E+000	9	...........
	68	0.92	1.54856E-001	-9.82196E-005	0.00000E+000	-1.52099E-005	-5.99601E-002	1.54872E-001	3.57880E+000	9	...........
	69	0.933333	1.46324E-001	-9.89280E-005	0.00000E+000	-1.44756E-005	-5.99601E-002	1.46337E-001	3.57880E+000	9	...........
	70	0.946667	1.37851E-001	-9.89874E-005	0.00000E+000	-1.36456E-005	-5.99601E-002	1.37866E-001	3.57880E+000	9	...........
	71	0.96	1.29449E-001	-9.86884E-005	0.00000E+000	-1.27751E-005	-5.99601E-002	1.29458E-001	3.57880E+000	9	...........
	72	0.97333	1.21109E-001	-9.91854E-005	0.00000E+000	-1.20123E-005	-5.99601E-002	1.21120E-001	3.57880E+000	9	...........
	73	0.98667	1.12848E-001	-9.84529E-005	0.00000E+000	-1.11102E-005	-5.99601E-002	1.12853E-001	3.57880E+000	9	...........
	74	1	1.04651E-001	-9.91791E-005	0.00000E+000	-1.03792E-005	-5.99601E-002	1.04663E-001	3.57880E+000	9	...........
	75	1.01333	9.65251E-002	-9.89322E-005	0.00000E+000	-9.54944E-006	-5.99601E-002	9.65321E-002	3.57880E+000	9	...........
	76	1.02667	8.84716E-002	-9.86780E-005	0.00000E+000	-8.73020E-006	-5.99601E-002	8.84745E-002	3.57880E+000	9	...........
	77	1.04	8.04874E-002	-9.95000E-005	0.00000E+000	-8.00850E-006	-5.99601E-002	8.04901E-002	3.57880E+000	9	...........
	78	1.05333	7.25731E-002	-9.97980E-005	0.00000E+000	-7.24265E-006	-5.99601E-002	7.25710E-002	3.57880E+000	9	...........
	79	1.06667	6.47242E-002	-9.80779E-005	0.00000E+000	-6.34801E-006	-5.99601E-002	6.47232E-002	3.57880E+000	9	...........
	80	1.08	5.69487E-002	-9.91135E-005	0.00000E+000	-5.64439E-006	-5.99601E-002	5.69431E-002	3.57880E+000	9	...........
	81	1.09333	4.92499E-002	-9.86801E-005	0.00000E+000	-4.85999E-006	-5.99601E-002	4.92377E-002	3.57880E+000	9	...........
	82	1.10667	4.16342E-002	-9.95521E-005	0.00000E+000	-4.14478E-006	-5.99601E-002	4.16228E-002	3.57880E+000	9	...........
	83	1.12	3.40570E-002	-9.89770E-005	0.00000E+000	-3.37086E-006	-5.99601E-002	3.40463E-002	3.57880E+000	9	...........
	84	1.13333	2.65438E-002	-9.97751E-005	0.00000E+000	-2.64841E-006	-5.99601E-002	2.65255E-002	3.57880E+000	9	...........
	85	1.14667	1.90932E-002	-9.93229E-005	0.00000E+000	-1.89639E-006	-5.99601E-002	1.90755E-002	3.57880E+000	9	...........
	86	1.16	1.17081E-002	-9.90249E-005	0.00000E+000	-1.15939E-006	-5.99601E-002	1.16852E-002	3.57880E+000	9	...........
	87	1.17333	4.38705E-003	-9.95782E-005	0.00000E+000	-4.36854E-007	-5.99601E-002	4.35574E-003	3.57880E+000	9	...........
	88	1.17667	-1.46195E-004	-9.90270E-005	0.00000E+000	1.44773E-008	-5.99601E-002	-1.92205E-004	3.57880E+000	9	...........
STARTTIMEOFFSET	QUANT	1008.331	Start Time Offset (s)
