EXPLAIN
TAG	PWR800_DISCHARGE
TITLE	LABEL	PWR Cyclic Charge Discharge (Cell) - Discharge Step	Test &Identifier
DATE	LABEL	13-7-2017	Date
TIME	LABEL	15:44:16	Time
NOTES	NOTES	2	&Notes...
	supercap test cell
	6M KOH
PSTAT	PSTAT	IFC5000-01520	Potentiostat
CAPACITY	QUANT	1.00000E-003	Capacity (A-hr)
CELLTYPE	SELECTOR	1	&Cell Type
WORKINGCONNECTION	SELECTOR	0	&Working Lead
MAXDISCHARGETIME	VARIABLEANDUNITS	1.00000E+002	s	1.00000E+002	second(s)	Max &Discharge Time
DISCHARGEMODE	MULTIPARAM	0	1.00000E-004	&Discharge Mode	Constant Current	Amp(s)
SAMPLETIME	QUANT	1.00000E-002	Sa&mple Period (s)
DISCHARGESTOPAT1	MULTIPARAM	3	0.00000E+000	Discharge Stop At &1	Voltage < Limit	V
DISCHARGESTOPAT2	MULTIPARAM	0	0.00000E+000	Discharge Stop At &2	None	N/A
AESBHCSELECTOR	TOGGLE	F	Save Both Half Cells
IRCOMP	TOGGLE	F	IR &Measure
EOC	QUANT	0	Open Circuit (V)
SEQUENCER	TOGGLE	TRUE	Run as Sequence
PSTATMODEL	IQUANT	53	Pstat Model
PSTATSECTION	LABEL	IFC5000-01520	Pstat Section
PSTATSERIALNO	LABEL	01520	Pstat Serial Number
CTRLMODE	IQUANT	0	Control Mode
ELECTROMETER	IQUANT	1	RE=0 or CS=1
IESTAB	IQUANT	0	I/E Stability
CASPEED	IQUANT	4	Control Amp Speed
CONVENTION	IQUANT	1	Current Convention
ICHRANGE	IQUANT	2	Ich Range
ICHRANGEMODE	TOGGLE	T	Ich Auto Range
ICHOFFSETENABLE	TOGGLE	F	Ich Offset Enable
ICHOFFSET	QUANT	0	Ich Offset (V)
ICHFILTER	IQUANT	1	Ich Filter
VCHRANGE	IQUANT	2	Vch Range
VCHRANGEMODE	TOGGLE	T	Vch Auto Range
VCHOFFSETENABLE	TOGGLE	F	Vch Offset Enable
VCHOFFSET	QUANT	0	Vch Offset (V)
VCHFILTER	IQUANT	1	Vch Filter
IERANGELOWERLIMIT	IQUANT	9	I/E Range Lower Limit
IERANGEMODE	TOGGLE	F	I/E AutoRange
IERANGE	IQUANT	9	I/E Range
ACHSELECT	IQUANT	1	Ach Select
ACHRANGE	IQUANT	2	Ach Range
ACHOFFSETENABLE	TOGGLE	F	Ach Offset Enable
ACHOFFSET	QUANT	0	Ach Offset (V)
ACHFILTER	IQUANT	1	Ach Filter
CABLEID	IQUANT	14	Cable ID
DCCALDATE	LABEL	5-7-2017	DC Calibration Date
ACCALDATE	LABEL	12/3/2015	AC Calibration Date
FRAMEWORKVERSION	QUANT	7.01	Framework Version
INSTRUMENTVERSION	LABEL	4.00	Instrument Version
CURVE	TABLE	86
	Pt	T	Vf	Im	Vu	Pwr	Sig	Ach	Temp	IERange	Over
	#	s	V	A	V	W	V	V	deg C	#	bits
	0	0.013333	8.45395E-001	-9.87353E-005	0.00000E+000	-8.34703E-005	-5.99601E-002	8.45726E-001	3.57870E+000	9	...........
	1	0.026667	8.31095E-001	-9.90187E-005	0.00000E+000	-8.22939E-005	-5.99601E-002	8.31412E-001	3.57870E+000	9	...........
	2	0.04	8.17660E-001	-9.86332E-005	0.00000E+000	-8.06484E-005	-5.99601E-002	8.17952E-001	3.57870E+000	9	...........
	3	0.053333	8.04776E-001	-9.83039E-005	0.00000E+000	-7.91127E-005	-5.99601E-002	8.05067E-001	3.57870E+000	9	...........
	4	0.066667	7.92334E-001	-9.80633E-005	0.00000E+000	-7.76989E-005	-5.99601E-002	7.92605E-001	3.57870E+000	9	...........
	5	0.08	7.80140E-001	-9.89583E-005	0.00000E+000	-7.72013E-005	-5.99601E-002	7.80386E-001	3.57870E+000	9	...........
	6	0.093333	7.68169E-001	-9.86228E-005	0.00000E+000	-7.57590E-005	-5.99601E-002	7.68456E-001	3.57870E+000	9	...........
	7	0.106667	7.56372E-001	-9.97699E-005	0.00000E+000	-7.54632E-005	-5.99601E-002	7.56606E-001	3.57870E+000	9	...........
	8	0.12	7.44700E-001	-9.95230E-005	0.00000E+000	-7.41148E-005	-5.99601E-002	7.44956E-001	3.57870E+000	9	...........
	9	0.133333	7.33111E-001	-9.91041E-005	0.00000E+000	-7.26543E-005	-5.99601E-002	7.33360E-001	3.57870E+000	9	...........
	10	0.146667	7.21604E-001	-9.82237E-005	0.00000E+000	-7.08787E-005	-5.99601E-002	7.21855E-001	3.57870E+000	9	...........
	11	0.16	7.10099E-001	-9.95344E-005	0.00000E+000	-7.06793E-005	-5.99601E-002	7.10370E-001	3.57870E+000	9	...........
	12	0.173333	6.98706E-001	-9.99303E-005	0.00000E+000	-6.98219E-005	-5.99601E-002	6.98950E-001	3.57870E+000	9	...........
	13	0.186667	6.87353E-001	-9.92969E-005	0.00000E+000	-6.82520E-005	-5.99601E-002	6.87568E-001	3.57870E+000	9	...........
	14	0.2	6.76026E-001	-9.89051E-005	0.00000E+000	-6.68625E-005	-5.99601E-002	6.76235E-001	3.57870E+000	9	...........
	15	0.213333	6.64696E-001	-9.91427E-005	0.00000E+000	-6.58997E-005	-5.99601E-002	6.64934E-001	3.57870E+000	9	...........
	16	0.226667	6.53409E-001	-9.81841E-005	0.00000E+000	-6.41544E-005	-5.99601E-002	6.53633E-001	3.57870E+000	9	...........
	17	0.24	6.42131E-001	-9.90604E-005	0.00000E+000	-6.36098E-005	-5.99601E-002	6.42369E-001	3.57870E+000	9	...........
	18	0.253333	6.30888E-001	-9.88499E-005	0.00000E+000	-6.23632E-005	-5.99601E-002	6.31097E-001	3.57870E+000	9	...........
	19	0.266667	6.19680E-001	-9.99689E-005	0.00000E+000	-6.19488E-005	-5.99601E-002	6.19881E-001	3.57870E+000	9	...........
	20	0.28	6.08431E-001	-9.86874E-005	0.00000E+000	-6.00445E-005	-5.99601E-002	6.08652E-001	3.57870E+000	9	...........
	21	0.293333	5.97285E-001	-9.98199E-005	0.00000E+000	-5.96209E-005	-5.99601E-002	5.97510E-001	3.57870E+000	9	...........
	22	0.306667	5.86136E-001	-9.88176E-005	0.00000E+000	-5.79205E-005	-5.99601E-002	5.86352E-001	3.57870E+000	9	...........
	23	0.32	5.75048E-001	-9.87749E-005	0.00000E+000	-5.68003E-005	-5.99601E-002	5.75253E-001	3.57870E+000	9	...........
	24	0.333333	5.63952E-001	-9.94104E-005	0.00000E+000	-5.60627E-005	-5.99601E-002	5.64182E-001	3.57870E+000	9	...........
	25	0.346667	5.52928E-001	-9.92187E-005	0.00000E+000	-5.48608E-005	-5.99601E-002	5.53134E-001	3.57870E+000	9	...........
	26	0.36	5.41937E-001	-9.87665E-005	0.00000E+000	-5.35252E-005	-5.99601E-002	5.42147E-001	3.57870E+000	9	...........
	27	0.373333	5.30948E-001	-9.88739E-005	0.00000E+000	-5.24968E-005	-5.99601E-002	5.31184E-001	3.57870E+000	9	...........
	28	0.386667	5.20070E-001	-9.83144E-005	0.00000E+000	-5.11303E-005	-5.99601E-002	5.20285E-001	3.57870E+000	9	...........
	29	0.4	5.09192E-001	-9.88124E-005	0.00000E+000	-5.03145E-005	-5.99601E-002	5.09429E-001	3.57870E+000	9	...........
	30	0.413333	4.98386E-001	-9.95063E-005	0.00000E+000	-4.95925E-005	-5.99601E-002	4.98634E-001	3.57870E+000	9	...........
	31	0.426667	4.87687E-001	-9.94917E-005	0.00000E+000	-4.85208E-005	-5.99601E-002	4.87932E-001	3.57870E+000	9	...........
	32	0.44	4.77331E-001	-9.80091E-005	0.00000E+000	-4.67828E-005	-5.99601E-002	4.77433E-001	3.57870E+000	9	...........
	33	0.453333	4.66712E-001	-9.94281E-005	0.00000E+000	-4.64044E-005	-5.99601E-002	4.66808E-001	3.57870E+000	9	...........
	34	0.466667	4.56154E-001	-9.83540E-005	0.00000E+000	-4.48646E-005	-5.99601E-002	4.56248E-001	3.57870E+000	9	...........
	35	0.48	4.45666E-001	-9.89103E-005	0.00000E+000	-4.40809E-005	-5.99601E-002	4.45756E-001	3.57870E+000	9	...........
	36	0.493333	4.35239E-001	-9.93021E-005	0.00000E+000	-4.32202E-005	-5.99601E-002	4.35325E-001	3.57870E+000	9	...........
	37	0.506667	4.24880E-001	-9.85623E-005	0.00000E+000	-4.18771E-005	-5.99601E-002	4.24968E-001	3.57870E+000	9	...........
	38	0.52	4.14596E-001	-9.90093E-005	0.00000E+000	-4.10489E-005	-5.99601E-002	4.14677E-001	3.57870E+000	9	...........
	39	0.533333	4.04382E-001	-9.88322E-005	0.00000E+000	-3.99660E-005	-5.99601E-002	4.04456E-001	3.57870E+000	9	...........
	40	0.546667	3.94237E-001	-9.81987E-005	0.00000E+000	-3.87135E-005	-5.99601E-002	3.94307E-001	3.57870E+000	9	...........
	41	0.56	3.84154E-001	-9.86811E-005	0.00000E+000	-3.79087E-005	-5.99601E-002	3.84226E-001	3.57870E+000	9	...........
	42	0.573333	3.74139E-001	-9.88343E-005	0.00000E+000	-3.69778E-005	-5.99601E-002	3.74211E-001	3.57870E+000	9	...........
	43	0.586667	3.64188E-001	-9.86342E-005	0.00000E+000	-3.59214E-005	-5.99601E-002	3.64258E-001	3.57870E+000	9	...........
	44	0.6	3.54297E-001	-9.93417E-005	0.00000E+000	-3.51964E-005	-5.99601E-002	3.54365E-001	3.57870E+000	9	...........
	45	0.613333	3.44474E-001	-9.92021E-005	0.00000E+000	-3.41726E-005	-5.99601E-002	3.44541E-001	3.57870E+000	9	...........
	46	0.626667	3.34709E-001	-9.84634E-005	0.00000E+000	-3.29566E-005	-5.99601E-002	3.34774E-001	3.57870E+000	9	...........
	47	0.64	3.25007E-001	-9.91041E-005	0.00000E+000	-3.22095E-005	-5.99601E-002	3.25065E-001	3.57870E+000	9	...........
	48	0.653333	3.15353E-001	-9.97397E-005	0.00000E+000	-3.14532E-005	-5.99601E-002	3.15418E-001	3.57870E+000	9	...........
	49	0.666667	3.05765E-001	-9.87343E-005	0.00000E+000	-3.01895E-005	-5.99601E-002	3.05825E-001	3.57870E+000	9	...........
	50	0.68	2.96229E-001	-9.89051E-005	0.00000E+000	-2.92986E-005	-5.99601E-002	2.96281E-001	3.57870E+000	9	...........
	51	0.693333	2.86737E-001	-9.90958E-005	0.00000E+000	-2.84144E-005	-5.99601E-002	2.86791E-001	3.57870E+000	9	...........
	52	0.706667	2.77299E-001	-9.85477E-005	0.00000E+000	-2.73272E-005	-5.99601E-002	2.77355E-001	3.57870E+000	9	...........
	53	0.72	2.67911E-001	-9.95876E-005	0.00000E+000	-2.66806E-005	-5.99601E-002	2.67962E-001	3.57870E+000	9	...........
	54	0.733333	2.58578E-001	-9.84446E-005	0.00000E+000	-2.54556E-005	-5.99601E-002	2.58625E-001	3.57870E+000	9	...........
	55	0.746667	2.49300E-001	-9.80977E-005	0.00000E+000	-2.44557E-005	-5.99601E-002	2.49345E-001	3.57870E+000	9	...........
	56	0.76	2.40066E-001	-9.88207E-005	0.00000E+000	-2.37235E-005	-5.99601E-002	2.40109E-001	3.57870E+000	9	...........
	57	0.773333	2.30886E-001	-9.84352E-005	0.00000E+000	-2.27273E-005	-5.99601E-002	2.30923E-001	3.57870E+000	9	...........
	58	0.786667	2.21751E-001	-9.96469E-005	0.00000E+000	-2.20968E-005	-5.99601E-002	2.21788E-001	3.57870E+000	9	...........
	59	0.8	2.12674E-001	-9.87030E-005	0.00000E+000	-2.09916E-005	-5.99601E-002	2.12709E-001	3.57870E+000	9	...........
	60	0.813333	2.03649E-001	-9.89114E-005	0.00000E+000	-2.01432E-005	-5.99601E-002	2.03681E-001	3.57870E+000	9	...........
	61	0.826667	1.94681E-001	-9.90895E-005	0.00000E+000	-1.92909E-005	-5.99601E-002	1.94710E-001	3.57870E+000	9	...........
	62	0.84	1.85776E-001	-9.83248E-005	0.00000E+000	-1.82664E-005	-5.99601E-002	1.85811E-001	3.57870E+000	9	...........
	63	0.853333	1.76929E-001	-9.82998E-005	0.00000E+000	-1.73921E-005	-5.99601E-002	1.76959E-001	3.57870E+000	9	...........
	64	0.866667	1.68151E-001	-9.88332E-005	0.00000E+000	-1.66189E-005	-5.99601E-002	1.68180E-001	3.57870E+000	9	...........
	65	0.88	1.59440E-001	-9.94479E-005	0.00000E+000	-1.58559E-005	-5.99601E-002	1.59463E-001	3.57870E+000	9	...........
	66	0.893333	1.50800E-001	-9.82789E-005	0.00000E+000	-1.48205E-005	-5.99601E-002	1.50818E-001	3.57870E+000	9	...........
	67	0.906667	1.42224E-001	-9.92104E-005	0.00000E+000	-1.41101E-005	-5.99601E-002	1.42242E-001	3.57951E+000	9	...........
	68	0.92	1.33724E-001	-9.95198E-005	0.00000E+000	-1.33082E-005	-5.99601E-002	1.33744E-001	3.58000E+000	9	...........
	69	0.933333	1.25299E-001	-9.94542E-005	0.00000E+000	-1.24615E-005	-5.99601E-002	1.25312E-001	3.58000E+000	9	...........
	70	0.946667	1.16948E-001	-9.85311E-005	0.00000E+000	-1.15230E-005	-5.99601E-002	1.16965E-001	3.58000E+000	9	...........
	71	0.96	1.08676E-001	-9.89051E-005	0.00000E+000	-1.07487E-005	-5.99601E-002	1.08685E-001	3.58000E+000	9	...........
	72	0.97333	1.00478E-001	-9.84196E-005	0.00000E+000	-9.88905E-006	-5.99601E-002	1.00486E-001	3.58000E+000	9	...........
	73	0.98667	9.23557E-002	-9.91260E-005	0.00000E+000	-9.15485E-006	-5.99601E-002	9.23580E-002	3.58000E+000	9	...........
	74	1	8.43079E-002	-9.86509E-005	0.00000E+000	-8.31705E-006	-5.99601E-002	8.43058E-002	3.58000E+000	9	...........
	75	1.01333	7.63329E-002	-9.92500E-005	0.00000E+000	-7.57604E-006	-5.99601E-002	7.63304E-002	3.58000E+000	9	...........
	76	1.02667	6.84309E-002	-9.87593E-005	0.00000E+000	-6.75819E-006	-5.99601E-002	6.84291E-002	3.58000E+000	9	...........
	77	1.04	6.05973E-002	-9.83154E-005	0.00000E+000	-5.95765E-006	-5.99601E-002	6.05946E-002	3.58000E+000	9	...........
	78	1.05333	5.28351E-002	-9.86363E-005	0.00000E+000	-5.21145E-006	-5.99601E-002	5.28265E-002	3.58000E+000	9	...........
	79	1.06667	4.51753E-002	-1.00190E-004	0.00000E+000	-4.52610E-006	-5.99601E-002	4.51698E-002	3.58000E+000	9	...........
	80	1.08	3.75601E-002	-9.83008E-005	0.00000E+000	-3.69219E-006	-5.99601E-002	3.75484E-002	3.58000E+000	9	...........
	81	1.09333	3.00050E-002	-9.84894E-005	0.00000E+000	-2.95517E-006	-5.99601E-002	2.99902E-002	3.58000E+000	9	...........
	82	1.10667	2.25197E-002	-9.87019E-005	0.00000E+000	-2.22274E-006	-5.99601E-002	2.24956E-002	3.58000E+000	9	...........
	83	1.12	1.50940E-002	-9.93365E-005	0.00000E+000	-1.49938E-006	-5.99601E-002	1.50691E-002	3.58000E+000	9	...........
	84	1.13333	7.73625E-003	-9.86186E-005	0.00000E+000	-7.62939E-007	-5.99601E-002	7.70466E-003	3.58000E+000	9	...........
	85	1.14167	1.80497E-003	-9.87253E-005	0.00000E+000	-1.78197E-007	-5.99601E-002	1.77145E-003	3.58000E+000	9	...........
STARTTIMEOFFSET	QUANT	1909.308	Start Time Offset (s)
