EXPLAIN
TAG	PWR800_DISCHARGE
TITLE	LABEL	PWR Cyclic Charge Discharge (Cell) - Discharge Step	Test &Identifier
DATE	LABEL	13-7-2017	Date
TIME	LABEL	15:51:38	Time
NOTES	NOTES	2	&Notes...
	supercap test cell
	6M KOH
PSTAT	PSTAT	IFC5000-01520	Potentiostat
CAPACITY	QUANT	1.00000E-003	Capacity (A-hr)
CELLTYPE	SELECTOR	1	&Cell Type
WORKINGCONNECTION	SELECTOR	0	&Working Lead
MAXDISCHARGETIME	VARIABLEANDUNITS	1.00000E+002	s	1.00000E+002	second(s)	Max &Discharge Time
DISCHARGEMODE	MULTIPARAM	0	1.00000E-004	&Discharge Mode	Constant Current	Amp(s)
SAMPLETIME	QUANT	1.00000E-002	Sa&mple Period (s)
DISCHARGESTOPAT1	MULTIPARAM	3	0.00000E+000	Discharge Stop At &1	Voltage < Limit	V
DISCHARGESTOPAT2	MULTIPARAM	0	0.00000E+000	Discharge Stop At &2	None	N/A
AESBHCSELECTOR	TOGGLE	F	Save Both Half Cells
IRCOMP	TOGGLE	F	IR &Measure
EOC	QUANT	0	Open Circuit (V)
SEQUENCER	TOGGLE	TRUE	Run as Sequence
PSTATMODEL	IQUANT	53	Pstat Model
PSTATSECTION	LABEL	IFC5000-01520	Pstat Section
PSTATSERIALNO	LABEL	01520	Pstat Serial Number
CTRLMODE	IQUANT	0	Control Mode
ELECTROMETER	IQUANT	1	RE=0 or CS=1
IESTAB	IQUANT	0	I/E Stability
CASPEED	IQUANT	4	Control Amp Speed
CONVENTION	IQUANT	1	Current Convention
ICHRANGE	IQUANT	2	Ich Range
ICHRANGEMODE	TOGGLE	T	Ich Auto Range
ICHOFFSETENABLE	TOGGLE	F	Ich Offset Enable
ICHOFFSET	QUANT	0	Ich Offset (V)
ICHFILTER	IQUANT	1	Ich Filter
VCHRANGE	IQUANT	2	Vch Range
VCHRANGEMODE	TOGGLE	T	Vch Auto Range
VCHOFFSETENABLE	TOGGLE	F	Vch Offset Enable
VCHOFFSET	QUANT	0	Vch Offset (V)
VCHFILTER	IQUANT	1	Vch Filter
IERANGELOWERLIMIT	IQUANT	9	I/E Range Lower Limit
IERANGEMODE	TOGGLE	F	I/E AutoRange
IERANGE	IQUANT	9	I/E Range
ACHSELECT	IQUANT	1	Ach Select
ACHRANGE	IQUANT	2	Ach Range
ACHOFFSETENABLE	TOGGLE	F	Ach Offset Enable
ACHOFFSET	QUANT	0	Ach Offset (V)
ACHFILTER	IQUANT	1	Ach Filter
CABLEID	IQUANT	14	Cable ID
DCCALDATE	LABEL	5-7-2017	DC Calibration Date
ACCALDATE	LABEL	12/3/2015	AC Calibration Date
FRAMEWORKVERSION	QUANT	7.01	Framework Version
INSTRUMENTVERSION	LABEL	4.00	Instrument Version
CURVE	TABLE	86
	Pt	T	Vf	Im	Vu	Pwr	Sig	Ach	Temp	IERange	Over
	#	s	V	A	V	W	V	V	deg C	#	bits
	0	0.013333	8.45954E-001	-9.94240E-005	0.00000E+000	-8.41081E-005	-5.99601E-002	8.46319E-001	3.57900E+000	9	...........
	1	0.026667	8.31665E-001	-9.90812E-005	0.00000E+000	-8.24024E-005	-5.99601E-002	8.32017E-001	3.57900E+000	9	...........
	2	0.04	8.18214E-001	-9.89958E-005	0.00000E+000	-8.09997E-005	-5.99601E-002	8.18548E-001	3.57900E+000	9	...........
	3	0.053333	8.05330E-001	-9.90468E-005	0.00000E+000	-7.97654E-005	-5.99601E-002	8.05647E-001	3.57900E+000	9	...........
	4	0.066667	7.92816E-001	-9.90229E-005	0.00000E+000	-7.85069E-005	-5.99601E-002	7.93111E-001	3.57900E+000	9	...........
	5	0.08	7.80577E-001	-9.86363E-005	0.00000E+000	-7.69933E-005	-5.99601E-002	7.80859E-001	3.57900E+000	9	...........
	6	0.093333	7.68541E-001	-9.90187E-005	0.00000E+000	-7.60999E-005	-5.99601E-002	7.68822E-001	3.57900E+000	9	...........
	7	0.106667	7.56671E-001	-9.86196E-005	0.00000E+000	-7.46226E-005	-5.99601E-002	7.56919E-001	3.57900E+000	9	...........
	8	0.12	7.44928E-001	-9.87884E-005	0.00000E+000	-7.35903E-005	-5.99601E-002	7.45184E-001	3.57900E+000	9	...........
	9	0.133333	7.33231E-001	-9.97011E-005	0.00000E+000	-7.31040E-005	-5.99601E-002	7.33486E-001	3.57900E+000	9	...........
	10	0.146667	7.21633E-001	-9.87561E-005	0.00000E+000	-7.12657E-005	-5.99601E-002	7.21878E-001	3.57900E+000	9	...........
	11	0.16	7.10030E-001	-9.92177E-005	0.00000E+000	-7.04475E-005	-5.99601E-002	7.10309E-001	3.57900E+000	9	...........
	12	0.173333	6.98521E-001	-9.95115E-005	0.00000E+000	-6.95109E-005	-5.99601E-002	6.98793E-001	3.57900E+000	9	...........
	13	0.186667	6.87045E-001	-9.87009E-005	0.00000E+000	-6.78120E-005	-5.99601E-002	6.87313E-001	3.57900E+000	9	...........
	14	0.2	6.75614E-001	-9.91791E-005	0.00000E+000	-6.70068E-005	-5.99601E-002	6.75870E-001	3.57900E+000	9	...........
	15	0.213333	6.64182E-001	-9.87019E-005	0.00000E+000	-6.55561E-005	-5.99601E-002	6.64434E-001	3.57900E+000	9	...........
	16	0.226667	6.52773E-001	-9.80924E-005	0.00000E+000	-6.40321E-005	-5.99601E-002	6.53047E-001	3.57900E+000	9	...........
	17	0.24	6.41407E-001	-9.92448E-005	0.00000E+000	-6.36563E-005	-5.99601E-002	6.41644E-001	3.57900E+000	9	...........
	18	0.253333	6.30061E-001	-9.83456E-005	0.00000E+000	-6.19637E-005	-5.99601E-002	6.30277E-001	3.57900E+000	9	...........
	19	0.266667	6.18750E-001	-9.86551E-005	0.00000E+000	-6.10428E-005	-5.99601E-002	6.18971E-001	3.57900E+000	9	...........
	20	0.28	6.07380E-001	-9.81414E-005	0.00000E+000	-5.96091E-005	-5.99601E-002	6.07663E-001	3.57900E+000	9	...........
	21	0.293333	5.96134E-001	-9.84352E-005	0.00000E+000	-5.86806E-005	-5.99601E-002	5.96373E-001	3.57900E+000	9	...........
	22	0.306667	5.84869E-001	-9.95146E-005	0.00000E+000	-5.82030E-005	-5.99601E-002	5.85116E-001	3.57900E+000	9	...........
	23	0.32	5.73675E-001	-9.89707E-005	0.00000E+000	-5.67770E-005	-5.99601E-002	5.73891E-001	3.57900E+000	9	...........
	24	0.333333	5.62483E-001	-9.89124E-005	0.00000E+000	-5.56366E-005	-5.99601E-002	5.62730E-001	3.57900E+000	9	...........
	25	0.346667	5.51329E-001	-9.83185E-005	0.00000E+000	-5.42059E-005	-5.99601E-002	5.51579E-001	3.57900E+000	9	...........
	26	0.36	5.40237E-001	-9.90031E-005	0.00000E+000	-5.34851E-005	-5.99601E-002	5.40465E-001	3.57900E+000	9	...........
	27	0.373333	5.29161E-001	-9.87968E-005	0.00000E+000	-5.22794E-005	-5.99601E-002	5.29369E-001	3.57900E+000	9	...........
	28	0.386667	5.18155E-001	-9.81695E-005	0.00000E+000	-5.08671E-005	-5.99601E-002	5.18361E-001	3.57900E+000	9	...........
	29	0.4	5.07176E-001	-9.88593E-005	0.00000E+000	-5.01391E-005	-5.99601E-002	5.07405E-001	3.57900E+000	9	...........
	30	0.413333	4.96290E-001	-9.83758E-005	0.00000E+000	-4.88229E-005	-5.99601E-002	4.96496E-001	3.57900E+000	9	...........
	31	0.426667	4.85603E-001	-9.85561E-005	0.00000E+000	-4.78591E-005	-5.99601E-002	4.85784E-001	3.57900E+000	9	...........
	32	0.44	4.75062E-001	-9.95157E-005	0.00000E+000	-4.72761E-005	-5.99601E-002	4.75160E-001	3.57900E+000	9	...........
	33	0.453333	4.64353E-001	-9.93021E-005	0.00000E+000	-4.61112E-005	-5.99601E-002	4.64449E-001	3.57900E+000	9	...........
	34	0.466667	4.53718E-001	-9.88645E-005	0.00000E+000	-4.48566E-005	-5.99601E-002	4.53814E-001	3.57900E+000	9	...........
	35	0.48	4.43156E-001	-9.91770E-005	0.00000E+000	-4.39509E-005	-5.99601E-002	4.43246E-001	3.57900E+000	9	...........
	36	0.493333	4.32660E-001	-9.88093E-005	0.00000E+000	-4.27508E-005	-5.99601E-002	4.32745E-001	3.57900E+000	9	...........
	37	0.506667	4.22224E-001	-9.89926E-005	0.00000E+000	-4.17971E-005	-5.99601E-002	4.22311E-001	3.57900E+000	9	...........
	38	0.52	4.11866E-001	-9.96636E-005	0.00000E+000	-4.10481E-005	-5.99601E-002	4.11952E-001	3.57900E+000	9	...........
	39	0.533333	4.01583E-001	-9.91864E-005	0.00000E+000	-3.98316E-005	-5.99601E-002	4.01661E-001	3.57900E+000	9	...........
	40	0.546667	3.91368E-001	-9.89791E-005	0.00000E+000	-3.87372E-005	-5.99601E-002	3.91446E-001	3.57900E+000	9	...........
	41	0.56	3.81221E-001	-9.78320E-005	0.00000E+000	-3.72956E-005	-5.99601E-002	3.81295E-001	3.57900E+000	9	...........
	42	0.573333	3.71141E-001	-9.92708E-005	0.00000E+000	-3.68435E-005	-5.99601E-002	3.71212E-001	3.57900E+000	9	...........
	43	0.586667	3.61129E-001	-9.86196E-005	0.00000E+000	-3.56145E-005	-5.99601E-002	3.61198E-001	3.57900E+000	9	...........
	44	0.6	3.51179E-001	-9.94938E-005	0.00000E+000	-3.49401E-005	-5.99601E-002	3.51245E-001	3.57900E+000	9	...........
	45	0.613333	3.41292E-001	-9.95928E-005	0.00000E+000	-3.39902E-005	-5.99601E-002	3.41360E-001	3.57900E+000	9	...........
	46	0.626667	3.31475E-001	-9.82383E-005	0.00000E+000	-3.25635E-005	-5.99601E-002	3.31533E-001	3.57900E+000	9	...........
	47	0.64	3.21712E-001	-9.90208E-005	0.00000E+000	-3.18562E-005	-5.99601E-002	3.21772E-001	3.57900E+000	9	...........
	48	0.653333	3.12010E-001	-9.81904E-005	0.00000E+000	-3.06364E-005	-5.99601E-002	3.12070E-001	3.57900E+000	9	...........
	49	0.666667	3.02367E-001	-9.84519E-005	0.00000E+000	-2.97686E-005	-5.99601E-002	3.02420E-001	3.57900E+000	9	...........
	50	0.68	2.92770E-001	-9.88801E-005	0.00000E+000	-2.89492E-005	-5.99601E-002	2.92824E-001	3.57900E+000	9	...........
	51	0.693333	2.83235E-001	-9.84519E-005	0.00000E+000	-2.78850E-005	-5.99601E-002	2.83289E-001	3.57936E+000	9	...........
	52	0.706667	2.73756E-001	-9.83873E-005	0.00000E+000	-2.69341E-005	-5.99601E-002	2.73804E-001	3.58000E+000	9	...........
	53	0.72	2.64329E-001	-9.87540E-005	0.00000E+000	-2.61036E-005	-5.99601E-002	2.64382E-001	3.58000E+000	9	...........
	54	0.733333	2.54955E-001	-9.95313E-005	0.00000E+000	-2.53760E-005	-5.99601E-002	2.54998E-001	3.58000E+000	9	...........
	55	0.746667	2.45634E-001	-9.98397E-005	0.00000E+000	-2.45240E-005	-5.99601E-002	2.45678E-001	3.58000E+000	9	...........
	56	0.76	2.36372E-001	-9.84227E-005	0.00000E+000	-2.32644E-005	-5.99601E-002	2.36408E-001	3.58000E+000	9	...........
	57	0.773333	2.27146E-001	-9.98574E-005	0.00000E+000	-2.26822E-005	-5.99601E-002	2.27189E-001	3.58000E+000	9	...........
	58	0.786667	2.17981E-001	-9.91750E-005	0.00000E+000	-2.16183E-005	-5.99601E-002	2.18022E-001	3.58000E+000	9	...........
	59	0.8	2.08873E-001	-9.85644E-005	0.00000E+000	-2.05875E-005	-5.99601E-002	2.08909E-001	3.58000E+000	9	...........
	60	0.813333	1.99823E-001	-9.79799E-005	0.00000E+000	-1.95786E-005	-5.99601E-002	1.99860E-001	3.58000E+000	9	...........
	61	0.826667	1.90825E-001	-9.88999E-005	0.00000E+000	-1.88725E-005	-5.99601E-002	1.90857E-001	3.58000E+000	9	...........
	62	0.84	1.81891E-001	-9.88166E-005	0.00000E+000	-1.79739E-005	-5.99601E-002	1.81922E-001	3.58000E+000	9	...........
	63	0.853333	1.73024E-001	-9.92250E-005	0.00000E+000	-1.71683E-005	-5.99601E-002	1.73052E-001	3.58000E+000	9	...........
	64	0.866667	1.64228E-001	-9.88728E-005	0.00000E+000	-1.62376E-005	-5.99601E-002	1.64252E-001	3.58000E+000	9	...........
	65	0.88	1.55494E-001	-9.85686E-005	0.00000E+000	-1.53269E-005	-5.99601E-002	1.55518E-001	3.58000E+000	9	...........
	66	0.893333	1.46833E-001	-9.93635E-005	0.00000E+000	-1.45898E-005	-5.99601E-002	1.46851E-001	3.58000E+000	9	...........
	67	0.906667	1.38245E-001	-9.90802E-005	0.00000E+000	-1.36973E-005	-5.99601E-002	1.38261E-001	3.58000E+000	9	...........
	68	0.92	1.29724E-001	-9.82758E-005	0.00000E+000	-1.27488E-005	-5.99601E-002	1.29740E-001	3.58000E+000	9	...........
	69	0.933333	1.21279E-001	-9.90187E-005	0.00000E+000	-1.20089E-005	-5.99601E-002	1.21297E-001	3.58000E+000	9	...........
	70	0.946667	1.12915E-001	-9.88093E-005	0.00000E+000	-1.11570E-005	-5.99601E-002	1.12927E-001	3.58000E+000	9	...........
	71	0.96	1.04625E-001	-9.81560E-005	0.00000E+000	-1.02695E-005	-5.99601E-002	1.04635E-001	3.58000E+000	9	...........
	72	0.97333	9.64127E-002	-9.88353E-005	0.00000E+000	-9.52898E-006	-5.99601E-002	9.64203E-002	3.58000E+000	9	...........
	73	0.98667	8.82729E-002	-9.90249E-005	0.00000E+000	-8.74122E-006	-5.99601E-002	8.82812E-002	3.58000E+000	9	...........
	74	1	8.02191E-002	-9.78163E-005	0.00000E+000	-7.84674E-006	-5.99601E-002	8.02188E-002	3.58000E+000	9	...........
	75	1.01333	7.22333E-002	-9.88832E-005	0.00000E+000	-7.14266E-006	-5.99601E-002	7.22327E-002	3.58000E+000	9	...........
	76	1.02667	6.43178E-002	-9.89614E-005	0.00000E+000	-6.36498E-006	-5.99601E-002	6.43193E-002	3.58000E+000	9	...........
	77	1.04	5.64819E-002	-9.89301E-005	0.00000E+000	-5.58776E-006	-5.99601E-002	5.64759E-002	3.58000E+000	9	...........
	78	1.05333	4.87200E-002	-9.82175E-005	0.00000E+000	-4.78515E-006	-5.99601E-002	4.87153E-002	3.58000E+000	9	...........
	79	1.06667	4.10460E-002	-9.90447E-005	0.00000E+000	-4.06539E-006	-5.99601E-002	4.10369E-002	3.58000E+000	9	...........
	80	1.08	3.34208E-002	-9.91322E-005	0.00000E+000	-3.31308E-006	-5.99601E-002	3.34016E-002	3.58000E+000	9	...........
	81	1.09333	2.58552E-002	-9.81133E-005	0.00000E+000	-2.53674E-006	-5.99601E-002	2.58383E-002	3.58000E+000	9	...........
	82	1.10667	1.83645E-002	-9.92854E-005	0.00000E+000	-1.82333E-006	-5.99601E-002	1.83426E-002	3.58000E+000	9	...........
	83	1.12	1.09384E-002	-9.84300E-005	0.00000E+000	-1.07666E-006	-5.99601E-002	1.09106E-002	3.58000E+000	9	...........
	84	1.13333	3.57925E-003	-9.88322E-005	0.00000E+000	-3.53745E-007	-5.99601E-002	3.54627E-003	3.58000E+000	9	...........
	85	1.135	-5.34824E-004	-9.90270E-005	0.00000E+000	5.29620E-008	-5.99601E-002	-5.71320E-004	3.58000E+000	9	...........
STARTTIMEOFFSET	QUANT	2240.485	Start Time Offset (s)
