EXPLAIN
TAG	PWR800_DISCHARGE
TITLE	LABEL	PWR Cyclic Charge Discharge (Cell) - Discharge Step	Test &Identifier
DATE	LABEL	13-7-2017	Date
TIME	LABEL	15:41:55	Time
NOTES	NOTES	2	&Notes...
	supercap test cell
	6M KOH
PSTAT	PSTAT	IFC5000-01520	Potentiostat
CAPACITY	QUANT	1.00000E-003	Capacity (A-hr)
CELLTYPE	SELECTOR	1	&Cell Type
WORKINGCONNECTION	SELECTOR	0	&Working Lead
MAXDISCHARGETIME	VARIABLEANDUNITS	1.00000E+002	s	1.00000E+002	second(s)	Max &Discharge Time
DISCHARGEMODE	MULTIPARAM	0	1.00000E-004	&Discharge Mode	Constant Current	Amp(s)
SAMPLETIME	QUANT	1.00000E-002	Sa&mple Period (s)
DISCHARGESTOPAT1	MULTIPARAM	3	0.00000E+000	Discharge Stop At &1	Voltage < Limit	V
DISCHARGESTOPAT2	MULTIPARAM	0	0.00000E+000	Discharge Stop At &2	None	N/A
AESBHCSELECTOR	TOGGLE	F	Save Both Half Cells
IRCOMP	TOGGLE	F	IR &Measure
EOC	QUANT	0	Open Circuit (V)
SEQUENCER	TOGGLE	TRUE	Run as Sequence
PSTATMODEL	IQUANT	53	Pstat Model
PSTATSECTION	LABEL	IFC5000-01520	Pstat Section
PSTATSERIALNO	LABEL	01520	Pstat Serial Number
CTRLMODE	IQUANT	0	Control Mode
ELECTROMETER	IQUANT	1	RE=0 or CS=1
IESTAB	IQUANT	0	I/E Stability
CASPEED	IQUANT	4	Control Amp Speed
CONVENTION	IQUANT	1	Current Convention
ICHRANGE	IQUANT	2	Ich Range
ICHRANGEMODE	TOGGLE	T	Ich Auto Range
ICHOFFSETENABLE	TOGGLE	F	Ich Offset Enable
ICHOFFSET	QUANT	0	Ich Offset (V)
ICHFILTER	IQUANT	1	Ich Filter
VCHRANGE	IQUANT	2	Vch Range
VCHRANGEMODE	TOGGLE	T	Vch Auto Range
VCHOFFSETENABLE	TOGGLE	F	Vch Offset Enable
VCHOFFSET	QUANT	0	Vch Offset (V)
VCHFILTER	IQUANT	1	Vch Filter
IERANGELOWERLIMIT	IQUANT	9	I/E Range Lower Limit
IERANGEMODE	TOGGLE	F	I/E AutoRange
IERANGE	IQUANT	9	I/E Range
ACHSELECT	IQUANT	1	Ach Select
ACHRANGE	IQUANT	2	Ach Range
ACHOFFSETENABLE	TOGGLE	F	Ach Offset Enable
ACHOFFSET	QUANT	0	Ach Offset (V)
ACHFILTER	IQUANT	1	Ach Filter
CABLEID	IQUANT	14	Cable ID
DCCALDATE	LABEL	5-7-2017	DC Calibration Date
ACCALDATE	LABEL	12/3/2015	AC Calibration Date
FRAMEWORKVERSION	QUANT	7.01	Framework Version
INSTRUMENTVERSION	LABEL	4.00	Instrument Version
CURVE	TABLE	86
	Pt	T	Vf	Im	Vu	Pwr	Sig	Ach	Temp	IERange	Over
	#	s	V	A	V	W	V	V	deg C	#	bits
	0	0.013333	8.45473E-001	-9.92208E-005	0.00000E+000	-8.38885E-005	-5.99601E-002	8.45796E-001	3.57900E+000	9	...........
	1	0.026667	8.31249E-001	-9.86988E-005	0.00000E+000	-8.20433E-005	-5.99601E-002	8.31563E-001	3.57900E+000	9	...........
	2	0.04	8.17851E-001	-9.86509E-005	0.00000E+000	-8.06818E-005	-5.99601E-002	8.18150E-001	3.57900E+000	9	...........
	3	0.053333	8.05029E-001	-9.84040E-005	0.00000E+000	-7.92180E-005	-5.99601E-002	8.05303E-001	3.57900E+000	9	...........
	4	0.066667	7.92594E-001	-9.95375E-005	0.00000E+000	-7.88929E-005	-5.99601E-002	7.92860E-001	3.57900E+000	9	...........
	5	0.08	7.80452E-001	-9.90228E-005	0.00000E+000	-7.72826E-005	-5.99601E-002	7.80741E-001	3.57900E+000	9	...........
	6	0.093333	7.68543E-001	-9.92531E-005	0.00000E+000	-7.62803E-005	-5.99601E-002	7.68817E-001	3.57900E+000	9	...........
	7	0.106667	7.56774E-001	-9.91218E-005	0.00000E+000	-7.50128E-005	-5.99601E-002	7.57060E-001	3.57900E+000	9	...........
	8	0.12	7.45139E-001	-9.98584E-005	0.00000E+000	-7.44085E-005	-5.99601E-002	7.45440E-001	3.57900E+000	9	...........
	9	0.133333	7.33590E-001	-9.89343E-005	0.00000E+000	-7.25772E-005	-5.99601E-002	7.33875E-001	3.57900E+000	9	...........
	10	0.146667	7.22155E-001	-9.87968E-005	0.00000E+000	-7.13465E-005	-5.99601E-002	7.22440E-001	3.57900E+000	9	...........
	11	0.16	7.10695E-001	-9.96563E-005	0.00000E+000	-7.08253E-005	-5.99601E-002	7.11005E-001	3.57900E+000	9	...........
	12	0.173333	6.99341E-001	-9.93656E-005	0.00000E+000	-6.94905E-005	-5.99601E-002	6.99648E-001	3.57900E+000	9	...........
	13	0.186667	6.88002E-001	-9.93635E-005	0.00000E+000	-6.83623E-005	-5.99601E-002	6.88309E-001	3.57900E+000	9	...........
	14	0.2	6.76713E-001	-9.89697E-005	0.00000E+000	-6.69741E-005	-5.99601E-002	6.77040E-001	3.57900E+000	9	...........
	15	0.213333	6.65462E-001	-9.85926E-005	0.00000E+000	-6.56096E-005	-5.99601E-002	6.65753E-001	3.57900E+000	9	...........
	16	0.226667	6.54215E-001	-9.82196E-005	0.00000E+000	-6.42567E-005	-5.99601E-002	6.54497E-001	3.57900E+000	9	...........
	17	0.24	6.42973E-001	-9.88989E-005	0.00000E+000	-6.35893E-005	-5.99601E-002	6.43264E-001	3.57900E+000	9	...........
	18	0.253333	6.31776E-001	-9.94979E-005	0.00000E+000	-6.28604E-005	-5.99601E-002	6.32043E-001	3.57900E+000	9	...........
	19	0.266667	6.20627E-001	-9.87884E-005	0.00000E+000	-6.13108E-005	-5.99601E-002	6.20854E-001	3.57900E+000	9	...........
	20	0.28	6.09440E-001	-9.80716E-005	0.00000E+000	-5.97688E-005	-5.99601E-002	6.09694E-001	3.57900E+000	9	...........
	21	0.293333	5.98309E-001	-9.95448E-005	0.00000E+000	-5.95586E-005	-5.99601E-002	5.98558E-001	3.57900E+000	9	...........
	22	0.306667	5.87211E-001	-9.91166E-005	0.00000E+000	-5.82024E-005	-5.99601E-002	5.87461E-001	3.57900E+000	9	...........
	23	0.32	5.76147E-001	-9.90895E-005	0.00000E+000	-5.70901E-005	-5.99601E-002	5.76382E-001	3.57900E+000	9	...........
	24	0.333333	5.65150E-001	-9.93125E-005	0.00000E+000	-5.61265E-005	-5.99601E-002	5.65363E-001	3.57900E+000	9	...........
	25	0.346667	5.54104E-001	-9.86915E-005	0.00000E+000	-5.46853E-005	-5.99601E-002	5.54330E-001	3.57900E+000	9	...........
	26	0.36	5.43150E-001	-9.90051E-005	0.00000E+000	-5.37746E-005	-5.99601E-002	5.43362E-001	3.57900E+000	9	...........
	27	0.373333	5.32211E-001	-9.87561E-005	0.00000E+000	-5.25591E-005	-5.99601E-002	5.32420E-001	3.57900E+000	9	...........
	28	0.386667	5.21334E-001	-9.85842E-005	0.00000E+000	-5.13953E-005	-5.99601E-002	5.21544E-001	3.57900E+000	9	...........
	29	0.4	5.10499E-001	-9.86874E-005	0.00000E+000	-5.03798E-005	-5.99601E-002	5.10724E-001	3.57900E+000	9	...........
	30	0.413333	4.99727E-001	-9.89280E-005	0.00000E+000	-4.94370E-005	-5.99601E-002	4.99940E-001	3.57900E+000	9	...........
	31	0.426667	4.89015E-001	-9.87009E-005	0.00000E+000	-4.82662E-005	-5.99601E-002	4.89246E-001	3.57900E+000	9	...........
	32	0.44	4.78715E-001	-9.87405E-005	0.00000E+000	-4.72685E-005	-5.99601E-002	4.78819E-001	3.57900E+000	9	...........
	33	0.453333	4.68117E-001	-9.84165E-005	0.00000E+000	-4.60704E-005	-5.99601E-002	4.68215E-001	3.57900E+000	9	...........
	34	0.466667	4.57579E-001	-9.95782E-005	0.00000E+000	-4.55649E-005	-5.99601E-002	4.57678E-001	3.57900E+000	9	...........
	35	0.48	4.47108E-001	-9.87915E-005	0.00000E+000	-4.41705E-005	-5.99601E-002	4.47202E-001	3.57952E+000	9	...........
	36	0.493333	4.36703E-001	-9.84748E-005	0.00000E+000	-4.30042E-005	-5.99601E-002	4.36797E-001	3.57960E+000	9	...........
	37	0.506667	4.26373E-001	-9.83415E-005	0.00000E+000	-4.19301E-005	-5.99601E-002	4.26453E-001	3.57960E+000	9	...........
	38	0.52	4.16098E-001	-9.87124E-005	0.00000E+000	-4.10740E-005	-5.99601E-002	4.16182E-001	3.57960E+000	9	...........
	39	0.533333	4.05900E-001	-9.91823E-005	0.00000E+000	-4.02581E-005	-5.99601E-002	4.05982E-001	3.57960E+000	9	...........
	40	0.546667	3.95774E-001	-9.74944E-005	0.00000E+000	-3.85858E-005	-5.99601E-002	3.95842E-001	3.57960E+000	9	...........
	41	0.56	3.85706E-001	-9.83675E-005	0.00000E+000	-3.79410E-005	-5.99601E-002	3.85773E-001	3.57960E+000	9	...........
	42	0.573333	3.75702E-001	-9.91354E-005	0.00000E+000	-3.72454E-005	-5.99601E-002	3.75772E-001	3.57960E+000	9	...........
	43	0.586667	3.65767E-001	-9.92198E-005	0.00000E+000	-3.62913E-005	-5.99601E-002	3.65835E-001	3.57960E+000	9	...........
	44	0.6	3.55890E-001	-9.88937E-005	0.00000E+000	-3.51953E-005	-5.99601E-002	3.55954E-001	3.57960E+000	9	...........
	45	0.613333	3.46073E-001	-9.85603E-005	0.00000E+000	-3.41090E-005	-5.99601E-002	3.46134E-001	3.57960E+000	9	...........
	46	0.626667	3.36309E-001	-9.95532E-005	0.00000E+000	-3.34806E-005	-5.99601E-002	3.36374E-001	3.57960E+000	9	...........
	47	0.64	3.26613E-001	-9.91270E-005	0.00000E+000	-3.23762E-005	-5.99601E-002	3.26676E-001	3.57960E+000	9	...........
	48	0.653333	3.16974E-001	-9.92604E-005	0.00000E+000	-3.14629E-005	-5.99601E-002	3.17035E-001	3.57960E+000	9	...........
	49	0.666667	3.07385E-001	-9.99407E-005	0.00000E+000	-3.07203E-005	-5.99601E-002	3.07443E-001	3.57960E+000	9	...........
	50	0.68	2.97857E-001	-9.90468E-005	0.00000E+000	-2.95018E-005	-5.99601E-002	2.97914E-001	3.57960E+000	9	...........
	51	0.693333	2.88373E-001	-9.95500E-005	0.00000E+000	-2.87076E-005	-5.99601E-002	2.88428E-001	3.57960E+000	9	...........
	52	0.706667	2.78947E-001	-9.92239E-005	0.00000E+000	-2.76782E-005	-5.99601E-002	2.78998E-001	3.57960E+000	9	...........
	53	0.72	2.69568E-001	-9.84915E-005	0.00000E+000	-2.65502E-005	-5.99601E-002	2.69623E-001	3.57960E+000	9	...........
	54	0.733333	2.60240E-001	-9.90843E-005	0.00000E+000	-2.57857E-005	-5.99601E-002	2.60291E-001	3.57960E+000	9	...........
	55	0.746667	2.50968E-001	-9.84831E-005	0.00000E+000	-2.47161E-005	-5.99601E-002	2.51012E-001	3.57960E+000	9	...........
	56	0.76	2.41744E-001	-9.90489E-005	0.00000E+000	-2.39445E-005	-5.99601E-002	2.41783E-001	3.57960E+000	9	...........
	57	0.773333	2.32566E-001	-9.89655E-005	0.00000E+000	-2.30160E-005	-5.99601E-002	2.32604E-001	3.57960E+000	9	...........
	58	0.786667	2.23441E-001	-9.85978E-005	0.00000E+000	-2.20307E-005	-5.99601E-002	2.23470E-001	3.57960E+000	9	...........
	59	0.8	2.14364E-001	-9.89937E-005	0.00000E+000	-2.12207E-005	-5.99601E-002	2.14392E-001	3.57960E+000	9	...........
	60	0.813333	2.05342E-001	-9.91093E-005	0.00000E+000	-2.03513E-005	-5.99601E-002	2.05374E-001	3.57960E+000	9	...........
	61	0.826667	1.96381E-001	-9.86926E-005	0.00000E+000	-1.93813E-005	-5.99601E-002	1.96410E-001	3.57960E+000	9	...........
	62	0.84	1.87472E-001	-9.84988E-005	0.00000E+000	-1.84658E-005	-5.99601E-002	1.87500E-001	3.57960E+000	9	...........
	63	0.853333	1.78627E-001	-9.87968E-005	0.00000E+000	-1.76478E-005	-5.99601E-002	1.78653E-001	3.57960E+000	9	...........
	64	0.866667	1.69841E-001	-9.81914E-005	0.00000E+000	-1.66770E-005	-5.99601E-002	1.69866E-001	3.57960E+000	9	...........
	65	0.88	1.61130E-001	-9.85759E-005	0.00000E+000	-1.58835E-005	-5.99601E-002	1.61147E-001	3.57960E+000	9	...........
	66	0.893333	1.52471E-001	-9.93365E-005	0.00000E+000	-1.51459E-005	-5.99601E-002	1.52495E-001	3.57960E+000	9	...........
	67	0.906667	1.43892E-001	-9.82633E-005	0.00000E+000	-1.41393E-005	-5.99601E-002	1.43909E-001	3.57960E+000	9	...........
	68	0.92	1.35381E-001	-9.83675E-005	0.00000E+000	-1.33170E-005	-5.99601E-002	1.35397E-001	3.57960E+000	9	...........
	69	0.933333	1.26940E-001	-9.88718E-005	0.00000E+000	-1.25508E-005	-5.99601E-002	1.26956E-001	3.57960E+000	9	...........
	70	0.946667	1.18582E-001	-9.89072E-005	0.00000E+000	-1.17286E-005	-5.99601E-002	1.18594E-001	3.57960E+000	9	...........
	71	0.96	1.10291E-001	-9.98637E-005	0.00000E+000	-1.10140E-005	-5.99601E-002	1.10298E-001	3.57960E+000	9	...........
	72	0.97333	1.02079E-001	-9.86905E-005	0.00000E+000	-1.00742E-005	-5.99601E-002	1.02085E-001	3.57960E+000	9	...........
	73	0.98667	9.39366E-002	-9.99585E-005	0.00000E+000	-9.38976E-006	-5.99601E-002	9.39426E-002	3.57960E+000	9	...........
	74	1	8.58743E-002	-9.87155E-005	0.00000E+000	-8.47713E-006	-5.99601E-002	8.58793E-002	3.57960E+000	9	...........
	75	1.01333	7.78833E-002	-9.87947E-005	0.00000E+000	-7.69446E-006	-5.99601E-002	7.78848E-002	3.57960E+000	9	...........
	76	1.02667	6.99653E-002	-9.82102E-005	0.00000E+000	-6.87131E-006	-5.99601E-002	6.99623E-002	3.57960E+000	9	...........
	77	1.04	6.21209E-002	-9.96740E-005	0.00000E+000	-6.19184E-006	-5.99601E-002	6.21192E-002	3.57960E+000	9	...........
	78	1.05333	5.43419E-002	-9.81873E-005	0.00000E+000	-5.33569E-006	-5.99601E-002	5.43314E-002	3.57960E+000	9	...........
	79	1.06667	4.66581E-002	-9.90916E-005	0.00000E+000	-4.62342E-006	-5.99601E-002	4.66498E-002	3.57960E+000	9	...........
	80	1.08	3.90313E-002	-9.96501E-005	0.00000E+000	-3.88947E-006	-5.99601E-002	3.90225E-002	3.57960E+000	9	...........
	81	1.09333	3.14629E-002	-9.84988E-005	0.00000E+000	-3.09906E-006	-5.99601E-002	3.14505E-002	3.57960E+000	9	...........
	82	1.10667	2.39630E-002	-9.84488E-005	0.00000E+000	-2.35913E-006	-5.99601E-002	2.39433E-002	3.57960E+000	9	...........
	83	1.12	1.65238E-002	-9.86509E-005	0.00000E+000	-1.63009E-006	-5.99601E-002	1.65001E-002	3.57960E+000	9	...........
	84	1.13333	9.14900E-003	-9.97605E-005	0.00000E+000	-9.12709E-007	-5.99601E-002	9.12178E-003	3.57960E+000	9	...........
	85	1.145	2.29956E-003	-9.94450E-005	0.00000E+000	-2.28679E-007	-5.99601E-002	2.26989E-003	3.57960E+000	9	...........
STARTTIMEOFFSET	QUANT	1803.955	Start Time Offset (s)
