EXPLAIN
TAG	PWR800_DISCHARGE
TITLE	LABEL	PWR Cyclic Charge Discharge (Cell) - Discharge Step	Test &Identifier
DATE	LABEL	13-7-2017	Date
TIME	LABEL	15:17:29	Time
NOTES	NOTES	2	&Notes...
	supercap test cell
	6M KOH
PSTAT	PSTAT	IFC5000-01520	Potentiostat
CAPACITY	QUANT	1.00000E-003	Capacity (A-hr)
CELLTYPE	SELECTOR	1	&Cell Type
WORKINGCONNECTION	SELECTOR	0	&Working Lead
MAXDISCHARGETIME	VARIABLEANDUNITS	1.00000E+002	s	1.00000E+002	second(s)	Max &Discharge Time
DISCHARGEMODE	MULTIPARAM	0	1.00000E-004	&Discharge Mode	Constant Current	Amp(s)
SAMPLETIME	QUANT	1.00000E-002	Sa&mple Period (s)
DISCHARGESTOPAT1	MULTIPARAM	3	0.00000E+000	Discharge Stop At &1	Voltage < Limit	V
DISCHARGESTOPAT2	MULTIPARAM	0	0.00000E+000	Discharge Stop At &2	None	N/A
AESBHCSELECTOR	TOGGLE	F	Save Both Half Cells
IRCOMP	TOGGLE	F	IR &Measure
EOC	QUANT	0	Open Circuit (V)
SEQUENCER	TOGGLE	TRUE	Run as Sequence
PSTATMODEL	IQUANT	53	Pstat Model
PSTATSECTION	LABEL	IFC5000-01520	Pstat Section
PSTATSERIALNO	LABEL	01520	Pstat Serial Number
CTRLMODE	IQUANT	0	Control Mode
ELECTROMETER	IQUANT	1	RE=0 or CS=1
IESTAB	IQUANT	0	I/E Stability
CASPEED	IQUANT	4	Control Amp Speed
CONVENTION	IQUANT	1	Current Convention
ICHRANGE	IQUANT	2	Ich Range
ICHRANGEMODE	TOGGLE	T	Ich Auto Range
ICHOFFSETENABLE	TOGGLE	F	Ich Offset Enable
ICHOFFSET	QUANT	0	Ich Offset (V)
ICHFILTER	IQUANT	1	Ich Filter
VCHRANGE	IQUANT	2	Vch Range
VCHRANGEMODE	TOGGLE	T	Vch Auto Range
VCHOFFSETENABLE	TOGGLE	F	Vch Offset Enable
VCHOFFSET	QUANT	0	Vch Offset (V)
VCHFILTER	IQUANT	1	Vch Filter
IERANGELOWERLIMIT	IQUANT	9	I/E Range Lower Limit
IERANGEMODE	TOGGLE	F	I/E AutoRange
IERANGE	IQUANT	9	I/E Range
ACHSELECT	IQUANT	1	Ach Select
ACHRANGE	IQUANT	2	Ach Range
ACHOFFSETENABLE	TOGGLE	F	Ach Offset Enable
ACHOFFSET	QUANT	0	Ach Offset (V)
ACHFILTER	IQUANT	1	Ach Filter
CABLEID	IQUANT	14	Cable ID
DCCALDATE	LABEL	5-7-2017	DC Calibration Date
ACCALDATE	LABEL	12/3/2015	AC Calibration Date
FRAMEWORKVERSION	QUANT	7.01	Framework Version
INSTRUMENTVERSION	LABEL	4.00	Instrument Version
CURVE	TABLE	90
	Pt	T	Vf	Im	Vu	Pwr	Sig	Ach	Temp	IERange	Over
	#	s	V	A	V	W	V	V	deg C	#	bits
	0	0.013333	8.51945E-001	-9.87259E-005	0.00000E+000	-8.41091E-005	-5.99601E-002	8.52332E-001	3.58000E+000	9	...........
	1	0.026667	8.38420E-001	-9.87749E-005	0.00000E+000	-8.28148E-005	-5.99601E-002	8.38776E-001	3.58000E+000	9	...........
	2	0.04	8.25709E-001	-9.84686E-005	0.00000E+000	-8.13064E-005	-5.99601E-002	8.26053E-001	3.58000E+000	9	...........
	3	0.053333	8.13542E-001	-9.86176E-005	0.00000E+000	-8.02295E-005	-5.99601E-002	8.13888E-001	3.58000E+000	9	...........
	4	0.066667	8.01808E-001	-9.87665E-005	0.00000E+000	-7.91918E-005	-5.99601E-002	8.02118E-001	3.58000E+000	9	...........
	5	0.08	7.90344E-001	-9.84071E-005	0.00000E+000	-7.77754E-005	-5.99601E-002	7.90637E-001	3.58000E+000	9	...........
	6	0.093333	7.79073E-001	-1.00204E-004	0.00000E+000	-7.80665E-005	-5.99601E-002	7.79386E-001	3.58000E+000	9	...........
	7	0.106667	7.67968E-001	-9.91791E-005	0.00000E+000	-7.61664E-005	-5.99601E-002	7.68291E-001	3.58000E+000	9	...........
	8	0.12	7.57021E-001	-9.83821E-005	0.00000E+000	-7.44773E-005	-5.99601E-002	7.57322E-001	3.58000E+000	9	...........
	9	0.133333	7.46160E-001	-9.88259E-005	0.00000E+000	-7.37399E-005	-5.99601E-002	7.46469E-001	3.58000E+000	9	...........
	10	0.146667	7.35366E-001	-9.94927E-005	0.00000E+000	-7.31635E-005	-5.99601E-002	7.35644E-001	3.58000E+000	9	...........
	11	0.16	7.24662E-001	-9.89030E-005	0.00000E+000	-7.16712E-005	-5.99601E-002	7.24916E-001	3.58000E+000	9	...........
	12	0.173333	7.13949E-001	-9.94907E-005	0.00000E+000	-7.10313E-005	-5.99601E-002	7.14211E-001	3.58000E+000	9	...........
	13	0.186667	7.03294E-001	-9.86947E-005	0.00000E+000	-6.94113E-005	-5.99601E-002	7.03564E-001	3.58000E+000	9	...........
	14	0.2	6.92687E-001	-9.89739E-005	0.00000E+000	-6.85580E-005	-5.99601E-002	6.92943E-001	3.58000E+000	9	...........
	15	0.213333	6.82097E-001	-9.85738E-005	0.00000E+000	-6.72369E-005	-5.99601E-002	6.82378E-001	3.58000E+000	9	...........
	16	0.226667	6.71521E-001	-9.89874E-005	0.00000E+000	-6.64721E-005	-5.99601E-002	6.71785E-001	3.58000E+000	9	...........
	17	0.24	6.60933E-001	-9.93125E-005	0.00000E+000	-6.56389E-005	-5.99601E-002	6.61212E-001	3.58000E+000	9	...........
	18	0.253333	6.50399E-001	-9.94636E-005	0.00000E+000	-6.46910E-005	-5.99601E-002	6.50659E-001	3.58000E+000	9	...........
	19	0.266667	6.39859E-001	-9.83717E-005	0.00000E+000	-6.29440E-005	-5.99601E-002	6.40099E-001	3.58000E+000	9	...........
	20	0.28	6.29294E-001	-9.97188E-005	0.00000E+000	-6.27525E-005	-5.99601E-002	6.29548E-001	3.58000E+000	9	...........
	21	0.293333	6.18806E-001	-9.89270E-005	0.00000E+000	-6.12167E-005	-5.99601E-002	6.19032E-001	3.58000E+000	9	...........
	22	0.306667	6.08229E-001	-9.79872E-005	0.00000E+000	-5.95986E-005	-5.99601E-002	6.08522E-001	3.58000E+000	9	...........
	23	0.32	5.97755E-001	-9.85259E-005	0.00000E+000	-5.88943E-005	-5.99601E-002	5.98027E-001	3.58000E+000	9	...........
	24	0.333333	5.87260E-001	-9.82800E-005	0.00000E+000	-5.77159E-005	-5.99601E-002	5.87547E-001	3.58000E+000	9	...........
	25	0.346667	5.76780E-001	-9.87228E-005	0.00000E+000	-5.69413E-005	-5.99601E-002	5.77071E-001	3.58000E+000	9	...........
	26	0.36	5.66362E-001	-9.86436E-005	0.00000E+000	-5.58680E-005	-5.99601E-002	5.66657E-001	3.58000E+000	9	...........
	27	0.373333	5.55891E-001	-9.95427E-005	0.00000E+000	-5.53349E-005	-5.99601E-002	5.56201E-001	3.58000E+000	9	...........
	28	0.386667	5.45504E-001	-9.88134E-005	0.00000E+000	-5.39031E-005	-5.99601E-002	5.45804E-001	3.58000E+000	9	...........
	29	0.4	5.35115E-001	-9.82321E-005	0.00000E+000	-5.25655E-005	-5.99601E-002	5.35410E-001	3.58000E+000	9	...........
	30	0.413333	5.24775E-001	-9.83050E-005	0.00000E+000	-5.15880E-005	-5.99601E-002	5.25045E-001	3.58000E+000	9	...........
	31	0.426667	5.14477E-001	-9.84790E-005	0.00000E+000	-5.06651E-005	-5.99601E-002	5.14726E-001	3.58000E+000	9	...........
	32	0.44	5.04154E-001	-9.88655E-005	0.00000E+000	-4.98434E-005	-5.99601E-002	5.04418E-001	3.58000E+000	9	...........
	33	0.453333	4.93920E-001	-9.84175E-005	0.00000E+000	-4.86104E-005	-5.99601E-002	4.94185E-001	3.58000E+000	9	...........
	34	0.466667	4.83917E-001	-9.75288E-005	0.00000E+000	-4.71958E-005	-5.99601E-002	4.84093E-001	3.58000E+000	9	...........
	35	0.48	4.73944E-001	-9.87738E-005	0.00000E+000	-4.68133E-005	-5.99601E-002	4.74044E-001	3.58000E+000	9	...........
	36	0.493333	4.63833E-001	-9.87676E-005	0.00000E+000	-4.58116E-005	-5.99601E-002	4.63931E-001	3.58000E+000	9	...........
	37	0.506667	4.53766E-001	-9.87311E-005	0.00000E+000	-4.48008E-005	-5.99601E-002	4.53862E-001	3.58000E+000	9	...........
	38	0.52	4.43749E-001	-9.72756E-005	0.00000E+000	-4.31659E-005	-5.99601E-002	4.43845E-001	3.58000E+000	9	...........
	39	0.533333	4.33785E-001	-9.81748E-005	0.00000E+000	-4.25867E-005	-5.99601E-002	4.33875E-001	3.58000E+000	9	...........
	40	0.546667	4.23865E-001	-9.86884E-005	0.00000E+000	-4.18306E-005	-5.99601E-002	4.23955E-001	3.58000E+000	9	...........
	41	0.56	4.14000E-001	-9.92760E-005	0.00000E+000	-4.11003E-005	-5.99601E-002	4.14089E-001	3.58000E+000	9	...........
	42	0.573333	4.04196E-001	-9.88145E-005	0.00000E+000	-3.99404E-005	-5.99601E-002	4.04276E-001	3.57947E+000	9	...........
	43	0.586667	3.94446E-001	-9.89572E-005	0.00000E+000	-3.90332E-005	-5.99601E-002	3.94518E-001	3.57860E+000	9	...........
	44	0.6	3.84734E-001	-9.88801E-005	0.00000E+000	-3.80426E-005	-5.99601E-002	3.84807E-001	3.57860E+000	9	...........
	45	0.613333	3.75074E-001	-9.85488E-005	0.00000E+000	-3.69631E-005	-5.99601E-002	3.75143E-001	3.57860E+000	9	...........
	46	0.626667	3.65466E-001	-9.91604E-005	0.00000E+000	-3.62397E-005	-5.99601E-002	3.65544E-001	3.57860E+000	9	...........
	47	0.64	3.55923E-001	-9.88468E-005	0.00000E+000	-3.51818E-005	-5.99601E-002	3.55989E-001	3.57860E+000	9	...........
	48	0.653333	3.46415E-001	-9.89999E-005	0.00000E+000	-3.42950E-005	-5.99601E-002	3.46481E-001	3.57860E+000	9	...........
	49	0.666667	3.36958E-001	-9.89249E-005	0.00000E+000	-3.33335E-005	-5.99601E-002	3.37026E-001	3.57860E+000	9	...........
	50	0.68	3.27552E-001	-9.83706E-005	0.00000E+000	-3.22215E-005	-5.99601E-002	3.27617E-001	3.57860E+000	9	...........
	51	0.693333	3.18191E-001	-9.86582E-005	0.00000E+000	-3.13921E-005	-5.99601E-002	3.18256E-001	3.57860E+000	9	...........
	52	0.706667	3.08872E-001	-9.96907E-005	0.00000E+000	-3.07916E-005	-5.99601E-002	3.08937E-001	3.57860E+000	9	...........
	53	0.72	2.99604E-001	-9.91489E-005	0.00000E+000	-2.97054E-005	-5.99601E-002	2.99665E-001	3.57860E+000	9	...........
	54	0.733333	2.90375E-001	-9.99928E-005	0.00000E+000	-2.90354E-005	-5.99601E-002	2.90429E-001	3.57860E+000	9	...........
	55	0.746667	2.81186E-001	-9.81977E-005	0.00000E+000	-2.76118E-005	-5.99601E-002	2.81248E-001	3.57860E+000	9	...........
	56	0.76	2.72048E-001	-9.88561E-005	0.00000E+000	-2.68936E-005	-5.99601E-002	2.72098E-001	3.57860E+000	9	...........
	57	0.773333	2.62947E-001	-9.89687E-005	0.00000E+000	-2.60235E-005	-5.99601E-002	2.63001E-001	3.57860E+000	9	...........
	58	0.786667	2.53887E-001	-9.92781E-005	0.00000E+000	-2.52054E-005	-5.99601E-002	2.53936E-001	3.57860E+000	9	...........
	59	0.8	2.44871E-001	-9.76465E-005	0.00000E+000	-2.39108E-005	-5.99601E-002	2.44916E-001	3.57860E+000	9	...........
	60	0.813333	2.35894E-001	-9.78445E-005	0.00000E+000	-2.30809E-005	-5.99601E-002	2.35936E-001	3.57860E+000	9	...........
	61	0.826667	2.26951E-001	-9.80643E-005	0.00000E+000	-2.22557E-005	-5.99601E-002	2.26990E-001	3.57860E+000	9	...........
	62	0.84	2.18052E-001	-9.91416E-005	0.00000E+000	-2.16180E-005	-5.99601E-002	2.18085E-001	3.57860E+000	9	...........
	63	0.853333	2.09197E-001	-9.87665E-005	0.00000E+000	-2.06617E-005	-5.99601E-002	2.09231E-001	3.57860E+000	9	...........
	64	0.866667	2.00387E-001	-9.80143E-005	0.00000E+000	-1.96408E-005	-5.99601E-002	2.00420E-001	3.57860E+000	9	...........
	65	0.88	1.91623E-001	-9.79247E-005	0.00000E+000	-1.87646E-005	-5.99601E-002	1.91654E-001	3.57860E+000	9	...........
	66	0.893333	1.82900E-001	-9.93312E-005	0.00000E+000	-1.81677E-005	-5.99601E-002	1.82931E-001	3.57860E+000	9	...........
	67	0.906667	1.74231E-001	-9.84331E-005	0.00000E+000	-1.71502E-005	-5.99601E-002	1.74260E-001	3.57860E+000	9	...........
	68	0.92	1.65619E-001	-9.90781E-005	0.00000E+000	-1.64093E-005	-5.99601E-002	1.65643E-001	3.57860E+000	9	...........
	69	0.933333	1.57063E-001	-9.89322E-005	0.00000E+000	-1.55386E-005	-5.99601E-002	1.57084E-001	3.57860E+000	9	...........
	70	0.946667	1.48559E-001	-9.84436E-005	0.00000E+000	-1.46247E-005	-5.99601E-002	1.48577E-001	3.57860E+000	9	...........
	71	0.96	1.40119E-001	-9.88009E-005	0.00000E+000	-1.38439E-005	-5.99601E-002	1.40139E-001	3.57860E+000	9	...........
	72	0.97333	1.31741E-001	-9.86967E-005	0.00000E+000	-1.30024E-005	-5.99601E-002	1.31756E-001	3.57860E+000	9	...........
	73	0.98667	1.23424E-001	-9.91270E-005	0.00000E+000	-1.22347E-005	-5.99601E-002	1.23439E-001	3.57860E+000	9	...........
	74	1	1.15173E-001	-9.94802E-005	0.00000E+000	-1.14574E-005	-5.99601E-002	1.15188E-001	3.57860E+000	9	...........
	75	1.01333	1.06992E-001	-9.89593E-005	0.00000E+000	-1.05878E-005	-5.99601E-002	1.07006E-001	3.57860E+000	9	...........
	76	1.02667	9.88746E-002	-9.90791E-005	0.00000E+000	-9.79641E-006	-5.99601E-002	9.88872E-002	3.57860E+000	9	...........
	77	1.04	9.08297E-002	-9.91635E-005	0.00000E+000	-9.00699E-006	-5.99601E-002	9.08335E-002	3.57860E+000	9	...........
	78	1.05333	8.28507E-002	-9.91385E-005	0.00000E+000	-8.21369E-006	-5.99601E-002	8.28540E-002	3.57860E+000	9	...........
	79	1.06667	7.49408E-002	-9.94584E-005	0.00000E+000	-7.45349E-006	-5.99601E-002	7.49343E-002	3.57860E+000	9	...........
	80	1.08	6.70924E-002	-9.90249E-005	0.00000E+000	-6.64382E-006	-5.99601E-002	6.70858E-002	3.57860E+000	9	...........
	81	1.09333	5.93092E-002	-9.88186E-005	0.00000E+000	-5.86085E-006	-5.99601E-002	5.93036E-002	3.57860E+000	9	...........
	82	1.10667	5.15992E-002	-9.77684E-005	0.00000E+000	-5.04477E-006	-5.99601E-002	5.15875E-002	3.57860E+000	9	...........
	83	1.12	4.39795E-002	-9.85603E-005	0.00000E+000	-4.33463E-006	-5.99601E-002	4.39800E-002	3.57860E+000	9	...........
	84	1.13333	3.63963E-002	-9.84186E-005	0.00000E+000	-3.58207E-006	-5.99601E-002	3.63855E-002	3.57860E+000	9	...........
	85	1.14667	2.88737E-002	-9.81185E-005	0.00000E+000	-2.83305E-006	-5.99601E-002	2.88596E-002	3.57860E+000	9	...........
	86	1.16	2.14144E-002	-9.88291E-005	0.00000E+000	-2.11637E-006	-5.99601E-002	2.13911E-002	3.57860E+000	9	...........
	87	1.17333	1.40146E-002	-9.82769E-005	0.00000E+000	-1.37731E-006	-5.99601E-002	1.39854E-002	3.57860E+000	9	...........
	88	1.18667	6.67570E-003	-9.90249E-005	0.00000E+000	-6.61061E-007	-5.99601E-002	6.64756E-003	3.57860E+000	9	...........
	89	1.19333	1.21503E-003	-9.69995E-005	0.00000E+000	-1.17857E-007	-5.99601E-002	1.17792E-003	3.57860E+000	9	...........
STARTTIMEOFFSET	QUANT	699.6893	Start Time Offset (s)
