EXPLAIN
TAG	PWR800_DISCHARGE
TITLE	LABEL	PWR Cyclic Charge Discharge (Cell) - Discharge Step	Test &Identifier
DATE	LABEL	13-7-2017	Date
TIME	LABEL	15:45:12	Time
NOTES	NOTES	2	&Notes...
	supercap test cell
	6M KOH
PSTAT	PSTAT	IFC5000-01520	Potentiostat
CAPACITY	QUANT	1.00000E-003	Capacity (A-hr)
CELLTYPE	SELECTOR	1	&Cell Type
WORKINGCONNECTION	SELECTOR	0	&Working Lead
MAXDISCHARGETIME	VARIABLEANDUNITS	1.00000E+002	s	1.00000E+002	second(s)	Max &Discharge Time
DISCHARGEMODE	MULTIPARAM	0	1.00000E-004	&Discharge Mode	Constant Current	Amp(s)
SAMPLETIME	QUANT	1.00000E-002	Sa&mple Period (s)
DISCHARGESTOPAT1	MULTIPARAM	3	0.00000E+000	Discharge Stop At &1	Voltage < Limit	V
DISCHARGESTOPAT2	MULTIPARAM	0	0.00000E+000	Discharge Stop At &2	None	N/A
AESBHCSELECTOR	TOGGLE	F	Save Both Half Cells
IRCOMP	TOGGLE	F	IR &Measure
EOC	QUANT	0	Open Circuit (V)
SEQUENCER	TOGGLE	TRUE	Run as Sequence
PSTATMODEL	IQUANT	53	Pstat Model
PSTATSECTION	LABEL	IFC5000-01520	Pstat Section
PSTATSERIALNO	LABEL	01520	Pstat Serial Number
CTRLMODE	IQUANT	0	Control Mode
ELECTROMETER	IQUANT	1	RE=0 or CS=1
IESTAB	IQUANT	0	I/E Stability
CASPEED	IQUANT	4	Control Amp Speed
CONVENTION	IQUANT	1	Current Convention
ICHRANGE	IQUANT	2	Ich Range
ICHRANGEMODE	TOGGLE	T	Ich Auto Range
ICHOFFSETENABLE	TOGGLE	F	Ich Offset Enable
ICHOFFSET	QUANT	0	Ich Offset (V)
ICHFILTER	IQUANT	1	Ich Filter
VCHRANGE	IQUANT	2	Vch Range
VCHRANGEMODE	TOGGLE	T	Vch Auto Range
VCHOFFSETENABLE	TOGGLE	F	Vch Offset Enable
VCHOFFSET	QUANT	0	Vch Offset (V)
VCHFILTER	IQUANT	1	Vch Filter
IERANGELOWERLIMIT	IQUANT	9	I/E Range Lower Limit
IERANGEMODE	TOGGLE	F	I/E AutoRange
IERANGE	IQUANT	9	I/E Range
ACHSELECT	IQUANT	1	Ach Select
ACHRANGE	IQUANT	2	Ach Range
ACHOFFSETENABLE	TOGGLE	F	Ach Offset Enable
ACHOFFSET	QUANT	0	Ach Offset (V)
ACHFILTER	IQUANT	1	Ach Filter
CABLEID	IQUANT	14	Cable ID
DCCALDATE	LABEL	5-7-2017	DC Calibration Date
ACCALDATE	LABEL	12/3/2015	AC Calibration Date
FRAMEWORKVERSION	QUANT	7.01	Framework Version
INSTRUMENTVERSION	LABEL	4.00	Instrument Version
CURVE	TABLE	86
	Pt	T	Vf	Im	Vu	Pwr	Sig	Ach	Temp	IERange	Over
	#	s	V	A	V	W	V	V	deg C	#	bits
	0	0.013333	8.45470E-001	-9.89187E-005	0.00000E+000	-8.36328E-005	-5.99601E-002	8.45743E-001	3.57850E+000	9	...........
	1	0.026667	8.31166E-001	-9.91156E-005	0.00000E+000	-8.23815E-005	-5.99601E-002	8.31445E-001	3.57850E+000	9	...........
	2	0.04	8.17732E-001	-9.87978E-005	0.00000E+000	-8.07902E-005	-5.99601E-002	8.18013E-001	3.57850E+000	9	...........
	3	0.053333	8.04873E-001	-9.85071E-005	0.00000E+000	-7.92857E-005	-5.99601E-002	8.05150E-001	3.57850E+000	9	...........
	4	0.066667	7.92397E-001	-9.96844E-005	0.00000E+000	-7.89896E-005	-5.99601E-002	7.92682E-001	3.57850E+000	9	...........
	5	0.08	7.80209E-001	-9.91864E-005	0.00000E+000	-7.73861E-005	-5.99601E-002	7.80485E-001	3.57850E+000	9	...........
	6	0.093333	7.68222E-001	-9.91291E-005	0.00000E+000	-7.61531E-005	-5.99601E-002	7.68512E-001	3.57850E+000	9	...........
	7	0.106667	7.56405E-001	-9.87374E-005	0.00000E+000	-7.46854E-005	-5.99601E-002	7.56686E-001	3.57850E+000	9	...........
	8	0.12	7.44717E-001	-9.87530E-005	0.00000E+000	-7.35430E-005	-5.99601E-002	7.45018E-001	3.57850E+000	9	...........
	9	0.133333	7.33111E-001	-9.88384E-005	0.00000E+000	-7.24596E-005	-5.99601E-002	7.33416E-001	3.57850E+000	9	...........
	10	0.146667	7.21614E-001	-9.85873E-005	0.00000E+000	-7.11420E-005	-5.99601E-002	7.21876E-001	3.57850E+000	9	...........
	11	0.16	7.10105E-001	-9.85665E-005	0.00000E+000	-6.99926E-005	-5.99601E-002	7.10413E-001	3.57850E+000	9	...........
	12	0.173333	6.98686E-001	-9.93323E-005	0.00000E+000	-6.94021E-005	-5.99601E-002	6.98982E-001	3.57850E+000	9	...........
	13	0.186667	6.87288E-001	-9.92416E-005	0.00000E+000	-6.82076E-005	-5.99601E-002	6.87570E-001	3.57850E+000	9	...........
	14	0.2	6.75955E-001	-9.88541E-005	0.00000E+000	-6.68209E-005	-5.99601E-002	6.76240E-001	3.57850E+000	9	...........
	15	0.213333	6.64603E-001	-9.90864E-005	0.00000E+000	-6.58531E-005	-5.99601E-002	6.64882E-001	3.57850E+000	9	...........
	16	0.226667	6.53328E-001	-9.90843E-005	0.00000E+000	-6.47346E-005	-5.99601E-002	6.53584E-001	3.57850E+000	9	...........
	17	0.24	6.42041E-001	-9.92583E-005	0.00000E+000	-6.37279E-005	-5.99601E-002	6.42287E-001	3.57850E+000	9	...........
	18	0.253333	6.30790E-001	-9.90156E-005	0.00000E+000	-6.24580E-005	-5.99601E-002	6.31052E-001	3.57850E+000	9	...........
	19	0.266667	6.19568E-001	-9.78476E-005	0.00000E+000	-6.06232E-005	-5.99601E-002	6.19849E-001	3.57850E+000	9	...........
	20	0.28	6.08315E-001	-9.92458E-005	0.00000E+000	-6.03727E-005	-5.99601E-002	6.08621E-001	3.57850E+000	9	...........
	21	0.293333	5.97152E-001	-9.87780E-005	0.00000E+000	-5.89855E-005	-5.99601E-002	5.97448E-001	3.57850E+000	9	...........
	22	0.306667	5.86003E-001	-9.95313E-005	0.00000E+000	-5.83256E-005	-5.99601E-002	5.86281E-001	3.57850E+000	9	...........
	23	0.32	5.74903E-001	-9.84654E-005	0.00000E+000	-5.66080E-005	-5.99601E-002	5.75152E-001	3.57850E+000	9	...........
	24	0.333333	5.63807E-001	-9.90020E-005	0.00000E+000	-5.58181E-005	-5.99601E-002	5.64058E-001	3.57850E+000	9	...........
	25	0.346667	5.52749E-001	-9.96334E-005	0.00000E+000	-5.50723E-005	-5.99601E-002	5.52987E-001	3.57850E+000	9	...........
	26	0.36	5.41745E-001	-9.88061E-005	0.00000E+000	-5.35278E-005	-5.99601E-002	5.41982E-001	3.57850E+000	9	...........
	27	0.373333	5.30774E-001	-9.90916E-005	0.00000E+000	-5.25952E-005	-5.99601E-002	5.31006E-001	3.57850E+000	9	...........
	28	0.386667	5.19869E-001	-9.81466E-005	0.00000E+000	-5.10233E-005	-5.99601E-002	5.20092E-001	3.57850E+000	9	...........
	29	0.4	5.08981E-001	-9.84967E-005	0.00000E+000	-5.01329E-005	-5.99601E-002	5.09226E-001	3.57850E+000	9	...........
	30	0.413333	4.98181E-001	-9.93062E-005	0.00000E+000	-4.94724E-005	-5.99601E-002	4.98394E-001	3.57850E+000	9	...........
	31	0.426667	4.87515E-001	-9.92625E-005	0.00000E+000	-4.83919E-005	-5.99601E-002	4.87702E-001	3.57850E+000	9	...........
	32	0.44	4.77100E-001	-9.91823E-005	0.00000E+000	-4.73199E-005	-5.99601E-002	4.77193E-001	3.57850E+000	9	...........
	33	0.453333	4.66475E-001	-9.79622E-005	0.00000E+000	-4.56969E-005	-5.99601E-002	4.66564E-001	3.57850E+000	9	...........
	34	0.466667	4.55913E-001	-9.90458E-005	0.00000E+000	-4.51562E-005	-5.99601E-002	4.56001E-001	3.57850E+000	9	...........
	35	0.48	4.45416E-001	-9.87645E-005	0.00000E+000	-4.39913E-005	-5.99601E-002	4.45505E-001	3.57850E+000	9	...........
	36	0.493333	4.34985E-001	-9.90770E-005	0.00000E+000	-4.30971E-005	-5.99601E-002	4.35070E-001	3.57850E+000	9	...........
	37	0.506667	4.24628E-001	-9.87540E-005	0.00000E+000	-4.19338E-005	-5.99601E-002	4.24709E-001	3.57850E+000	9	...........
	38	0.52	4.14334E-001	-9.81852E-005	0.00000E+000	-4.06815E-005	-5.99601E-002	4.14419E-001	3.57850E+000	9	...........
	39	0.533333	4.04113E-001	-9.90395E-005	0.00000E+000	-4.00231E-005	-5.99601E-002	4.04186E-001	3.57850E+000	9	...........
	40	0.546667	3.93965E-001	-9.86051E-005	0.00000E+000	-3.88470E-005	-5.99601E-002	3.94034E-001	3.57850E+000	9	...........
	41	0.56	3.83878E-001	-9.89385E-005	0.00000E+000	-3.79803E-005	-5.99601E-002	3.83949E-001	3.57850E+000	9	...........
	42	0.573333	3.73854E-001	-9.89385E-005	0.00000E+000	-3.69885E-005	-5.99601E-002	3.73924E-001	3.57850E+000	9	...........
	43	0.586667	3.63891E-001	-9.87019E-005	0.00000E+000	-3.59168E-005	-5.99601E-002	3.63959E-001	3.57850E+000	9	...........
	44	0.6	3.53997E-001	-9.85082E-005	0.00000E+000	-3.48716E-005	-5.99601E-002	3.54061E-001	3.57850E+000	9	...........
	45	0.613333	3.44160E-001	-9.89489E-005	0.00000E+000	-3.40542E-005	-5.99601E-002	3.44223E-001	3.57850E+000	9	...........
	46	0.626667	3.34389E-001	-9.83279E-005	0.00000E+000	-3.28798E-005	-5.99601E-002	3.34454E-001	3.57850E+000	9	...........
	47	0.64	3.24676E-001	-9.85728E-005	0.00000E+000	-3.20042E-005	-5.99601E-002	3.24739E-001	3.57850E+000	9	...........
	48	0.653333	3.15025E-001	-9.89562E-005	0.00000E+000	-3.11737E-005	-5.99601E-002	3.15080E-001	3.57850E+000	9	...........
	49	0.666667	3.05425E-001	-9.97459E-005	0.00000E+000	-3.04649E-005	-5.99601E-002	3.05479E-001	3.57850E+000	9	...........
	50	0.68	2.95882E-001	-9.96219E-005	0.00000E+000	-2.94763E-005	-5.99601E-002	2.95931E-001	3.57850E+000	9	...........
	51	0.693333	2.86385E-001	-9.92958E-005	0.00000E+000	-2.84368E-005	-5.99601E-002	2.86433E-001	3.57850E+000	9	...........
	52	0.706667	2.76951E-001	-9.84613E-005	0.00000E+000	-2.72689E-005	-5.99601E-002	2.76997E-001	3.57850E+000	9	...........
	53	0.72	2.67561E-001	-9.94323E-005	0.00000E+000	-2.66042E-005	-5.99601E-002	2.67608E-001	3.57850E+000	9	...........
	54	0.733333	2.58225E-001	-9.94865E-005	0.00000E+000	-2.56899E-005	-5.99601E-002	2.58273E-001	3.57850E+000	9	...........
	55	0.746667	2.48943E-001	-9.85050E-005	0.00000E+000	-2.45222E-005	-5.99601E-002	2.48990E-001	3.57850E+000	9	...........
	56	0.76	2.39710E-001	-9.88718E-005	0.00000E+000	-2.37006E-005	-5.99601E-002	2.39753E-001	3.57850E+000	9	...........
	57	0.773333	2.30535E-001	-9.89030E-005	0.00000E+000	-2.28007E-005	-5.99601E-002	2.30573E-001	3.57850E+000	9	...........
	58	0.786667	2.21405E-001	-9.88041E-005	0.00000E+000	-2.18757E-005	-5.99601E-002	2.21437E-001	3.57850E+000	9	...........
	59	0.8	2.12325E-001	-9.93646E-005	0.00000E+000	-2.10976E-005	-5.99601E-002	2.12358E-001	3.57850E+000	9	...........
	60	0.813333	2.03303E-001	-9.88145E-005	0.00000E+000	-2.00893E-005	-5.99601E-002	2.03335E-001	3.57850E+000	9	...........
	61	0.826667	1.94342E-001	-9.97084E-005	0.00000E+000	-1.93776E-005	-5.99601E-002	1.94370E-001	3.57850E+000	9	...........
	62	0.84	1.85431E-001	-9.92573E-005	0.00000E+000	-1.84054E-005	-5.99601E-002	1.85462E-001	3.57850E+000	9	...........
	63	0.853333	1.76586E-001	-9.91500E-005	0.00000E+000	-1.75085E-005	-5.99601E-002	1.76616E-001	3.57850E+000	9	...........
	64	0.866667	1.67800E-001	-9.98720E-005	0.00000E+000	-1.67586E-005	-5.99601E-002	1.67831E-001	3.57850E+000	9	...........
	65	0.88	1.59097E-001	-9.77955E-005	0.00000E+000	-1.55590E-005	-5.99601E-002	1.59119E-001	3.57850E+000	9	...........
	66	0.893333	1.50456E-001	-9.89614E-005	0.00000E+000	-1.48894E-005	-5.99601E-002	1.50477E-001	3.57850E+000	9	...........
	67	0.906667	1.41887E-001	-9.85154E-005	0.00000E+000	-1.39781E-005	-5.99601E-002	1.41904E-001	3.57850E+000	9	...........
	68	0.92	1.33387E-001	-9.84029E-005	0.00000E+000	-1.31257E-005	-5.99601E-002	1.33402E-001	3.57850E+000	9	...........
	69	0.933333	1.24959E-001	-9.94636E-005	0.00000E+000	-1.24289E-005	-5.99601E-002	1.24972E-001	3.57850E+000	9	...........
	70	0.946667	1.16608E-001	-9.87415E-005	0.00000E+000	-1.15141E-005	-5.99601E-002	1.16625E-001	3.57996E+000	9	...........
	71	0.96	1.08337E-001	-9.89676E-005	0.00000E+000	-1.07218E-005	-5.99601E-002	1.08347E-001	3.58000E+000	9	...........
	72	0.97333	1.00131E-001	-9.88020E-005	0.00000E+000	-9.89317E-006	-5.99601E-002	1.00144E-001	3.58000E+000	9	...........
	73	0.98667	9.20065E-002	-9.95938E-005	0.00000E+000	-9.16327E-006	-5.99601E-002	9.20180E-002	3.58000E+000	9	...........
	74	1	8.39650E-002	-9.89645E-005	0.00000E+000	-8.30956E-006	-5.99601E-002	8.39687E-002	3.58000E+000	9	...........
	75	1.01333	7.59880E-002	-9.91645E-005	0.00000E+000	-7.53532E-006	-5.99601E-002	7.59908E-002	3.58000E+000	9	...........
	76	1.02667	6.80850E-002	-9.95219E-005	0.00000E+000	-6.77595E-006	-5.99601E-002	6.80820E-002	3.58000E+000	9	...........
	77	1.04	6.02463E-002	-9.91177E-005	0.00000E+000	-5.97147E-006	-5.99601E-002	6.02395E-002	3.58000E+000	9	...........
	78	1.05333	5.24812E-002	-9.83696E-005	0.00000E+000	-5.16255E-006	-5.99601E-002	5.24743E-002	3.58000E+000	9	...........
	79	1.06667	4.48232E-002	-9.82258E-005	0.00000E+000	-4.40280E-006	-5.99601E-002	4.48176E-002	3.58000E+000	9	...........
	80	1.08	3.72059E-002	-9.94042E-005	0.00000E+000	-3.69842E-006	-5.99601E-002	3.71910E-002	3.58000E+000	9	...........
	81	1.09333	2.96458E-002	-9.81977E-005	0.00000E+000	-2.91115E-006	-5.99601E-002	2.96354E-002	3.58000E+000	9	...........
	82	1.10667	2.21608E-002	-9.94750E-005	0.00000E+000	-2.20445E-006	-5.99601E-002	2.21376E-002	3.58000E+000	9	...........
	83	1.12	1.47440E-002	-9.91125E-005	0.00000E+000	-1.46131E-006	-5.99601E-002	1.47177E-002	3.58000E+000	9	...........
	84	1.13333	7.38910E-003	-9.87238E-005	0.00000E+000	-7.29480E-007	-5.99601E-002	7.35556E-003	3.58000E+000	9	...........
	85	1.14167	1.46240E-003	-9.93337E-005	0.00000E+000	-1.45265E-007	-5.99601E-002	1.42261E-003	3.58000E+000	9	...........
STARTTIMEOFFSET	QUANT	1951.365	Start Time Offset (s)
