EXPLAIN
TAG	PWR800_DISCHARGE
TITLE	LABEL	PWR Cyclic Charge Discharge (Cell) - Discharge Step	Test &Identifier
DATE	LABEL	13-7-2017	Date
TIME	LABEL	15:12:46	Time
NOTES	NOTES	2	&Notes...
	supercap test cell
	6M KOH
PSTAT	PSTAT	IFC5000-01520	Potentiostat
CAPACITY	QUANT	1.00000E-003	Capacity (A-hr)
CELLTYPE	SELECTOR	1	&Cell Type
WORKINGCONNECTION	SELECTOR	0	&Working Lead
MAXDISCHARGETIME	VARIABLEANDUNITS	1.00000E+002	s	1.00000E+002	second(s)	Max &Discharge Time
DISCHARGEMODE	MULTIPARAM	0	1.00000E-004	&Discharge Mode	Constant Current	Amp(s)
SAMPLETIME	QUANT	1.00000E-002	Sa&mple Period (s)
DISCHARGESTOPAT1	MULTIPARAM	3	0.00000E+000	Discharge Stop At &1	Voltage < Limit	V
DISCHARGESTOPAT2	MULTIPARAM	0	0.00000E+000	Discharge Stop At &2	None	N/A
AESBHCSELECTOR	TOGGLE	F	Save Both Half Cells
IRCOMP	TOGGLE	F	IR &Measure
EOC	QUANT	0	Open Circuit (V)
SEQUENCER	TOGGLE	TRUE	Run as Sequence
PSTATMODEL	IQUANT	53	Pstat Model
PSTATSECTION	LABEL	IFC5000-01520	Pstat Section
PSTATSERIALNO	LABEL	01520	Pstat Serial Number
CTRLMODE	IQUANT	0	Control Mode
ELECTROMETER	IQUANT	1	RE=0 or CS=1
IESTAB	IQUANT	0	I/E Stability
CASPEED	IQUANT	4	Control Amp Speed
CONVENTION	IQUANT	1	Current Convention
ICHRANGE	IQUANT	2	Ich Range
ICHRANGEMODE	TOGGLE	T	Ich Auto Range
ICHOFFSETENABLE	TOGGLE	F	Ich Offset Enable
ICHOFFSET	QUANT	0	Ich Offset (V)
ICHFILTER	IQUANT	1	Ich Filter
VCHRANGE	IQUANT	2	Vch Range
VCHRANGEMODE	TOGGLE	T	Vch Auto Range
VCHOFFSETENABLE	TOGGLE	F	Vch Offset Enable
VCHOFFSET	QUANT	0	Vch Offset (V)
VCHFILTER	IQUANT	1	Vch Filter
IERANGELOWERLIMIT	IQUANT	9	I/E Range Lower Limit
IERANGEMODE	TOGGLE	F	I/E AutoRange
IERANGE	IQUANT	9	I/E Range
ACHSELECT	IQUANT	1	Ach Select
ACHRANGE	IQUANT	2	Ach Range
ACHOFFSETENABLE	TOGGLE	F	Ach Offset Enable
ACHOFFSET	QUANT	0	Ach Offset (V)
ACHFILTER	IQUANT	1	Ach Filter
CABLEID	IQUANT	14	Cable ID
DCCALDATE	LABEL	5-7-2017	DC Calibration Date
ACCALDATE	LABEL	12/3/2015	AC Calibration Date
FRAMEWORKVERSION	QUANT	7.01	Framework Version
INSTRUMENTVERSION	LABEL	4.00	Instrument Version
CURVE	TABLE	91
	Pt	T	Vf	Im	Vu	Pwr	Sig	Ach	Temp	IERange	Over
	#	s	V	A	V	W	V	V	deg C	#	bits
	0	0.013333	8.54640E-001	-9.91427E-005	0.00000E+000	-8.47313E-005	-5.99601E-002	8.55002E-001	3.57940E+000	9	...........
	1	0.026667	8.41266E-001	-9.90208E-005	0.00000E+000	-8.33028E-005	-5.99601E-002	8.41605E-001	3.57940E+000	9	...........
	2	0.04	8.28741E-001	-9.82842E-005	0.00000E+000	-8.14522E-005	-5.99601E-002	8.29027E-001	3.57940E+000	9	...........
	3	0.053333	8.16762E-001	-9.97397E-005	0.00000E+000	-8.14636E-005	-5.99601E-002	8.17045E-001	3.57940E+000	9	...........
	4	0.066667	8.05207E-001	-9.89301E-005	0.00000E+000	-7.96592E-005	-5.99601E-002	8.05487E-001	3.57940E+000	9	...........
	5	0.08	7.93915E-001	-9.87415E-005	0.00000E+000	-7.83924E-005	-5.99601E-002	7.94187E-001	3.57940E+000	9	...........
	6	0.093333	7.82843E-001	-9.84852E-005	0.00000E+000	-7.70985E-005	-5.99601E-002	7.83147E-001	3.57940E+000	9	...........
	7	0.106667	7.71944E-001	-9.93542E-005	0.00000E+000	-7.66959E-005	-5.99601E-002	7.72246E-001	3.57940E+000	9	...........
	8	0.12	7.61188E-001	-9.90395E-005	0.00000E+000	-7.53877E-005	-5.99601E-002	7.61471E-001	3.57940E+000	9	...........
	9	0.133333	7.50504E-001	-9.82060E-005	0.00000E+000	-7.37040E-005	-5.99601E-002	7.50799E-001	3.57940E+000	9	...........
	10	0.146667	7.39901E-001	-9.85613E-005	0.00000E+000	-7.29256E-005	-5.99601E-002	7.40196E-001	3.57940E+000	9	...........
	11	0.16	7.29393E-001	-9.81477E-005	0.00000E+000	-7.15883E-005	-5.99601E-002	7.29684E-001	3.57940E+000	9	...........
	12	0.173333	7.18912E-001	-9.86759E-005	0.00000E+000	-7.09393E-005	-5.99601E-002	7.19179E-001	3.57940E+000	9	...........
	13	0.186667	7.08454E-001	-9.87780E-005	0.00000E+000	-6.99797E-005	-5.99601E-002	7.08714E-001	3.57940E+000	9	...........
	14	0.2	6.98033E-001	-9.87467E-005	0.00000E+000	-6.89285E-005	-5.99601E-002	6.98303E-001	3.57940E+000	9	...........
	15	0.213333	6.87646E-001	-9.84467E-005	0.00000E+000	-6.76964E-005	-5.99601E-002	6.87914E-001	3.57940E+000	9	...........
	16	0.226667	6.77249E-001	-9.81633E-005	0.00000E+000	-6.64810E-005	-5.99601E-002	6.77538E-001	3.57940E+000	9	...........
	17	0.24	6.66919E-001	-9.86603E-005	0.00000E+000	-6.57984E-005	-5.99601E-002	6.67179E-001	3.57940E+000	9	...........
	18	0.253333	6.56533E-001	-9.87676E-005	0.00000E+000	-6.48442E-005	-5.99601E-002	6.56822E-001	3.57940E+000	9	...........
	19	0.266667	6.46183E-001	-9.97532E-005	0.00000E+000	-6.44588E-005	-5.99601E-002	6.46463E-001	3.57940E+000	9	...........
	20	0.28	6.35829E-001	-9.85457E-005	0.00000E+000	-6.26582E-005	-5.99601E-002	6.36116E-001	3.57940E+000	9	...........
	21	0.293333	6.25528E-001	-9.77924E-005	0.00000E+000	-6.11718E-005	-5.99601E-002	6.25779E-001	3.57940E+000	9	...........
	22	0.306667	6.15167E-001	-9.94427E-005	0.00000E+000	-6.11739E-005	-5.99601E-002	6.15468E-001	3.57940E+000	9	...........
	23	0.32	6.04835E-001	-9.82696E-005	0.00000E+000	-5.94369E-005	-5.99601E-002	6.05147E-001	3.57940E+000	9	...........
	24	0.333333	5.94567E-001	-9.89926E-005	0.00000E+000	-5.88578E-005	-5.99601E-002	5.94828E-001	3.57940E+000	9	...........
	25	0.346667	5.84239E-001	-9.85405E-005	0.00000E+000	-5.75711E-005	-5.99601E-002	5.84540E-001	3.57940E+000	9	...........
	26	0.36	5.74000E-001	-9.90614E-005	0.00000E+000	-5.68612E-005	-5.99601E-002	5.74228E-001	3.57940E+000	9	...........
	27	0.373333	5.63707E-001	-9.80091E-005	0.00000E+000	-5.52484E-005	-5.99601E-002	5.63968E-001	3.57940E+000	9	...........
	28	0.386667	5.53462E-001	-9.84509E-005	0.00000E+000	-5.44888E-005	-5.99601E-002	5.53692E-001	3.57940E+000	9	...........
	29	0.4	5.43250E-001	-9.78747E-005	0.00000E+000	-5.31704E-005	-5.99601E-002	5.43459E-001	3.57940E+000	9	...........
	30	0.413333	5.33006E-001	-9.89176E-005	0.00000E+000	-5.27237E-005	-5.99601E-002	5.33244E-001	3.57940E+000	9	...........
	31	0.426667	5.22842E-001	-9.90249E-005	0.00000E+000	-5.17744E-005	-5.99601E-002	5.23061E-001	3.57940E+000	9	...........
	32	0.44	5.12682E-001	-9.94563E-005	0.00000E+000	-5.09895E-005	-5.99601E-002	5.12930E-001	3.57940E+000	9	...........
	33	0.453333	5.02537E-001	-9.86353E-005	0.00000E+000	-4.95679E-005	-5.99601E-002	5.02804E-001	3.57940E+000	9	...........
	34	0.466667	4.92470E-001	-9.86332E-005	0.00000E+000	-4.85739E-005	-5.99601E-002	4.92733E-001	3.57940E+000	9	...........
	35	0.48	4.82665E-001	-9.84092E-005	0.00000E+000	-4.74987E-005	-5.99601E-002	4.82819E-001	3.57940E+000	9	...........
	36	0.493333	4.72791E-001	-9.95177E-005	0.00000E+000	-4.70511E-005	-5.99601E-002	4.72890E-001	3.57940E+000	9	...........
	37	0.506667	4.62819E-001	-9.89853E-005	0.00000E+000	-4.58123E-005	-5.99601E-002	4.62912E-001	3.57940E+000	9	...........
	38	0.52	4.52889E-001	-9.84300E-005	0.00000E+000	-4.45779E-005	-5.99601E-002	4.52985E-001	3.57940E+000	9	...........
	39	0.533333	4.43007E-001	-9.89197E-005	0.00000E+000	-4.38221E-005	-5.99601E-002	4.43095E-001	3.57940E+000	9	...........
	40	0.546667	4.33166E-001	-9.87520E-005	0.00000E+000	-4.27760E-005	-5.99601E-002	4.33256E-001	3.57940E+000	9	...........
	41	0.56	4.23373E-001	-9.96480E-005	0.00000E+000	-4.21883E-005	-5.99601E-002	4.23458E-001	3.57940E+000	9	...........
	42	0.573333	4.13629E-001	-9.88739E-005	0.00000E+000	-4.08971E-005	-5.99601E-002	4.13710E-001	3.57940E+000	9	...........
	43	0.586667	4.03938E-001	-9.89697E-005	0.00000E+000	-3.99776E-005	-5.99601E-002	4.04019E-001	3.57940E+000	9	...........
	44	0.6	3.94287E-001	-9.94802E-005	0.00000E+000	-3.92238E-005	-5.99601E-002	3.94362E-001	3.57940E+000	9	...........
	45	0.613333	3.84682E-001	-9.98959E-005	0.00000E+000	-3.84281E-005	-5.99601E-002	3.84755E-001	3.57940E+000	9	...........
	46	0.626667	3.75125E-001	-9.96563E-005	0.00000E+000	-3.73836E-005	-5.99601E-002	3.75196E-001	3.57940E+000	9	...........
	47	0.64	3.65618E-001	-9.86842E-005	0.00000E+000	-3.60807E-005	-5.99601E-002	3.65690E-001	3.57940E+000	9	...........
	48	0.653333	3.56150E-001	-9.86551E-005	0.00000E+000	-3.51360E-005	-5.99601E-002	3.56221E-001	3.57940E+000	9	...........
	49	0.666667	3.46734E-001	-9.82018E-005	0.00000E+000	-3.40499E-005	-5.99601E-002	3.46801E-001	3.57940E+000	9	...........
	50	0.68	3.37354E-001	-9.86790E-005	0.00000E+000	-3.32897E-005	-5.99601E-002	3.37421E-001	3.57940E+000	9	...........
	51	0.693333	3.28031E-001	-9.88489E-005	0.00000E+000	-3.24254E-005	-5.99601E-002	3.28093E-001	3.57940E+000	9	...........
	52	0.706667	3.18750E-001	-9.85446E-005	0.00000E+000	-3.14111E-005	-5.99601E-002	3.18805E-001	3.57940E+000	9	...........
	53	0.72	3.09501E-001	-9.91135E-005	0.00000E+000	-3.06757E-005	-5.99601E-002	3.09558E-001	3.57940E+000	9	...........
	54	0.733333	3.00296E-001	-9.82737E-005	0.00000E+000	-2.95112E-005	-5.99601E-002	3.00352E-001	3.57940E+000	9	...........
	55	0.746667	2.91133E-001	-9.94386E-005	0.00000E+000	-2.89498E-005	-5.99601E-002	2.91190E-001	3.57940E+000	9	...........
	56	0.76	2.82005E-001	-9.85050E-005	0.00000E+000	-2.77789E-005	-5.99601E-002	2.82064E-001	3.57940E+000	9	...........
	57	0.773333	2.72925E-001	-9.90385E-005	0.00000E+000	-2.70301E-005	-5.99601E-002	2.72977E-001	3.57940E+000	9	...........
	58	0.786667	2.63880E-001	-9.85790E-005	0.00000E+000	-2.60131E-005	-5.99601E-002	2.63933E-001	3.57940E+000	9	...........
	59	0.8	2.54872E-001	-9.80383E-005	0.00000E+000	-2.49872E-005	-5.99601E-002	2.54924E-001	3.57940E+000	9	...........
	60	0.813333	2.45908E-001	-9.94344E-005	0.00000E+000	-2.44517E-005	-5.99601E-002	2.45952E-001	3.57940E+000	9	...........
	61	0.826667	2.36981E-001	-9.89530E-005	0.00000E+000	-2.34500E-005	-5.99601E-002	2.37018E-001	3.57940E+000	9	...........
	62	0.84	2.28084E-001	-9.90010E-005	0.00000E+000	-2.25805E-005	-5.99601E-002	2.28122E-001	3.57940E+000	9	...........
	63	0.853333	2.19231E-001	-9.87905E-005	0.00000E+000	-2.16580E-005	-5.99601E-002	2.19267E-001	3.57940E+000	9	...........
	64	0.866667	2.10422E-001	-9.92854E-005	0.00000E+000	-2.08919E-005	-5.99601E-002	2.10457E-001	3.57940E+000	9	...........
	65	0.88	2.01650E-001	-9.94729E-005	0.00000E+000	-2.00587E-005	-5.99601E-002	2.01682E-001	3.57940E+000	9	...........
	66	0.893333	1.92921E-001	-9.81758E-005	0.00000E+000	-1.89402E-005	-5.99601E-002	1.92952E-001	3.57940E+000	9	...........
	67	0.906667	1.84234E-001	-9.86301E-005	0.00000E+000	-1.81710E-005	-5.99601E-002	1.84261E-001	3.57940E+000	9	...........
	68	0.92	1.75587E-001	-9.86342E-005	0.00000E+000	-1.73189E-005	-5.99601E-002	1.75621E-001	3.57940E+000	9	...........
	69	0.933333	1.67000E-001	-9.86801E-005	0.00000E+000	-1.64796E-005	-5.99601E-002	1.67024E-001	3.57975E+000	9	...........
	70	0.946667	1.58459E-001	-9.82810E-005	0.00000E+000	-1.55735E-005	-5.99601E-002	1.58483E-001	3.58010E+000	9	...........
	71	0.96	1.49974E-001	-9.82810E-005	0.00000E+000	-1.47396E-005	-5.99601E-002	1.49994E-001	3.58010E+000	9	...........
	72	0.97333	1.41540E-001	-9.86634E-005	0.00000E+000	-1.39649E-005	-5.99601E-002	1.41559E-001	3.58010E+000	9	...........
	73	0.98667	1.33169E-001	-9.82737E-005	0.00000E+000	-1.30870E-005	-5.99601E-002	1.33183E-001	3.58010E+000	9	...........
	74	1	1.24848E-001	-9.87176E-005	0.00000E+000	-1.23247E-005	-5.99601E-002	1.24868E-001	3.58010E+000	9	...........
	75	1.01333	1.16596E-001	-9.86103E-005	0.00000E+000	-1.14975E-005	-5.99601E-002	1.16611E-001	3.58010E+000	9	...........
	76	1.02667	1.08408E-001	-9.92177E-005	0.00000E+000	-1.07560E-005	-5.99601E-002	1.08420E-001	3.58010E+000	9	...........
	77	1.04	1.00282E-001	-9.90572E-005	0.00000E+000	-9.93366E-006	-5.99601E-002	1.00289E-001	3.58010E+000	9	...........
	78	1.05333	9.22196E-002	-9.93552E-005	0.00000E+000	-9.16250E-006	-5.99601E-002	9.22309E-002	3.58010E+000	9	...........
	79	1.06667	8.42247E-002	-9.84060E-005	0.00000E+000	-8.28822E-006	-5.99601E-002	8.42302E-002	3.58010E+000	9	...........
	80	1.08	7.63005E-002	-9.91208E-005	0.00000E+000	-7.56297E-006	-5.99601E-002	7.63003E-002	3.58010E+000	9	...........
	81	1.09333	6.84319E-002	-9.89510E-005	0.00000E+000	-6.77141E-006	-5.99601E-002	6.84318E-002	3.58010E+000	9	...........
	82	1.10667	6.06343E-002	-9.92093E-005	0.00000E+000	-6.01549E-006	-5.99601E-002	6.06326E-002	3.58010E+000	9	...........
	83	1.12	5.28978E-002	-9.85352E-005	0.00000E+000	-5.21230E-006	-5.99601E-002	5.28954E-002	3.58010E+000	9	...........
	84	1.13333	4.52637E-002	-9.85144E-005	0.00000E+000	-4.45913E-006	-5.99601E-002	4.52527E-002	3.58010E+000	9	...........
	85	1.14667	3.76598E-002	-9.93115E-005	0.00000E+000	-3.74005E-006	-5.99601E-002	3.76487E-002	3.58010E+000	9	...........
	86	1.16	3.01135E-002	-9.93510E-005	0.00000E+000	-2.99181E-006	-5.99601E-002	3.00991E-002	3.58010E+000	9	...........
	87	1.17333	2.26303E-002	-9.83560E-005	0.00000E+000	-2.22583E-006	-5.99601E-002	2.26104E-002	3.58010E+000	9	...........
	88	1.18667	1.52077E-002	-9.90010E-005	0.00000E+000	-1.50558E-006	-5.99601E-002	1.51785E-002	3.58010E+000	9	...........
	89	1.2	7.84343E-003	-9.96178E-005	0.00000E+000	-7.81345E-007	-5.99601E-002	7.81013E-003	3.58010E+000	9	...........
	90	1.21	1.44641E-003	-9.87700E-005	0.00000E+000	-1.42862E-007	-5.99601E-002	1.40738E-003	3.58010E+000	9	...........
STARTTIMEOFFSET	QUANT	484.9782	Start Time Offset (s)
