EXPLAIN
TAG	PWR800_DISCHARGE
TITLE	LABEL	PWR Cyclic Charge Discharge (Cell) - Discharge Step	Test &Identifier
DATE	LABEL	13-7-2017	Date
TIME	LABEL	15:30:08	Time
NOTES	NOTES	2	&Notes...
	supercap test cell
	6M KOH
PSTAT	PSTAT	IFC5000-01520	Potentiostat
CAPACITY	QUANT	1.00000E-003	Capacity (A-hr)
CELLTYPE	SELECTOR	1	&Cell Type
WORKINGCONNECTION	SELECTOR	0	&Working Lead
MAXDISCHARGETIME	VARIABLEANDUNITS	1.00000E+002	s	1.00000E+002	second(s)	Max &Discharge Time
DISCHARGEMODE	MULTIPARAM	0	1.00000E-004	&Discharge Mode	Constant Current	Amp(s)
SAMPLETIME	QUANT	1.00000E-002	Sa&mple Period (s)
DISCHARGESTOPAT1	MULTIPARAM	3	0.00000E+000	Discharge Stop At &1	Voltage < Limit	V
DISCHARGESTOPAT2	MULTIPARAM	0	0.00000E+000	Discharge Stop At &2	None	N/A
AESBHCSELECTOR	TOGGLE	F	Save Both Half Cells
IRCOMP	TOGGLE	F	IR &Measure
EOC	QUANT	0	Open Circuit (V)
SEQUENCER	TOGGLE	TRUE	Run as Sequence
PSTATMODEL	IQUANT	53	Pstat Model
PSTATSECTION	LABEL	IFC5000-01520	Pstat Section
PSTATSERIALNO	LABEL	01520	Pstat Serial Number
CTRLMODE	IQUANT	0	Control Mode
ELECTROMETER	IQUANT	1	RE=0 or CS=1
IESTAB	IQUANT	0	I/E Stability
CASPEED	IQUANT	4	Control Amp Speed
CONVENTION	IQUANT	1	Current Convention
ICHRANGE	IQUANT	2	Ich Range
ICHRANGEMODE	TOGGLE	T	Ich Auto Range
ICHOFFSETENABLE	TOGGLE	F	Ich Offset Enable
ICHOFFSET	QUANT	0	Ich Offset (V)
ICHFILTER	IQUANT	1	Ich Filter
VCHRANGE	IQUANT	2	Vch Range
VCHRANGEMODE	TOGGLE	T	Vch Auto Range
VCHOFFSETENABLE	TOGGLE	F	Vch Offset Enable
VCHOFFSET	QUANT	0	Vch Offset (V)
VCHFILTER	IQUANT	1	Vch Filter
IERANGELOWERLIMIT	IQUANT	9	I/E Range Lower Limit
IERANGEMODE	TOGGLE	F	I/E AutoRange
IERANGE	IQUANT	9	I/E Range
ACHSELECT	IQUANT	1	Ach Select
ACHRANGE	IQUANT	2	Ach Range
ACHOFFSETENABLE	TOGGLE	F	Ach Offset Enable
ACHOFFSET	QUANT	0	Ach Offset (V)
ACHFILTER	IQUANT	1	Ach Filter
CABLEID	IQUANT	14	Cable ID
DCCALDATE	LABEL	5-7-2017	DC Calibration Date
ACCALDATE	LABEL	12/3/2015	AC Calibration Date
FRAMEWORKVERSION	QUANT	7.01	Framework Version
INSTRUMENTVERSION	LABEL	4.00	Instrument Version
CURVE	TABLE	88
	Pt	T	Vf	Im	Vu	Pwr	Sig	Ach	Temp	IERange	Over
	#	s	V	A	V	W	V	V	deg C	#	bits
	0	0.013333	8.48037E-001	-9.90906E-005	0.00000E+000	-8.40325E-005	-5.99601E-002	8.48378E-001	3.58000E+000	9	...........
	1	0.026667	8.34060E-001	-9.86176E-005	0.00000E+000	-8.22529E-005	-5.99601E-002	8.34387E-001	3.58000E+000	9	...........
	2	0.04	8.20935E-001	-9.84165E-005	0.00000E+000	-8.07935E-005	-5.99601E-002	8.21248E-001	3.58000E+000	9	...........
	3	0.053333	8.08358E-001	-9.88572E-005	0.00000E+000	-7.99120E-005	-5.99601E-002	8.08657E-001	3.58000E+000	9	...........
	4	0.066667	7.96183E-001	-9.96188E-005	0.00000E+000	-7.93148E-005	-5.99601E-002	7.96490E-001	3.58000E+000	9	...........
	5	0.08	7.84295E-001	-9.87040E-005	0.00000E+000	-7.74131E-005	-5.99601E-002	7.84591E-001	3.58000E+000	9	...........
	6	0.093333	7.72645E-001	-9.88874E-005	0.00000E+000	-7.64048E-005	-5.99601E-002	7.72947E-001	3.57981E+000	9	...........
	7	0.106667	7.61160E-001	-9.88676E-005	0.00000E+000	-7.52541E-005	-5.99601E-002	7.61435E-001	3.57850E+000	9	...........
	8	0.12	7.49782E-001	-9.87520E-005	0.00000E+000	-7.40425E-005	-5.99601E-002	7.50067E-001	3.57850E+000	9	...........
	9	0.133333	7.38513E-001	-9.84946E-005	0.00000E+000	-7.27396E-005	-5.99601E-002	7.38771E-001	3.57850E+000	9	...........
	10	0.146667	7.27320E-001	-9.94938E-005	0.00000E+000	-7.23638E-005	-5.99601E-002	7.27596E-001	3.57850E+000	9	...........
	11	0.16	7.16181E-001	-9.90166E-005	0.00000E+000	-7.09138E-005	-5.99601E-002	7.16435E-001	3.57850E+000	9	...........
	12	0.173333	7.05078E-001	-9.93635E-005	0.00000E+000	-7.00591E-005	-5.99601E-002	7.05350E-001	3.57850E+000	9	...........
	13	0.186667	6.93993E-001	-9.96365E-005	0.00000E+000	-6.91470E-005	-5.99601E-002	6.94278E-001	3.57850E+000	9	...........
	14	0.2	6.82995E-001	-9.91739E-005	0.00000E+000	-6.77353E-005	-5.99601E-002	6.83238E-001	3.57850E+000	9	...........
	15	0.213333	6.71996E-001	-9.82925E-005	0.00000E+000	-6.60522E-005	-5.99601E-002	6.72222E-001	3.57850E+000	9	...........
	16	0.226667	6.60992E-001	-9.91343E-005	0.00000E+000	-6.55270E-005	-5.99601E-002	6.61255E-001	3.57850E+000	9	...........
	17	0.24	6.50032E-001	-9.98282E-005	0.00000E+000	-6.48915E-005	-5.99601E-002	6.50272E-001	3.57850E+000	9	...........
	18	0.253333	6.39068E-001	-9.90729E-005	0.00000E+000	-6.33143E-005	-5.99601E-002	6.39322E-001	3.57850E+000	9	...........
	19	0.266667	6.28156E-001	-9.89978E-005	0.00000E+000	-6.21861E-005	-5.99601E-002	6.28383E-001	3.57850E+000	9	...........
	20	0.28	6.17227E-001	-9.85092E-005	0.00000E+000	-6.08025E-005	-5.99601E-002	6.17499E-001	3.57850E+000	9	...........
	21	0.293333	6.06309E-001	-9.87853E-005	0.00000E+000	-5.98944E-005	-5.99601E-002	6.06576E-001	3.57850E+000	9	...........
	22	0.306667	5.95448E-001	-9.81737E-005	0.00000E+000	-5.84573E-005	-5.99601E-002	5.95715E-001	3.57850E+000	9	...........
	23	0.32	5.84580E-001	-9.86457E-005	0.00000E+000	-5.76663E-005	-5.99601E-002	5.84867E-001	3.57850E+000	9	...........
	24	0.333333	5.73782E-001	-9.80799E-005	0.00000E+000	-5.62765E-005	-5.99601E-002	5.74027E-001	3.57850E+000	9	...........
	25	0.346667	5.62972E-001	-9.90979E-005	0.00000E+000	-5.57893E-005	-5.99601E-002	5.63247E-001	3.57850E+000	9	...........
	26	0.36	5.52195E-001	-9.97272E-005	0.00000E+000	-5.50689E-005	-5.99601E-002	5.52446E-001	3.57850E+000	9	...........
	27	0.373333	5.41488E-001	-9.89989E-005	0.00000E+000	-5.36067E-005	-5.99601E-002	5.41727E-001	3.57850E+000	9	...........
	28	0.386667	5.30764E-001	-9.88072E-005	0.00000E+000	-5.24433E-005	-5.99601E-002	5.31017E-001	3.57850E+000	9	...........
	29	0.4	5.20111E-001	-9.91281E-005	0.00000E+000	-5.15576E-005	-5.99601E-002	5.20351E-001	3.57850E+000	9	...........
	30	0.413333	5.09495E-001	-9.89718E-005	0.00000E+000	-5.04256E-005	-5.99601E-002	5.09763E-001	3.57850E+000	9	...........
	31	0.426667	4.98931E-001	-9.87530E-005	0.00000E+000	-4.92709E-005	-5.99601E-002	4.99168E-001	3.57850E+000	9	...........
	32	0.44	4.88463E-001	-9.90229E-005	0.00000E+000	-4.83690E-005	-5.99601E-002	4.88676E-001	3.57850E+000	9	...........
	33	0.453333	4.78317E-001	-9.82571E-005	0.00000E+000	-4.69981E-005	-5.99601E-002	4.78417E-001	3.57850E+000	9	...........
	34	0.466667	4.67903E-001	-9.85957E-005	0.00000E+000	-4.61333E-005	-5.99601E-002	4.67999E-001	3.57850E+000	9	...........
	35	0.48	4.57545E-001	-9.88072E-005	0.00000E+000	-4.52087E-005	-5.99601E-002	4.57638E-001	3.57850E+000	9	...........
	36	0.493333	4.47250E-001	-9.87540E-005	0.00000E+000	-4.41678E-005	-5.99601E-002	4.47342E-001	3.57850E+000	9	...........
	37	0.506667	4.37013E-001	-9.87301E-005	0.00000E+000	-4.31463E-005	-5.99601E-002	4.37098E-001	3.57850E+000	9	...........
	38	0.52	4.26834E-001	-9.92573E-005	0.00000E+000	-4.23664E-005	-5.99601E-002	4.26917E-001	3.57850E+000	9	...........
	39	0.533333	4.16718E-001	-9.91843E-005	0.00000E+000	-4.13319E-005	-5.99601E-002	4.16804E-001	3.57850E+000	9	...........
	40	0.546667	4.06671E-001	-9.83633E-005	0.00000E+000	-4.00015E-005	-5.99601E-002	4.06749E-001	3.57850E+000	9	...........
	41	0.56	3.96673E-001	-9.94948E-005	0.00000E+000	-3.94670E-005	-5.99601E-002	3.96750E-001	3.57850E+000	9	...........
	42	0.573333	3.86749E-001	-9.93281E-005	0.00000E+000	-3.84151E-005	-5.99601E-002	3.86813E-001	3.57850E+000	9	...........
	43	0.586667	3.76867E-001	-9.87374E-005	0.00000E+000	-3.72109E-005	-5.99601E-002	3.76943E-001	3.57850E+000	9	...........
	44	0.6	3.67055E-001	-9.98241E-005	0.00000E+000	-3.66409E-005	-5.99601E-002	3.67128E-001	3.57850E+000	9	...........
	45	0.613333	3.57301E-001	-9.89885E-005	0.00000E+000	-3.53686E-005	-5.99601E-002	3.57365E-001	3.57850E+000	9	...........
	46	0.626667	3.47605E-001	-9.88270E-005	0.00000E+000	-3.43528E-005	-5.99601E-002	3.47669E-001	3.57850E+000	9	...........
	47	0.64	3.37961E-001	-9.96980E-005	0.00000E+000	-3.36940E-005	-5.99601E-002	3.38023E-001	3.57850E+000	9	...........
	48	0.653333	3.28375E-001	-9.89885E-005	0.00000E+000	-3.25053E-005	-5.99601E-002	3.28436E-001	3.57850E+000	9	...........
	49	0.666667	3.18847E-001	-9.89280E-005	0.00000E+000	-3.15429E-005	-5.99601E-002	3.18909E-001	3.57850E+000	9	...........
	50	0.68	3.09353E-001	-9.78195E-005	0.00000E+000	-3.02608E-005	-5.99601E-002	3.09419E-001	3.57850E+000	9	...........
	51	0.693333	2.99920E-001	-9.84300E-005	0.00000E+000	-2.95211E-005	-5.99601E-002	2.99978E-001	3.57850E+000	9	...........
	52	0.706667	2.90532E-001	-9.87082E-005	0.00000E+000	-2.86779E-005	-5.99601E-002	2.90593E-001	3.57850E+000	9	...........
	53	0.72	2.81196E-001	-9.93427E-005	0.00000E+000	-2.79347E-005	-5.99601E-002	2.81256E-001	3.57850E+000	9	...........
	54	0.733333	2.71911E-001	-9.87290E-005	0.00000E+000	-2.68455E-005	-5.99601E-002	2.71963E-001	3.57850E+000	9	...........
	55	0.746667	2.62663E-001	-9.86957E-005	0.00000E+000	-2.59237E-005	-5.99601E-002	2.62715E-001	3.57850E+000	9	...........
	56	0.76	2.53462E-001	-9.97543E-005	0.00000E+000	-2.52839E-005	-5.99601E-002	2.53511E-001	3.57850E+000	9	...........
	57	0.773333	2.44315E-001	-9.94354E-005	0.00000E+000	-2.42936E-005	-5.99601E-002	2.44354E-001	3.57850E+000	9	...........
	58	0.786667	2.35213E-001	-9.87447E-005	0.00000E+000	-2.32260E-005	-5.99601E-002	2.35251E-001	3.57850E+000	9	...........
	59	0.8	2.26150E-001	-9.89926E-005	0.00000E+000	-2.23872E-005	-5.99601E-002	2.26185E-001	3.57850E+000	9	...........
	60	0.813333	2.17129E-001	-9.88155E-005	0.00000E+000	-2.14558E-005	-5.99601E-002	2.17170E-001	3.57850E+000	9	...........
	61	0.826667	2.08172E-001	-9.78445E-005	0.00000E+000	-2.03684E-005	-5.99601E-002	2.08200E-001	3.57850E+000	9	...........
	62	0.84	1.99254E-001	-9.86874E-005	0.00000E+000	-1.96639E-005	-5.99601E-002	1.99288E-001	3.57850E+000	9	...........
	63	0.853333	1.90390E-001	-9.93344E-005	0.00000E+000	-1.89123E-005	-5.99601E-002	1.90418E-001	3.57850E+000	9	...........
	64	0.866667	1.81584E-001	-9.87415E-005	0.00000E+000	-1.79299E-005	-5.99601E-002	1.81607E-001	3.57850E+000	9	...........
	65	0.88	1.72830E-001	-9.90864E-005	0.00000E+000	-1.71251E-005	-5.99601E-002	1.72862E-001	3.57850E+000	9	...........
	66	0.893333	1.64136E-001	-9.81852E-005	0.00000E+000	-1.61158E-005	-5.99601E-002	1.64159E-001	3.57850E+000	9	...........
	67	0.906667	1.55506E-001	-1.00014E-004	0.00000E+000	-1.55527E-005	-5.99601E-002	1.55530E-001	3.57850E+000	9	...........
	68	0.92	1.46938E-001	-9.94365E-005	0.00000E+000	-1.46110E-005	-5.99601E-002	1.46955E-001	3.57850E+000	9	...........
	69	0.933333	1.38431E-001	-9.85498E-005	0.00000E+000	-1.36424E-005	-5.99601E-002	1.38451E-001	3.57850E+000	9	...........
	70	0.946667	1.29997E-001	-9.88530E-005	0.00000E+000	-1.28506E-005	-5.99601E-002	1.30017E-001	3.57850E+000	9	...........
	71	0.96	1.21637E-001	-9.90322E-005	0.00000E+000	-1.20459E-005	-5.99601E-002	1.21654E-001	3.57850E+000	9	...........
	72	0.97333	1.13343E-001	-9.91864E-005	0.00000E+000	-1.12421E-005	-5.99601E-002	1.13357E-001	3.57850E+000	9	...........
	73	0.98667	1.05127E-001	-9.87249E-005	0.00000E+000	-1.03786E-005	-5.99601E-002	1.05140E-001	3.57850E+000	9	...........
	74	1	9.69824E-002	-9.92448E-005	0.00000E+000	-9.62500E-006	-5.99601E-002	9.69900E-002	3.57850E+000	9	...........
	75	1.01333	8.89042E-002	-9.89114E-005	0.00000E+000	-8.79364E-006	-5.99601E-002	8.89107E-002	3.57850E+000	9	...........
	76	1.02667	8.09105E-002	-9.79184E-005	0.00000E+000	-7.92263E-006	-5.99601E-002	8.09129E-002	3.57850E+000	9	...........
	77	1.04	7.29853E-002	-9.99168E-005	0.00000E+000	-7.29245E-006	-5.99601E-002	7.29786E-002	3.57850E+000	9	...........
	78	1.05333	6.51270E-002	-9.88624E-005	0.00000E+000	-6.43861E-006	-5.99601E-002	6.51250E-002	3.57850E+000	9	...........
	79	1.06667	5.73360E-002	-9.95302E-005	0.00000E+000	-5.70666E-006	-5.99601E-002	5.73365E-002	3.57850E+000	9	...........
	80	1.08	4.96321E-002	-9.89468E-005	0.00000E+000	-4.91094E-006	-5.99601E-002	4.96250E-002	3.57850E+000	9	...........
	81	1.09333	4.20081E-002	-9.92479E-005	0.00000E+000	-4.16922E-006	-5.99601E-002	4.19962E-002	3.57850E+000	9	...........
	82	1.10667	3.44244E-002	-9.85686E-005	0.00000E+000	-3.39316E-006	-5.99601E-002	3.44124E-002	3.57850E+000	9	...........
	83	1.12	2.69033E-002	-9.86759E-005	0.00000E+000	-2.65470E-006	-5.99601E-002	2.68882E-002	3.57850E+000	9	...........
	84	1.13333	1.94522E-002	-9.87655E-005	0.00000E+000	-1.92120E-006	-5.99601E-002	1.94290E-002	3.57850E+000	9	...........
	85	1.14667	1.20652E-002	-9.82466E-005	0.00000E+000	-1.18537E-006	-5.99601E-002	1.20412E-002	3.57850E+000	9	...........
	86	1.16	4.74045E-003	-9.90822E-005	0.00000E+000	-4.69695E-007	-5.99601E-002	4.71082E-003	3.57850E+000	9	...........
	87	1.16333	1.93979E-004	-9.90979E-005	0.00000E+000	-1.92229E-008	-5.99601E-002	1.63435E-004	3.57850E+000	9	...........
STARTTIMEOFFSET	QUANT	1272.035	Start Time Offset (s)
