EXPLAIN
TAG	PWR800_DISCHARGE
TITLE	LABEL	PWR Cyclic Charge Discharge (Cell) - Discharge Step	Test &Identifier
DATE	LABEL	13-7-2017	Date
TIME	LABEL	15:17:42	Time
NOTES	NOTES	2	&Notes...
	supercap test cell
	6M KOH
PSTAT	PSTAT	IFC5000-01520	Potentiostat
CAPACITY	QUANT	1.00000E-003	Capacity (A-hr)
CELLTYPE	SELECTOR	1	&Cell Type
WORKINGCONNECTION	SELECTOR	0	&Working Lead
MAXDISCHARGETIME	VARIABLEANDUNITS	1.00000E+002	s	1.00000E+002	second(s)	Max &Discharge Time
DISCHARGEMODE	MULTIPARAM	0	1.00000E-004	&Discharge Mode	Constant Current	Amp(s)
SAMPLETIME	QUANT	1.00000E-002	Sa&mple Period (s)
DISCHARGESTOPAT1	MULTIPARAM	3	0.00000E+000	Discharge Stop At &1	Voltage < Limit	V
DISCHARGESTOPAT2	MULTIPARAM	0	0.00000E+000	Discharge Stop At &2	None	N/A
AESBHCSELECTOR	TOGGLE	F	Save Both Half Cells
IRCOMP	TOGGLE	F	IR &Measure
EOC	QUANT	0	Open Circuit (V)
SEQUENCER	TOGGLE	TRUE	Run as Sequence
PSTATMODEL	IQUANT	53	Pstat Model
PSTATSECTION	LABEL	IFC5000-01520	Pstat Section
PSTATSERIALNO	LABEL	01520	Pstat Serial Number
CTRLMODE	IQUANT	0	Control Mode
ELECTROMETER	IQUANT	1	RE=0 or CS=1
IESTAB	IQUANT	0	I/E Stability
CASPEED	IQUANT	4	Control Amp Speed
CONVENTION	IQUANT	1	Current Convention
ICHRANGE	IQUANT	2	Ich Range
ICHRANGEMODE	TOGGLE	T	Ich Auto Range
ICHOFFSETENABLE	TOGGLE	F	Ich Offset Enable
ICHOFFSET	QUANT	0	Ich Offset (V)
ICHFILTER	IQUANT	1	Ich Filter
VCHRANGE	IQUANT	2	Vch Range
VCHRANGEMODE	TOGGLE	T	Vch Auto Range
VCHOFFSETENABLE	TOGGLE	F	Vch Offset Enable
VCHOFFSET	QUANT	0	Vch Offset (V)
VCHFILTER	IQUANT	1	Vch Filter
IERANGELOWERLIMIT	IQUANT	9	I/E Range Lower Limit
IERANGEMODE	TOGGLE	F	I/E AutoRange
IERANGE	IQUANT	9	I/E Range
ACHSELECT	IQUANT	1	Ach Select
ACHRANGE	IQUANT	2	Ach Range
ACHOFFSETENABLE	TOGGLE	F	Ach Offset Enable
ACHOFFSET	QUANT	0	Ach Offset (V)
ACHFILTER	IQUANT	1	Ach Filter
CABLEID	IQUANT	14	Cable ID
DCCALDATE	LABEL	5-7-2017	DC Calibration Date
ACCALDATE	LABEL	12/3/2015	AC Calibration Date
FRAMEWORKVERSION	QUANT	7.01	Framework Version
INSTRUMENTVERSION	LABEL	4.00	Instrument Version
CURVE	TABLE	90
	Pt	T	Vf	Im	Vu	Pwr	Sig	Ach	Temp	IERange	Over
	#	s	V	A	V	W	V	V	deg C	#	bits
	0	0.013333	8.50059E-001	-9.93667E-005	0.00000E+000	-8.44676E-005	-5.99601E-002	8.50426E-001	3.57930E+000	9	...........
	1	0.026667	8.36492E-001	-9.89812E-005	0.00000E+000	-8.27969E-005	-5.99601E-002	8.36827E-001	3.57930E+000	9	...........
	2	0.04	8.23786E-001	-9.84842E-005	0.00000E+000	-8.11299E-005	-5.99601E-002	8.24105E-001	3.57930E+000	9	...........
	3	0.053333	8.11588E-001	-9.92364E-005	0.00000E+000	-8.05391E-005	-5.99601E-002	8.11906E-001	3.57930E+000	9	...........
	4	0.066667	7.99840E-001	-9.93469E-005	0.00000E+000	-7.94616E-005	-5.99601E-002	8.00131E-001	3.57930E+000	9	...........
	5	0.08	7.88353E-001	-9.77236E-005	0.00000E+000	-7.70407E-005	-5.99601E-002	7.88630E-001	3.57930E+000	9	...........
	6	0.093333	7.77075E-001	-9.95698E-005	0.00000E+000	-7.73732E-005	-5.99601E-002	7.77374E-001	3.57930E+000	9	...........
	7	0.106667	7.65971E-001	-9.82935E-005	0.00000E+000	-7.52900E-005	-5.99601E-002	7.66265E-001	3.57930E+000	9	...........
	8	0.12	7.55014E-001	-9.88447E-005	0.00000E+000	-7.46291E-005	-5.99601E-002	7.55285E-001	3.57930E+000	9	...........
	9	0.133333	7.44138E-001	-9.85300E-005	0.00000E+000	-7.33199E-005	-5.99601E-002	7.44395E-001	3.57930E+000	9	...........
	10	0.146667	7.33325E-001	-9.94156E-005	0.00000E+000	-7.29040E-005	-5.99601E-002	7.33576E-001	3.57930E+000	9	...........
	11	0.16	7.22614E-001	-9.96740E-005	0.00000E+000	-7.20258E-005	-5.99601E-002	7.22844E-001	3.57930E+000	9	...........
	12	0.173333	7.11878E-001	-9.87134E-005	0.00000E+000	-7.02719E-005	-5.99601E-002	7.12134E-001	3.57930E+000	9	...........
	13	0.186667	7.01223E-001	-9.88301E-005	0.00000E+000	-6.93019E-005	-5.99601E-002	7.01510E-001	3.57930E+000	9	...........
	14	0.2	6.90582E-001	-9.88405E-005	0.00000E+000	-6.82575E-005	-5.99601E-002	6.90864E-001	3.57930E+000	9	...........
	15	0.213333	6.79988E-001	-9.86582E-005	0.00000E+000	-6.70864E-005	-5.99601E-002	6.80238E-001	3.57930E+000	9	...........
	16	0.226667	6.69414E-001	-9.84259E-005	0.00000E+000	-6.58876E-005	-5.99601E-002	6.69660E-001	3.57930E+000	9	...........
	17	0.24	6.58814E-001	-9.93333E-005	0.00000E+000	-6.54422E-005	-5.99601E-002	6.59063E-001	3.57930E+000	9	...........
	18	0.253333	6.48233E-001	-9.86655E-005	0.00000E+000	-6.39583E-005	-5.99601E-002	6.48499E-001	3.57930E+000	9	...........
	19	0.266667	6.37701E-001	-9.90176E-005	0.00000E+000	-6.31436E-005	-5.99601E-002	6.37946E-001	3.57930E+000	9	...........
	20	0.28	6.27173E-001	-9.95625E-005	0.00000E+000	-6.24430E-005	-5.99601E-002	6.27411E-001	3.57930E+000	9	...........
	21	0.293333	6.16626E-001	-9.83904E-005	0.00000E+000	-6.06700E-005	-5.99601E-002	6.16886E-001	3.57930E+000	9	...........
	22	0.306667	6.06070E-001	-9.86301E-005	0.00000E+000	-5.97768E-005	-5.99601E-002	6.06361E-001	3.57930E+000	9	...........
	23	0.32	5.95583E-001	-9.83894E-005	0.00000E+000	-5.85990E-005	-5.99601E-002	5.95860E-001	3.57930E+000	9	...........
	24	0.333333	5.85108E-001	-9.78830E-005	0.00000E+000	-5.72721E-005	-5.99601E-002	5.85355E-001	3.57930E+000	9	...........
	25	0.346667	5.74635E-001	-9.92427E-005	0.00000E+000	-5.70283E-005	-5.99601E-002	5.74878E-001	3.57930E+000	9	...........
	26	0.36	5.64177E-001	-9.84800E-005	0.00000E+000	-5.55602E-005	-5.99601E-002	5.64448E-001	3.57930E+000	9	...........
	27	0.373333	5.53729E-001	-9.89728E-005	0.00000E+000	-5.48041E-005	-5.99601E-002	5.53995E-001	3.57930E+000	9	...........
	28	0.386667	5.43341E-001	-1.00018E-004	0.00000E+000	-5.43438E-005	-5.99601E-002	5.43604E-001	3.57930E+000	9	...........
	29	0.4	5.32950E-001	-9.88937E-005	0.00000E+000	-5.27053E-005	-5.99601E-002	5.33230E-001	3.57930E+000	9	...........
	30	0.413333	5.22601E-001	-9.87113E-005	0.00000E+000	-5.15866E-005	-5.99601E-002	5.22874E-001	3.57930E+000	9	...........
	31	0.426667	5.12282E-001	-9.93156E-005	0.00000E+000	-5.08776E-005	-5.99601E-002	5.12556E-001	3.57930E+000	9	...........
	32	0.44	5.01979E-001	-9.84800E-005	0.00000E+000	-4.94350E-005	-5.99601E-002	5.02256E-001	3.57930E+000	9	...........
	33	0.453333	4.91754E-001	-9.87884E-005	0.00000E+000	-4.85796E-005	-5.99601E-002	4.92004E-001	3.57930E+000	9	...........
	34	0.466667	4.81855E-001	-9.84384E-005	0.00000E+000	-4.74330E-005	-5.99601E-002	4.81993E-001	3.57930E+000	9	...........
	35	0.48	4.71801E-001	-9.80518E-005	0.00000E+000	-4.62610E-005	-5.99601E-002	4.71895E-001	3.57930E+000	9	...........
	36	0.493333	4.61689E-001	-9.95209E-005	0.00000E+000	-4.59477E-005	-5.99601E-002	4.61784E-001	3.57930E+000	9	...........
	37	0.506667	4.51623E-001	-9.87749E-005	0.00000E+000	-4.46090E-005	-5.99601E-002	4.51722E-001	3.57930E+000	9	...........
	38	0.52	4.41622E-001	-9.90697E-005	0.00000E+000	-4.37514E-005	-5.99601E-002	4.41714E-001	3.57930E+000	9	...........
	39	0.533333	4.31660E-001	-9.86207E-005	0.00000E+000	-4.25706E-005	-5.99601E-002	4.31753E-001	3.57930E+000	9	...........
	40	0.546667	4.21752E-001	-9.88770E-005	0.00000E+000	-4.17016E-005	-5.99601E-002	4.21842E-001	3.57930E+000	9	...........
	41	0.56	4.11903E-001	-9.93490E-005	0.00000E+000	-4.09221E-005	-5.99601E-002	4.11986E-001	3.57930E+000	9	...........
	42	0.573333	4.02105E-001	-9.90843E-005	0.00000E+000	-3.98423E-005	-5.99601E-002	4.02182E-001	3.57930E+000	9	...........
	43	0.586667	3.92352E-001	-9.90520E-005	0.00000E+000	-3.88633E-005	-5.99601E-002	3.92430E-001	3.57930E+000	9	...........
	44	0.6	3.82661E-001	-9.82373E-005	0.00000E+000	-3.75916E-005	-5.99601E-002	3.82733E-001	3.57930E+000	9	...........
	45	0.613333	3.73014E-001	-9.89343E-005	0.00000E+000	-3.69039E-005	-5.99601E-002	3.73083E-001	3.57930E+000	9	...........
	46	0.626667	3.63418E-001	-9.96782E-005	0.00000E+000	-3.62248E-005	-5.99601E-002	3.63491E-001	3.57930E+000	9	...........
	47	0.64	3.53872E-001	-9.82237E-005	0.00000E+000	-3.47586E-005	-5.99601E-002	3.53943E-001	3.57930E+000	9	...........
	48	0.653333	3.44381E-001	-9.84404E-005	0.00000E+000	-3.39010E-005	-5.99601E-002	3.44443E-001	3.57956E+000	9	...........
	49	0.666667	3.34927E-001	-1.00425E-004	0.00000E+000	-3.36351E-005	-5.99601E-002	3.34993E-001	3.58000E+000	9	...........
	50	0.68	3.25535E-001	-9.87822E-005	0.00000E+000	-3.21571E-005	-5.99601E-002	3.25600E-001	3.58000E+000	9	...........
	51	0.693333	3.16186E-001	-9.95334E-005	0.00000E+000	-3.14710E-005	-5.99601E-002	3.16246E-001	3.58000E+000	9	...........
	52	0.706667	3.06884E-001	-9.92667E-005	0.00000E+000	-3.04633E-005	-5.99601E-002	3.06945E-001	3.58000E+000	9	...........
	53	0.72	2.97627E-001	-9.81716E-005	0.00000E+000	-2.92185E-005	-5.99601E-002	2.97678E-001	3.58000E+000	9	...........
	54	0.733333	2.88403E-001	-9.91489E-005	0.00000E+000	-2.85949E-005	-5.99601E-002	2.88458E-001	3.58000E+000	9	...........
	55	0.746667	2.79228E-001	-9.92646E-005	0.00000E+000	-2.77174E-005	-5.99601E-002	2.79281E-001	3.58000E+000	9	...........
	56	0.76	2.70089E-001	-9.93437E-005	0.00000E+000	-2.68317E-005	-5.99601E-002	2.70145E-001	3.58000E+000	9	...........
	57	0.773333	2.61002E-001	-9.96032E-005	0.00000E+000	-2.59966E-005	-5.99601E-002	2.61052E-001	3.58000E+000	9	...........
	58	0.786667	2.51952E-001	-9.91698E-005	0.00000E+000	-2.49860E-005	-5.99601E-002	2.51999E-001	3.58000E+000	9	...........
	59	0.8	2.42945E-001	-9.93948E-005	0.00000E+000	-2.41475E-005	-5.99601E-002	2.42986E-001	3.58000E+000	9	...........
	60	0.813333	2.33977E-001	-9.91385E-005	0.00000E+000	-2.31961E-005	-5.99601E-002	2.34016E-001	3.58000E+000	9	...........
	61	0.826667	2.25042E-001	-9.90051E-005	0.00000E+000	-2.22803E-005	-5.99601E-002	2.25082E-001	3.58000E+000	9	...........
	62	0.84	2.16155E-001	-9.84998E-005	0.00000E+000	-2.12912E-005	-5.99601E-002	2.16190E-001	3.58000E+000	9	...........
	63	0.853333	2.07311E-001	-9.81956E-005	0.00000E+000	-2.03570E-005	-5.99601E-002	2.07342E-001	3.58000E+000	9	...........
	64	0.866667	1.98508E-001	-9.86238E-005	0.00000E+000	-1.95777E-005	-5.99601E-002	1.98544E-001	3.58000E+000	9	...........
	65	0.88	1.89753E-001	-9.89603E-005	0.00000E+000	-1.87781E-005	-5.99601E-002	1.89787E-001	3.58000E+000	9	...........
	66	0.893333	1.81047E-001	-9.82873E-005	0.00000E+000	-1.77946E-005	-5.99601E-002	1.81078E-001	3.58000E+000	9	...........
	67	0.906667	1.72390E-001	-9.84550E-005	0.00000E+000	-1.69726E-005	-5.99601E-002	1.72421E-001	3.58000E+000	9	...........
	68	0.92	1.63788E-001	-9.87509E-005	0.00000E+000	-1.61743E-005	-5.99601E-002	1.63815E-001	3.58000E+000	9	...........
	69	0.933333	1.55248E-001	-9.86373E-005	0.00000E+000	-1.53133E-005	-5.99601E-002	1.55264E-001	3.58000E+000	9	...........
	70	0.946667	1.46756E-001	-9.91791E-005	0.00000E+000	-1.45551E-005	-5.99601E-002	1.46778E-001	3.58000E+000	9	...........
	71	0.96	1.38326E-001	-9.98657E-005	0.00000E+000	-1.38141E-005	-5.99601E-002	1.38350E-001	3.58000E+000	9	...........
	72	0.97333	1.29959E-001	-9.93813E-005	0.00000E+000	-1.29155E-005	-5.99601E-002	1.29977E-001	3.58000E+000	9	...........
	73	0.98667	1.21657E-001	-9.87217E-005	0.00000E+000	-1.20102E-005	-5.99601E-002	1.21678E-001	3.58000E+000	9	...........
	74	1	1.13422E-001	-9.86936E-005	0.00000E+000	-1.11940E-005	-5.99601E-002	1.13434E-001	3.58000E+000	9	...........
	75	1.01333	1.05251E-001	-9.90176E-005	0.00000E+000	-1.04217E-005	-5.99601E-002	1.05266E-001	3.58000E+000	9	...........
	76	1.02667	9.71438E-002	-9.88332E-005	0.00000E+000	-9.60103E-006	-5.99601E-002	9.71562E-002	3.58000E+000	9	...........
	77	1.04	8.91043E-002	-9.86884E-005	0.00000E+000	-8.79356E-006	-5.99601E-002	8.91183E-002	3.58000E+000	9	...........
	78	1.05333	8.11418E-002	-9.97584E-005	0.00000E+000	-8.09457E-006	-5.99601E-002	8.11498E-002	3.58000E+000	9	...........
	79	1.06667	7.32453E-002	-9.95240E-005	0.00000E+000	-7.28967E-006	-5.99601E-002	7.32481E-002	3.58000E+000	9	...........
	80	1.08	6.54160E-002	-9.91802E-005	0.00000E+000	-6.48797E-006	-5.99601E-002	6.54140E-002	3.58000E+000	9	...........
	81	1.09333	5.76487E-002	-9.88384E-005	0.00000E+000	-5.69790E-006	-5.99601E-002	5.76501E-002	3.58000E+000	9	...........
	82	1.10667	4.99585E-002	-9.88541E-005	0.00000E+000	-4.93860E-006	-5.99601E-002	4.99520E-002	3.58000E+000	9	...........
	83	1.12	4.23495E-002	-9.91771E-005	0.00000E+000	-4.20009E-006	-5.99601E-002	4.23415E-002	3.58000E+000	9	...........
	84	1.13333	3.47828E-002	-9.91979E-005	0.00000E+000	-3.45039E-006	-5.99601E-002	3.47626E-002	3.58000E+000	9	...........
	85	1.14667	2.72691E-002	-9.92927E-005	0.00000E+000	-2.70762E-006	-5.99601E-002	2.72556E-002	3.58000E+000	9	...........
	86	1.16	1.98198E-002	-9.98032E-005	0.00000E+000	-1.97808E-006	-5.99601E-002	1.97956E-002	3.58000E+000	9	...........
	87	1.17333	1.24395E-002	-9.89926E-005	0.00000E+000	-1.23142E-006	-5.99601E-002	1.24100E-002	3.58000E+000	9	...........
	88	1.18667	5.11893E-003	-9.94646E-005	0.00000E+000	-5.09153E-007	-5.99601E-002	5.08612E-003	3.58000E+000	9	...........
	89	1.19167	1.16694E-004	-9.95493E-005	0.00000E+000	-1.16168E-008	-5.99601E-002	7.96598E-005	3.58000E+000	9	...........
STARTTIMEOFFSET	QUANT	709.491	Start Time Offset (s)
