EXPLAIN
TAG	PWR800_DISCHARGE
TITLE	LABEL	PWR Cyclic Charge Discharge (Cell) - Discharge Step	Test &Identifier
DATE	LABEL	13-7-2017	Date
TIME	LABEL	15:19:51	Time
NOTES	NOTES	2	&Notes...
	supercap test cell
	6M KOH
PSTAT	PSTAT	IFC5000-01520	Potentiostat
CAPACITY	QUANT	1.00000E-003	Capacity (A-hr)
CELLTYPE	SELECTOR	1	&Cell Type
WORKINGCONNECTION	SELECTOR	0	&Working Lead
MAXDISCHARGETIME	VARIABLEANDUNITS	1.00000E+002	s	1.00000E+002	second(s)	Max &Discharge Time
DISCHARGEMODE	MULTIPARAM	0	1.00000E-004	&Discharge Mode	Constant Current	Amp(s)
SAMPLETIME	QUANT	1.00000E-002	Sa&mple Period (s)
DISCHARGESTOPAT1	MULTIPARAM	3	0.00000E+000	Discharge Stop At &1	Voltage < Limit	V
DISCHARGESTOPAT2	MULTIPARAM	0	0.00000E+000	Discharge Stop At &2	None	N/A
AESBHCSELECTOR	TOGGLE	F	Save Both Half Cells
IRCOMP	TOGGLE	F	IR &Measure
EOC	QUANT	0	Open Circuit (V)
SEQUENCER	TOGGLE	TRUE	Run as Sequence
PSTATMODEL	IQUANT	53	Pstat Model
PSTATSECTION	LABEL	IFC5000-01520	Pstat Section
PSTATSERIALNO	LABEL	01520	Pstat Serial Number
CTRLMODE	IQUANT	0	Control Mode
ELECTROMETER	IQUANT	1	RE=0 or CS=1
IESTAB	IQUANT	0	I/E Stability
CASPEED	IQUANT	4	Control Amp Speed
CONVENTION	IQUANT	1	Current Convention
ICHRANGE	IQUANT	2	Ich Range
ICHRANGEMODE	TOGGLE	T	Ich Auto Range
ICHOFFSETENABLE	TOGGLE	F	Ich Offset Enable
ICHOFFSET	QUANT	0	Ich Offset (V)
ICHFILTER	IQUANT	1	Ich Filter
VCHRANGE	IQUANT	2	Vch Range
VCHRANGEMODE	TOGGLE	T	Vch Auto Range
VCHOFFSETENABLE	TOGGLE	F	Vch Offset Enable
VCHOFFSET	QUANT	0	Vch Offset (V)
VCHFILTER	IQUANT	1	Vch Filter
IERANGELOWERLIMIT	IQUANT	9	I/E Range Lower Limit
IERANGEMODE	TOGGLE	F	I/E AutoRange
IERANGE	IQUANT	9	I/E Range
ACHSELECT	IQUANT	1	Ach Select
ACHRANGE	IQUANT	2	Ach Range
ACHOFFSETENABLE	TOGGLE	F	Ach Offset Enable
ACHOFFSET	QUANT	0	Ach Offset (V)
ACHFILTER	IQUANT	1	Ach Filter
CABLEID	IQUANT	14	Cable ID
DCCALDATE	LABEL	5-7-2017	DC Calibration Date
ACCALDATE	LABEL	12/3/2015	AC Calibration Date
FRAMEWORKVERSION	QUANT	7.01	Framework Version
INSTRUMENTVERSION	LABEL	4.00	Instrument Version
CURVE	TABLE	89
	Pt	T	Vf	Im	Vu	Pwr	Sig	Ach	Temp	IERange	Over
	#	s	V	A	V	W	V	V	deg C	#	bits
	0	0.013333	8.51088E-001	-9.90739E-005	0.00000E+000	-8.43207E-005	-5.99601E-002	8.51412E-001	3.57910E+000	9	...........
	1	0.026667	8.37383E-001	-9.89416E-005	0.00000E+000	-8.28520E-005	-5.99601E-002	8.37722E-001	3.57910E+000	9	...........
	2	0.04	8.24565E-001	-9.81977E-005	0.00000E+000	-8.09704E-005	-5.99601E-002	8.24875E-001	3.57910E+000	9	...........
	3	0.053333	8.12258E-001	-9.88113E-005	0.00000E+000	-8.02603E-005	-5.99601E-002	8.12590E-001	3.57910E+000	9	...........
	4	0.066667	8.00426E-001	-9.84477E-005	0.00000E+000	-7.88001E-005	-5.99601E-002	8.00736E-001	3.57910E+000	9	...........
	5	0.08	7.88827E-001	-9.78747E-005	0.00000E+000	-7.72062E-005	-5.99601E-002	7.89155E-001	3.57910E+000	9	...........
	6	0.093333	7.77474E-001	-9.88093E-005	0.00000E+000	-7.68216E-005	-5.99601E-002	7.77796E-001	3.57910E+000	9	...........
	7	0.106667	7.66281E-001	-9.93958E-005	0.00000E+000	-7.61651E-005	-5.99601E-002	7.66585E-001	3.57910E+000	9	...........
	8	0.12	7.55202E-001	-9.94625E-005	0.00000E+000	-7.51143E-005	-5.99601E-002	7.55542E-001	3.57910E+000	9	...........
	9	0.133333	7.44253E-001	-9.89968E-005	0.00000E+000	-7.36786E-005	-5.99601E-002	7.44540E-001	3.57910E+000	9	...........
	10	0.146667	7.33342E-001	-9.92948E-005	0.00000E+000	-7.28171E-005	-5.99601E-002	7.33644E-001	3.57910E+000	9	...........
	11	0.16	7.22520E-001	-9.92135E-005	0.00000E+000	-7.16837E-005	-5.99601E-002	7.22811E-001	3.57910E+000	9	...........
	12	0.173333	7.11721E-001	-9.91218E-005	0.00000E+000	-7.05471E-005	-5.99601E-002	7.11988E-001	3.57910E+000	9	...........
	13	0.186667	7.00993E-001	-9.89895E-005	0.00000E+000	-6.93910E-005	-5.99601E-002	7.01250E-001	3.57910E+000	9	...........
	14	0.2	6.90268E-001	-9.99699E-005	0.00000E+000	-6.90060E-005	-5.99601E-002	6.90520E-001	3.57910E+000	9	...........
	15	0.213333	6.79593E-001	-9.87488E-005	0.00000E+000	-6.71090E-005	-5.99601E-002	6.79828E-001	3.57910E+000	9	...........
	16	0.226667	6.68914E-001	-9.93104E-005	0.00000E+000	-6.64301E-005	-5.99601E-002	6.69168E-001	3.57910E+000	9	...........
	17	0.24	6.58232E-001	-9.82341E-005	0.00000E+000	-6.46609E-005	-5.99601E-002	6.58522E-001	3.57910E+000	9	...........
	18	0.253333	6.47590E-001	-9.91625E-005	0.00000E+000	-6.42166E-005	-5.99601E-002	6.47871E-001	3.57910E+000	9	...........
	19	0.266667	6.36957E-001	-9.89312E-005	0.00000E+000	-6.30149E-005	-5.99601E-002	6.37212E-001	3.57910E+000	9	...........
	20	0.28	6.26348E-001	-9.89572E-005	0.00000E+000	-6.19816E-005	-5.99601E-002	6.26599E-001	3.57910E+000	9	...........
	21	0.293333	6.15735E-001	-9.91093E-005	0.00000E+000	-6.10251E-005	-5.99601E-002	6.15991E-001	3.57910E+000	9	...........
	22	0.306667	6.05098E-001	-9.86082E-005	0.00000E+000	-5.96676E-005	-5.99601E-002	6.05370E-001	3.57910E+000	9	...........
	23	0.32	5.94544E-001	-9.92375E-005	0.00000E+000	-5.90010E-005	-5.99601E-002	5.94808E-001	3.57910E+000	9	...........
	24	0.333333	5.83953E-001	-9.87895E-005	0.00000E+000	-5.76885E-005	-5.99601E-002	5.84226E-001	3.57910E+000	9	...........
	25	0.346667	5.73440E-001	-9.89134E-005	0.00000E+000	-5.67209E-005	-5.99601E-002	5.73685E-001	3.57910E+000	9	...........
	26	0.36	5.62897E-001	-9.90968E-005	0.00000E+000	-5.57813E-005	-5.99601E-002	5.63143E-001	3.57910E+000	9	...........
	27	0.373333	5.52388E-001	-9.92625E-005	0.00000E+000	-5.48314E-005	-5.99601E-002	5.52639E-001	3.57910E+000	9	...........
	28	0.386667	5.41899E-001	-9.96688E-005	0.00000E+000	-5.40105E-005	-5.99601E-002	5.42159E-001	3.57910E+000	9	...........
	29	0.4	5.31435E-001	-9.89114E-005	0.00000E+000	-5.25650E-005	-5.99601E-002	5.31689E-001	3.57910E+000	9	...........
	30	0.413333	5.21055E-001	-9.84279E-005	0.00000E+000	-5.12864E-005	-5.99601E-002	5.21279E-001	3.57910E+000	9	...........
	31	0.426667	5.10660E-001	-9.88259E-005	0.00000E+000	-5.04665E-005	-5.99601E-002	5.10885E-001	3.57910E+000	9	...........
	32	0.44	5.00304E-001	-9.85863E-005	0.00000E+000	-4.93231E-005	-5.99601E-002	5.00524E-001	3.57910E+000	9	...........
	33	0.453333	4.90013E-001	-9.87936E-005	0.00000E+000	-4.84101E-005	-5.99601E-002	4.90258E-001	3.57910E+000	9	...........
	34	0.466667	4.80077E-001	-9.86384E-005	0.00000E+000	-4.73541E-005	-5.99601E-002	4.80199E-001	3.57910E+000	9	...........
	35	0.48	4.69926E-001	-9.91145E-005	0.00000E+000	-4.65765E-005	-5.99601E-002	4.70018E-001	3.57910E+000	9	...........
	36	0.493333	4.59772E-001	-9.84623E-005	0.00000E+000	-4.52702E-005	-5.99601E-002	4.59862E-001	3.57910E+000	9	...........
	37	0.506667	4.49665E-001	-9.92333E-005	0.00000E+000	-4.46217E-005	-5.99601E-002	4.49752E-001	3.57910E+000	9	...........
	38	0.52	4.39606E-001	-9.79122E-005	0.00000E+000	-4.30428E-005	-5.99601E-002	4.39699E-001	3.57910E+000	9	...........
	39	0.533333	4.29606E-001	-9.94156E-005	0.00000E+000	-4.27096E-005	-5.99601E-002	4.29691E-001	3.57910E+000	9	...........
	40	0.546667	4.19660E-001	-9.89645E-005	0.00000E+000	-4.15314E-005	-5.99601E-002	4.19747E-001	3.57910E+000	9	...........
	41	0.56	4.09766E-001	-9.96907E-005	0.00000E+000	-4.08498E-005	-5.99601E-002	4.09844E-001	3.57910E+000	9	...........
	42	0.573333	3.99928E-001	-9.95740E-005	0.00000E+000	-3.98224E-005	-5.99601E-002	4.00002E-001	3.57910E+000	9	...........
	43	0.586667	3.90140E-001	-9.87936E-005	0.00000E+000	-3.85433E-005	-5.99601E-002	3.90211E-001	3.57910E+000	9	...........
	44	0.6	3.80408E-001	-9.89114E-005	0.00000E+000	-3.76267E-005	-5.99601E-002	3.80476E-001	3.57910E+000	9	...........
	45	0.613333	3.70732E-001	-9.88749E-005	0.00000E+000	-3.66560E-005	-5.99601E-002	3.70798E-001	3.57910E+000	9	...........
	46	0.626667	3.61104E-001	-9.87374E-005	0.00000E+000	-3.56544E-005	-5.99601E-002	3.61169E-001	3.57910E+000	9	...........
	47	0.64	3.51527E-001	-9.84769E-005	0.00000E+000	-3.46173E-005	-5.99601E-002	3.51590E-001	3.57929E+000	9	...........
	48	0.653333	3.42007E-001	-9.79330E-005	0.00000E+000	-3.34938E-005	-5.99601E-002	3.42063E-001	3.58000E+000	9	...........
	49	0.666667	3.32531E-001	-9.86540E-005	0.00000E+000	-3.28055E-005	-5.99601E-002	3.32584E-001	3.58000E+000	9	...........
	50	0.68	3.23106E-001	-9.90333E-005	0.00000E+000	-3.19982E-005	-5.99601E-002	3.23165E-001	3.58000E+000	9	...........
	51	0.693333	3.13734E-001	-9.79841E-005	0.00000E+000	-3.07409E-005	-5.99601E-002	3.13785E-001	3.58000E+000	9	...........
	52	0.706667	3.04400E-001	-9.91468E-005	0.00000E+000	-3.01803E-005	-5.99601E-002	3.04456E-001	3.58000E+000	9	...........
	53	0.72	2.95114E-001	-9.81914E-005	0.00000E+000	-2.89777E-005	-5.99601E-002	2.95166E-001	3.58000E+000	9	...........
	54	0.733333	2.85873E-001	-9.93031E-005	0.00000E+000	-2.83881E-005	-5.99601E-002	2.85928E-001	3.58000E+000	9	...........
	55	0.746667	2.76681E-001	-9.91979E-005	0.00000E+000	-2.74462E-005	-5.99601E-002	2.76730E-001	3.58000E+000	9	...........
	56	0.76	2.67526E-001	-9.87051E-005	0.00000E+000	-2.64062E-005	-5.99601E-002	2.67575E-001	3.58000E+000	9	...........
	57	0.773333	2.58413E-001	-9.82727E-005	0.00000E+000	-2.53950E-005	-5.99601E-002	2.58461E-001	3.58000E+000	9	...........
	58	0.786667	2.49342E-001	-9.87645E-005	0.00000E+000	-2.46261E-005	-5.99601E-002	2.49388E-001	3.58000E+000	9	...........
	59	0.8	2.40315E-001	-9.88468E-005	0.00000E+000	-2.37544E-005	-5.99601E-002	2.40353E-001	3.58000E+000	9	...........
	60	0.813333	2.31333E-001	-9.82831E-005	0.00000E+000	-2.27361E-005	-5.99601E-002	2.31366E-001	3.58000E+000	9	...........
	61	0.826667	2.22384E-001	-9.79018E-005	0.00000E+000	-2.17718E-005	-5.99601E-002	2.22421E-001	3.58000E+000	9	...........
	62	0.84	2.13481E-001	-9.91593E-005	0.00000E+000	-2.11686E-005	-5.99601E-002	2.13515E-001	3.58000E+000	9	...........
	63	0.853333	2.04623E-001	-9.94229E-005	0.00000E+000	-2.03442E-005	-5.99601E-002	2.04657E-001	3.58000E+000	9	...........
	64	0.866667	1.95810E-001	-9.86373E-005	0.00000E+000	-1.93142E-005	-5.99601E-002	1.95844E-001	3.58000E+000	9	...........
	65	0.88	1.87049E-001	-9.82664E-005	0.00000E+000	-1.83806E-005	-5.99601E-002	1.87075E-001	3.58000E+000	9	...........
	66	0.893333	1.78336E-001	-9.88207E-005	0.00000E+000	-1.76232E-005	-5.99601E-002	1.78360E-001	3.58000E+000	9	...........
	67	0.906667	1.69671E-001	-9.87488E-005	0.00000E+000	-1.67548E-005	-5.99601E-002	1.69696E-001	3.58000E+000	9	...........
	68	0.92	1.61076E-001	-9.80008E-005	0.00000E+000	-1.57855E-005	-5.99601E-002	1.61090E-001	3.58000E+000	9	...........
	69	0.933333	1.52522E-001	-9.91500E-005	0.00000E+000	-1.51226E-005	-5.99601E-002	1.52545E-001	3.58000E+000	9	...........
	70	0.946667	1.44038E-001	-9.92979E-005	0.00000E+000	-1.43026E-005	-5.99601E-002	1.44053E-001	3.58000E+000	9	...........
	71	0.96	1.35609E-001	-9.78841E-005	0.00000E+000	-1.32739E-005	-5.99601E-002	1.35624E-001	3.58000E+000	9	...........
	72	0.97333	1.27248E-001	-9.80945E-005	0.00000E+000	-1.24823E-005	-5.99601E-002	1.27266E-001	3.58000E+000	9	...........
	73	0.98667	1.18949E-001	-9.90895E-005	0.00000E+000	-1.17866E-005	-5.99601E-002	1.18966E-001	3.58000E+000	9	...........
	74	1	1.10722E-001	-9.83050E-005	0.00000E+000	-1.08845E-005	-5.99601E-002	1.10735E-001	3.58000E+000	9	...........
	75	1.01333	1.02559E-001	-9.88457E-005	0.00000E+000	-1.01375E-005	-5.99601E-002	1.02565E-001	3.58000E+000	9	...........
	76	1.02667	9.44729E-002	-9.89020E-005	0.00000E+000	-9.34355E-006	-5.99601E-002	9.44750E-002	3.58000E+000	9	...........
	77	1.04	8.64526E-002	-9.76861E-005	0.00000E+000	-8.44522E-006	-5.99601E-002	8.64562E-002	3.58000E+000	9	...........
	78	1.05333	7.85081E-002	-9.83123E-005	0.00000E+000	-7.71831E-006	-5.99601E-002	7.85030E-002	3.58000E+000	9	...........
	79	1.06667	7.06252E-002	-9.89062E-005	0.00000E+000	-6.98526E-006	-5.99601E-002	7.06219E-002	3.58000E+000	9	...........
	80	1.08	6.28099E-002	-9.88311E-005	0.00000E+000	-6.20757E-006	-5.99601E-002	6.28042E-002	3.58000E+000	9	...........
	81	1.09333	5.50562E-002	-9.91979E-005	0.00000E+000	-5.46146E-006	-5.99601E-002	5.50564E-002	3.58000E+000	9	...........
	82	1.10667	4.74046E-002	-9.86426E-005	0.00000E+000	-4.67611E-006	-5.99601E-002	4.73940E-002	3.58000E+000	9	...........
	83	1.12	3.98019E-002	-9.90906E-005	0.00000E+000	-3.94399E-006	-5.99601E-002	3.97931E-002	3.58000E+000	9	...........
	84	1.13333	3.22507E-002	-9.92364E-005	0.00000E+000	-3.20044E-006	-5.99601E-002	3.22361E-002	3.58000E+000	9	...........
	85	1.14667	2.47618E-002	-9.77590E-005	0.00000E+000	-2.42069E-006	-5.99601E-002	2.47444E-002	3.58000E+000	9	...........
	86	1.16	1.73371E-002	-9.95188E-005	0.00000E+000	-1.72536E-006	-5.99601E-002	1.73127E-002	3.58000E+000	9	...........
	87	1.17333	9.97226E-003	-9.93375E-005	0.00000E+000	-9.90619E-007	-5.99601E-002	9.94531E-003	3.58000E+000	9	...........
	88	1.18667	2.67250E-003	-9.89426E-005	0.00000E+000	-2.64424E-007	-5.99601E-002	2.63799E-003	3.58000E+000	9	...........
STARTTIMEOFFSET	QUANT	807.1827	Start Time Offset (s)
