EXPLAIN
TAG	PWR800_DISCHARGE
TITLE	LABEL	PWR Cyclic Charge Discharge (Cell) - Discharge Step	Test &Identifier
DATE	LABEL	13-7-2017	Date
TIME	LABEL	15:15:49	Time
NOTES	NOTES	2	&Notes...
	supercap test cell
	6M KOH
PSTAT	PSTAT	IFC5000-01520	Potentiostat
CAPACITY	QUANT	1.00000E-003	Capacity (A-hr)
CELLTYPE	SELECTOR	1	&Cell Type
WORKINGCONNECTION	SELECTOR	0	&Working Lead
MAXDISCHARGETIME	VARIABLEANDUNITS	1.00000E+002	s	1.00000E+002	second(s)	Max &Discharge Time
DISCHARGEMODE	MULTIPARAM	0	1.00000E-004	&Discharge Mode	Constant Current	Amp(s)
SAMPLETIME	QUANT	1.00000E-002	Sa&mple Period (s)
DISCHARGESTOPAT1	MULTIPARAM	3	0.00000E+000	Discharge Stop At &1	Voltage < Limit	V
DISCHARGESTOPAT2	MULTIPARAM	0	0.00000E+000	Discharge Stop At &2	None	N/A
AESBHCSELECTOR	TOGGLE	F	Save Both Half Cells
IRCOMP	TOGGLE	F	IR &Measure
EOC	QUANT	0	Open Circuit (V)
SEQUENCER	TOGGLE	TRUE	Run as Sequence
PSTATMODEL	IQUANT	53	Pstat Model
PSTATSECTION	LABEL	IFC5000-01520	Pstat Section
PSTATSERIALNO	LABEL	01520	Pstat Serial Number
CTRLMODE	IQUANT	0	Control Mode
ELECTROMETER	IQUANT	1	RE=0 or CS=1
IESTAB	IQUANT	0	I/E Stability
CASPEED	IQUANT	4	Control Amp Speed
CONVENTION	IQUANT	1	Current Convention
ICHRANGE	IQUANT	2	Ich Range
ICHRANGEMODE	TOGGLE	T	Ich Auto Range
ICHOFFSETENABLE	TOGGLE	F	Ich Offset Enable
ICHOFFSET	QUANT	0	Ich Offset (V)
ICHFILTER	IQUANT	1	Ich Filter
VCHRANGE	IQUANT	2	Vch Range
VCHRANGEMODE	TOGGLE	T	Vch Auto Range
VCHOFFSETENABLE	TOGGLE	F	Vch Offset Enable
VCHOFFSET	QUANT	0	Vch Offset (V)
VCHFILTER	IQUANT	1	Vch Filter
IERANGELOWERLIMIT	IQUANT	9	I/E Range Lower Limit
IERANGEMODE	TOGGLE	F	I/E AutoRange
IERANGE	IQUANT	9	I/E Range
ACHSELECT	IQUANT	1	Ach Select
ACHRANGE	IQUANT	2	Ach Range
ACHOFFSETENABLE	TOGGLE	F	Ach Offset Enable
ACHOFFSET	QUANT	0	Ach Offset (V)
ACHFILTER	IQUANT	1	Ach Filter
CABLEID	IQUANT	14	Cable ID
DCCALDATE	LABEL	5-7-2017	DC Calibration Date
ACCALDATE	LABEL	12/3/2015	AC Calibration Date
FRAMEWORKVERSION	QUANT	7.01	Framework Version
INSTRUMENTVERSION	LABEL	4.00	Instrument Version
CURVE	TABLE	90
	Pt	T	Vf	Im	Vu	Pwr	Sig	Ach	Temp	IERange	Over
	#	s	V	A	V	W	V	V	deg C	#	bits
	0	0.013333	8.52608E-001	-9.88020E-005	0.00000E+000	-8.42393E-005	-5.99601E-002	8.52939E-001	3.57860E+000	9	...........
	1	0.026667	8.39090E-001	-9.94844E-005	0.00000E+000	-8.34764E-005	-5.99601E-002	8.39427E-001	3.57860E+000	9	...........
	2	0.04	8.26438E-001	-9.81456E-005	0.00000E+000	-8.11112E-005	-5.99601E-002	8.26788E-001	3.57860E+000	9	...........
	3	0.053333	8.14319E-001	-9.89801E-005	0.00000E+000	-8.06014E-005	-5.99601E-002	8.14667E-001	3.57860E+000	9	...........
	4	0.066667	8.02659E-001	-9.81154E-005	0.00000E+000	-7.87532E-005	-5.99601E-002	8.02973E-001	3.57860E+000	9	...........
	5	0.08	7.91235E-001	-9.80560E-005	0.00000E+000	-7.75853E-005	-5.99601E-002	7.91566E-001	3.57860E+000	9	...........
	6	0.093333	7.80027E-001	-9.96396E-005	0.00000E+000	-7.77216E-005	-5.99601E-002	7.80384E-001	3.57860E+000	9	...........
	7	0.106667	7.69021E-001	-9.77747E-005	0.00000E+000	-7.51907E-005	-5.99601E-002	7.69364E-001	3.57860E+000	9	...........
	8	0.12	7.58149E-001	-9.88030E-005	0.00000E+000	-7.49074E-005	-5.99601E-002	7.58466E-001	3.57860E+000	9	...........
	9	0.133333	7.47351E-001	-9.89760E-005	0.00000E+000	-7.39698E-005	-5.99601E-002	7.47666E-001	3.57860E+000	9	...........
	10	0.146667	7.36610E-001	-9.87092E-005	0.00000E+000	-7.27102E-005	-5.99601E-002	7.36929E-001	3.57860E+000	9	...........
	11	0.16	7.25986E-001	-9.87686E-005	0.00000E+000	-7.17046E-005	-5.99601E-002	7.26286E-001	3.57860E+000	9	...........
	12	0.173333	7.15338E-001	-9.86509E-005	0.00000E+000	-7.05688E-005	-5.99601E-002	7.15645E-001	3.57860E+000	9	...........
	13	0.186667	7.04769E-001	-9.88051E-005	0.00000E+000	-6.96348E-005	-5.99601E-002	7.05075E-001	3.57860E+000	9	...........
	14	0.2	6.94238E-001	-9.79883E-005	0.00000E+000	-6.80272E-005	-5.99601E-002	6.94535E-001	3.57860E+000	9	...........
	15	0.213333	6.83719E-001	-9.86592E-005	0.00000E+000	-6.74552E-005	-5.99601E-002	6.84014E-001	3.57860E+000	9	...........
	16	0.226667	6.73215E-001	-9.90739E-005	0.00000E+000	-6.66981E-005	-5.99601E-002	6.73510E-001	3.57860E+000	9	...........
	17	0.24	6.62694E-001	-9.97418E-005	0.00000E+000	-6.60982E-005	-5.99601E-002	6.62992E-001	3.57860E+000	9	...........
	18	0.253333	6.52226E-001	-9.89114E-005	0.00000E+000	-6.45126E-005	-5.99601E-002	6.52490E-001	3.57860E+000	9	...........
	19	0.266667	6.41734E-001	-9.81966E-005	0.00000E+000	-6.30161E-005	-5.99601E-002	6.42018E-001	3.57860E+000	9	...........
	20	0.28	6.31267E-001	-1.00409E-004	0.00000E+000	-6.33846E-005	-5.99601E-002	6.31554E-001	3.57860E+000	9	...........
	21	0.293333	6.20833E-001	-9.79601E-005	0.00000E+000	-6.08169E-005	-5.99601E-002	6.21089E-001	3.57860E+000	9	...........
	22	0.306667	6.10332E-001	-9.79956E-005	0.00000E+000	-5.98098E-005	-5.99601E-002	6.10656E-001	3.57860E+000	9	...........
	23	0.32	5.99909E-001	-9.90458E-005	0.00000E+000	-5.94185E-005	-5.99601E-002	6.00212E-001	3.57860E+000	9	...........
	24	0.333333	5.89498E-001	-9.73058E-005	0.00000E+000	-5.73616E-005	-5.99601E-002	5.89803E-001	3.57860E+000	9	...........
	25	0.346667	5.79085E-001	-9.88520E-005	0.00000E+000	-5.72437E-005	-5.99601E-002	5.79363E-001	3.57860E+000	9	...........
	26	0.36	5.68715E-001	-9.92635E-005	0.00000E+000	-5.64527E-005	-5.99601E-002	5.68983E-001	3.57860E+000	9	...........
	27	0.373333	5.58310E-001	-9.84706E-005	0.00000E+000	-5.49772E-005	-5.99601E-002	5.58611E-001	3.57860E+000	9	...........
	28	0.386667	5.47968E-001	-9.98251E-005	0.00000E+000	-5.47009E-005	-5.99601E-002	5.48261E-001	3.57860E+000	9	...........
	29	0.4	5.37663E-001	-9.94334E-005	0.00000E+000	-5.34616E-005	-5.99601E-002	5.37919E-001	3.57860E+000	9	...........
	30	0.413333	5.27349E-001	-9.89593E-005	0.00000E+000	-5.21861E-005	-5.99601E-002	5.27602E-001	3.57860E+000	9	...........
	31	0.426667	5.17074E-001	-9.85634E-005	0.00000E+000	-5.09645E-005	-5.99601E-002	5.17313E-001	3.57860E+000	9	...........
	32	0.44	5.06812E-001	-9.94177E-005	0.00000E+000	-5.03861E-005	-5.99601E-002	5.07054E-001	3.57860E+000	9	...........
	33	0.453333	4.96625E-001	-9.82196E-005	0.00000E+000	-4.87783E-005	-5.99601E-002	4.96856E-001	3.57860E+000	9	...........
	34	0.466667	4.86563E-001	-1.00496E-004	0.00000E+000	-4.88977E-005	-5.99601E-002	4.86777E-001	3.57860E+000	9	...........
	35	0.48	4.76729E-001	-9.98303E-005	0.00000E+000	-4.75920E-005	-5.99601E-002	4.76831E-001	3.57860E+000	9	...........
	36	0.493333	4.66652E-001	-9.91333E-005	0.00000E+000	-4.62608E-005	-5.99601E-002	4.66749E-001	3.57860E+000	9	...........
	37	0.506667	4.56618E-001	-9.85696E-005	0.00000E+000	-4.50086E-005	-5.99601E-002	4.56718E-001	3.57860E+000	9	...........
	38	0.52	4.46630E-001	-9.87019E-005	0.00000E+000	-4.40832E-005	-5.99601E-002	4.46727E-001	3.57860E+000	9	...........
	39	0.533333	4.36693E-001	-9.81748E-005	0.00000E+000	-4.28722E-005	-5.99601E-002	4.36785E-001	3.57860E+000	9	...........
	40	0.546667	4.26806E-001	-9.87436E-005	0.00000E+000	-4.21444E-005	-5.99601E-002	4.26898E-001	3.57860E+000	9	...........
	41	0.56	4.16971E-001	-9.89166E-005	0.00000E+000	-4.12454E-005	-5.99601E-002	4.17060E-001	3.57860E+000	9	...........
	42	0.573333	4.07190E-001	-9.85186E-005	0.00000E+000	-4.01158E-005	-5.99601E-002	4.07266E-001	3.57860E+000	9	...........
	43	0.586667	3.97453E-001	-9.89124E-005	0.00000E+000	-3.93130E-005	-5.99601E-002	3.97532E-001	3.57860E+000	9	...........
	44	0.6	3.87768E-001	-9.96324E-005	0.00000E+000	-3.86342E-005	-5.99601E-002	3.87845E-001	3.57860E+000	9	...........
	45	0.613333	3.78137E-001	-9.91906E-005	0.00000E+000	-3.75077E-005	-5.99601E-002	3.78210E-001	3.57860E+000	9	...........
	46	0.626667	3.68546E-001	-9.89906E-005	0.00000E+000	-3.64826E-005	-5.99601E-002	3.68619E-001	3.57860E+000	9	...........
	47	0.64	3.59017E-001	-9.81748E-005	0.00000E+000	-3.52464E-005	-5.99601E-002	3.59087E-001	3.57860E+000	9	...........
	48	0.653333	3.49527E-001	-9.79716E-005	0.00000E+000	-3.42437E-005	-5.99601E-002	3.49598E-001	3.57860E+000	9	...........
	49	0.666667	3.40089E-001	-9.77632E-005	0.00000E+000	-3.32482E-005	-5.99601E-002	3.40155E-001	3.57860E+000	9	...........
	50	0.68	3.30697E-001	-9.89551E-005	0.00000E+000	-3.27242E-005	-5.99601E-002	3.30764E-001	3.57860E+000	9	...........
	51	0.693333	3.21357E-001	-9.87426E-005	0.00000E+000	-3.17316E-005	-5.99601E-002	3.21415E-001	3.57860E+000	9	...........
	52	0.706667	3.12052E-001	-9.89124E-005	0.00000E+000	-3.08658E-005	-5.99601E-002	3.12113E-001	3.57860E+000	9	...........
	53	0.72	3.02802E-001	-9.96813E-005	0.00000E+000	-3.01837E-005	-5.99601E-002	3.02857E-001	3.57860E+000	9	...........
	54	0.733333	2.93587E-001	-9.98907E-005	0.00000E+000	-2.93266E-005	-5.99601E-002	2.93642E-001	3.57860E+000	9	...........
	55	0.746667	2.84414E-001	-9.96449E-005	0.00000E+000	-2.83404E-005	-5.99601E-002	2.84471E-001	3.57860E+000	9	...........
	56	0.76	2.75285E-001	-9.99658E-005	0.00000E+000	-2.75190E-005	-5.99601E-002	2.75334E-001	3.57860E+000	9	...........
	57	0.773333	2.66190E-001	-9.87238E-005	0.00000E+000	-2.62793E-005	-5.99601E-002	2.66239E-001	3.57860E+000	9	...........
	58	0.786667	2.57138E-001	-9.95094E-005	0.00000E+000	-2.55877E-005	-5.99601E-002	2.57181E-001	3.57860E+000	9	...........
	59	0.8	2.48130E-001	-9.84894E-005	0.00000E+000	-2.44382E-005	-5.99601E-002	2.48173E-001	3.57860E+000	9	...........
	60	0.813333	2.39160E-001	-9.98157E-005	0.00000E+000	-2.38719E-005	-5.99601E-002	2.39194E-001	3.57860E+000	9	...........
	61	0.826667	2.30231E-001	-9.84050E-005	0.00000E+000	-2.26559E-005	-5.99601E-002	2.30263E-001	3.57860E+000	9	...........
	62	0.84	2.21337E-001	-9.84675E-005	0.00000E+000	-2.17945E-005	-5.99601E-002	2.21367E-001	3.57960E+000	9	...........
	63	0.853333	2.12492E-001	-9.87426E-005	0.00000E+000	-2.09820E-005	-5.99601E-002	2.12519E-001	3.58010E+000	9	...........
	64	0.866667	2.03680E-001	-9.90374E-005	0.00000E+000	-2.01719E-005	-5.99601E-002	2.03713E-001	3.58010E+000	9	...........
	65	0.88	1.94919E-001	-9.91729E-005	0.00000E+000	-1.93307E-005	-5.99601E-002	1.94946E-001	3.58010E+000	9	...........
	66	0.893333	1.86204E-001	-9.90770E-005	0.00000E+000	-1.84486E-005	-5.99601E-002	1.86230E-001	3.58010E+000	9	...........
	67	0.906667	1.77531E-001	-9.90083E-005	0.00000E+000	-1.75771E-005	-5.99601E-002	1.77555E-001	3.58010E+000	9	...........
	68	0.92	1.68907E-001	-9.90520E-005	0.00000E+000	-1.67305E-005	-5.99601E-002	1.68933E-001	3.58010E+000	9	...........
	69	0.933333	1.60346E-001	-9.72579E-005	0.00000E+000	-1.55949E-005	-5.99601E-002	1.60365E-001	3.58010E+000	9	...........
	70	0.946667	1.51829E-001	-9.88374E-005	0.00000E+000	-1.50064E-005	-5.99601E-002	1.51852E-001	3.58010E+000	9	...........
	71	0.96	1.43372E-001	-9.94177E-005	0.00000E+000	-1.42537E-005	-5.99601E-002	1.43393E-001	3.58010E+000	9	...........
	72	0.97333	1.34975E-001	-9.91906E-005	0.00000E+000	-1.33882E-005	-5.99601E-002	1.34997E-001	3.58010E+000	9	...........
	73	0.98667	1.26648E-001	-9.87468E-005	0.00000E+000	-1.25060E-005	-5.99601E-002	1.26658E-001	3.58010E+000	9	...........
	74	1	1.18372E-001	-9.90947E-005	0.00000E+000	-1.17301E-005	-5.99601E-002	1.18389E-001	3.58010E+000	9	...........
	75	1.01333	1.10164E-001	-9.96407E-005	0.00000E+000	-1.09768E-005	-5.99601E-002	1.10180E-001	3.58010E+000	9	...........
	76	1.02667	1.02029E-001	-9.78268E-005	0.00000E+000	-9.98113E-006	-5.99601E-002	1.02041E-001	3.58010E+000	9	...........
	77	1.04	9.39568E-002	-9.94750E-005	0.00000E+000	-9.34635E-006	-5.99601E-002	9.39644E-002	3.58010E+000	9	...........
	78	1.05333	8.59494E-002	-9.89478E-005	0.00000E+000	-8.50450E-006	-5.99601E-002	8.59590E-002	3.58010E+000	9	...........
	79	1.06667	7.80184E-002	-9.89510E-005	0.00000E+000	-7.72000E-006	-5.99601E-002	7.80182E-002	3.58010E+000	9	...........
	80	1.08	7.01447E-002	-9.89426E-005	0.00000E+000	-6.94030E-006	-5.99601E-002	7.01451E-002	3.58010E+000	9	...........
	81	1.09333	6.23422E-002	-9.92208E-005	0.00000E+000	-6.18564E-006	-5.99601E-002	6.23362E-002	3.58010E+000	9	...........
	82	1.10667	5.46021E-002	-9.92343E-005	0.00000E+000	-5.41841E-006	-5.99601E-002	5.45963E-002	3.58010E+000	9	...........
	83	1.12	4.69531E-002	-9.87822E-005	0.00000E+000	-4.63813E-006	-5.99601E-002	4.69413E-002	3.58010E+000	9	...........
	84	1.13333	3.93565E-002	-9.96084E-005	0.00000E+000	-3.92023E-006	-5.99601E-002	3.93450E-002	3.58010E+000	9	...........
	85	1.14667	3.18067E-002	-1.00458E-004	0.00000E+000	-3.19522E-006	-5.99601E-002	3.17915E-002	3.58010E+000	9	...........
	86	1.16	2.43211E-002	-9.96136E-005	0.00000E+000	-2.42271E-006	-5.99601E-002	2.42989E-002	3.58010E+000	9	...........
	87	1.17333	1.68941E-002	-9.93563E-005	0.00000E+000	-1.67854E-006	-5.99601E-002	1.68706E-002	3.58010E+000	9	...........
	88	1.18667	9.52933E-003	-9.84175E-005	0.00000E+000	-9.37853E-007	-5.99601E-002	9.49738E-003	3.58010E+000	9	...........
	89	1.19833	2.67812E-003	-9.95343E-005	0.00000E+000	-2.66564E-007	-5.99601E-002	2.64801E-003	3.58010E+000	9	...........
STARTTIMEOFFSET	QUANT	623.5212	Start Time Offset (s)
