EXPLAIN
TAG	PWR800_DISCHARGE
TITLE	LABEL	PWR Cyclic Charge Discharge (Cell) - Discharge Step	Test &Identifier
DATE	LABEL	13-7-2017	Date
TIME	LABEL	15:31:58	Time
NOTES	NOTES	2	&Notes...
	supercap test cell
	6M KOH
PSTAT	PSTAT	IFC5000-01520	Potentiostat
CAPACITY	QUANT	1.00000E-003	Capacity (A-hr)
CELLTYPE	SELECTOR	1	&Cell Type
WORKINGCONNECTION	SELECTOR	0	&Working Lead
MAXDISCHARGETIME	VARIABLEANDUNITS	1.00000E+002	s	1.00000E+002	second(s)	Max &Discharge Time
DISCHARGEMODE	MULTIPARAM	0	1.00000E-004	&Discharge Mode	Constant Current	Amp(s)
SAMPLETIME	QUANT	1.00000E-002	Sa&mple Period (s)
DISCHARGESTOPAT1	MULTIPARAM	3	0.00000E+000	Discharge Stop At &1	Voltage < Limit	V
DISCHARGESTOPAT2	MULTIPARAM	0	0.00000E+000	Discharge Stop At &2	None	N/A
AESBHCSELECTOR	TOGGLE	F	Save Both Half Cells
IRCOMP	TOGGLE	F	IR &Measure
EOC	QUANT	0	Open Circuit (V)
SEQUENCER	TOGGLE	TRUE	Run as Sequence
PSTATMODEL	IQUANT	53	Pstat Model
PSTATSECTION	LABEL	IFC5000-01520	Pstat Section
PSTATSERIALNO	LABEL	01520	Pstat Serial Number
CTRLMODE	IQUANT	0	Control Mode
ELECTROMETER	IQUANT	1	RE=0 or CS=1
IESTAB	IQUANT	0	I/E Stability
CASPEED	IQUANT	4	Control Amp Speed
CONVENTION	IQUANT	1	Current Convention
ICHRANGE	IQUANT	2	Ich Range
ICHRANGEMODE	TOGGLE	T	Ich Auto Range
ICHOFFSETENABLE	TOGGLE	F	Ich Offset Enable
ICHOFFSET	QUANT	0	Ich Offset (V)
ICHFILTER	IQUANT	1	Ich Filter
VCHRANGE	IQUANT	2	Vch Range
VCHRANGEMODE	TOGGLE	T	Vch Auto Range
VCHOFFSETENABLE	TOGGLE	F	Vch Offset Enable
VCHOFFSET	QUANT	0	Vch Offset (V)
VCHFILTER	IQUANT	1	Vch Filter
IERANGELOWERLIMIT	IQUANT	9	I/E Range Lower Limit
IERANGEMODE	TOGGLE	F	I/E AutoRange
IERANGE	IQUANT	9	I/E Range
ACHSELECT	IQUANT	1	Ach Select
ACHRANGE	IQUANT	2	Ach Range
ACHOFFSETENABLE	TOGGLE	F	Ach Offset Enable
ACHOFFSET	QUANT	0	Ach Offset (V)
ACHFILTER	IQUANT	1	Ach Filter
CABLEID	IQUANT	14	Cable ID
DCCALDATE	LABEL	5-7-2017	DC Calibration Date
ACCALDATE	LABEL	12/3/2015	AC Calibration Date
FRAMEWORKVERSION	QUANT	7.01	Framework Version
INSTRUMENTVERSION	LABEL	4.00	Instrument Version
CURVE	TABLE	88
	Pt	T	Vf	Im	Vu	Pwr	Sig	Ach	Temp	IERange	Over
	#	s	V	A	V	W	V	V	deg C	#	bits
	0	0.013333	8.49023E-001	-9.90822E-005	0.00000E+000	-8.41231E-005	-5.99601E-002	8.49344E-001	3.57950E+000	9	...........
	1	0.026667	8.34964E-001	-9.87540E-005	0.00000E+000	-8.24560E-005	-5.99601E-002	8.35290E-001	3.57950E+000	9	...........
	2	0.04	8.21803E-001	-9.91020E-005	0.00000E+000	-8.14423E-005	-5.99601E-002	8.22103E-001	3.57950E+000	9	...........
	3	0.053333	8.09167E-001	-9.77809E-005	0.00000E+000	-7.91211E-005	-5.99601E-002	8.09461E-001	3.57950E+000	9	...........
	4	0.066667	7.96962E-001	-9.83811E-005	0.00000E+000	-7.84060E-005	-5.99601E-002	7.97237E-001	3.57950E+000	9	...........
	5	0.08	7.85019E-001	-9.94990E-005	0.00000E+000	-7.81086E-005	-5.99601E-002	7.85301E-001	3.57950E+000	9	...........
	6	0.093333	7.73313E-001	-9.91958E-005	0.00000E+000	-7.67094E-005	-5.99601E-002	7.73592E-001	3.57950E+000	9	...........
	7	0.106667	7.61764E-001	-9.79237E-005	0.00000E+000	-7.45947E-005	-5.99601E-002	7.62047E-001	3.57950E+000	9	...........
	8	0.12	7.50358E-001	-9.84279E-005	0.00000E+000	-7.38561E-005	-5.99601E-002	7.50638E-001	3.57950E+000	9	...........
	9	0.133333	7.39012E-001	-9.93594E-005	0.00000E+000	-7.34278E-005	-5.99601E-002	7.39301E-001	3.57950E+000	9	...........
	10	0.146667	7.27798E-001	-9.93260E-005	0.00000E+000	-7.22893E-005	-5.99601E-002	7.28055E-001	3.57950E+000	9	...........
	11	0.16	7.16574E-001	-9.89697E-005	0.00000E+000	-7.09191E-005	-5.99601E-002	7.16868E-001	3.57950E+000	9	...........
	12	0.173333	7.05427E-001	-9.95115E-005	0.00000E+000	-7.01981E-005	-5.99601E-002	7.05713E-001	3.57950E+000	9	...........
	13	0.186667	6.94332E-001	-9.84644E-005	0.00000E+000	-6.83670E-005	-5.99601E-002	6.94594E-001	3.57950E+000	9	...........
	14	0.2	6.83241E-001	-9.89989E-005	0.00000E+000	-6.76401E-005	-5.99601E-002	6.83534E-001	3.57950E+000	9	...........
	15	0.213333	6.72192E-001	-9.98084E-005	0.00000E+000	-6.70905E-005	-5.99601E-002	6.72474E-001	3.57950E+000	9	...........
	16	0.226667	6.61153E-001	-9.96917E-005	0.00000E+000	-6.59115E-005	-5.99601E-002	6.61430E-001	3.57950E+000	9	...........
	17	0.24	6.50145E-001	-9.93552E-005	0.00000E+000	-6.45953E-005	-5.99601E-002	6.50403E-001	3.57950E+000	9	...........
	18	0.253333	6.39148E-001	-9.86936E-005	0.00000E+000	-6.30798E-005	-5.99601E-002	6.39401E-001	3.57950E+000	9	...........
	19	0.266667	6.28164E-001	-9.84008E-005	0.00000E+000	-6.18118E-005	-5.99601E-002	6.28389E-001	3.57950E+000	9	...........
	20	0.28	6.17220E-001	-9.92625E-005	0.00000E+000	-6.12667E-005	-5.99601E-002	6.17463E-001	3.57950E+000	9	...........
	21	0.293333	6.06220E-001	-9.89999E-005	0.00000E+000	-6.00158E-005	-5.99601E-002	6.06525E-001	3.57950E+000	9	...........
	22	0.306667	5.95329E-001	-9.89822E-005	0.00000E+000	-5.89270E-005	-5.99601E-002	5.95587E-001	3.57950E+000	9	...........
	23	0.32	5.84422E-001	-9.88801E-005	0.00000E+000	-5.77878E-005	-5.99601E-002	5.84696E-001	3.57950E+000	9	...........
	24	0.333333	5.73591E-001	-9.93854E-005	0.00000E+000	-5.70066E-005	-5.99601E-002	5.73832E-001	3.57950E+000	9	...........
	25	0.346667	5.62741E-001	-9.94761E-005	0.00000E+000	-5.59792E-005	-5.99601E-002	5.62980E-001	3.57950E+000	9	...........
	26	0.36	5.51907E-001	-9.89833E-005	0.00000E+000	-5.46295E-005	-5.99601E-002	5.52136E-001	3.57950E+000	9	...........
	27	0.373333	5.41139E-001	-9.85603E-005	0.00000E+000	-5.33348E-005	-5.99601E-002	5.41361E-001	3.57950E+000	9	...........
	28	0.386667	5.30402E-001	-9.81685E-005	0.00000E+000	-5.20688E-005	-5.99601E-002	5.30600E-001	3.57950E+000	9	...........
	29	0.4	5.19717E-001	-9.86311E-005	0.00000E+000	-5.12603E-005	-5.99601E-002	5.19907E-001	3.57950E+000	9	...........
	30	0.413333	5.09048E-001	-9.88697E-005	0.00000E+000	-5.03294E-005	-5.99601E-002	5.09258E-001	3.57950E+000	9	...........
	31	0.426667	4.98448E-001	-9.88322E-005	0.00000E+000	-4.92627E-005	-5.99601E-002	4.98649E-001	3.57950E+000	9	...........
	32	0.44	4.87944E-001	-9.92114E-005	0.00000E+000	-4.84096E-005	-5.99601E-002	4.88136E-001	3.57950E+000	9	...........
	33	0.453333	4.77767E-001	-9.95532E-005	0.00000E+000	-4.75632E-005	-5.99601E-002	4.77863E-001	3.57950E+000	9	...........
	34	0.466667	4.67320E-001	-9.87676E-005	0.00000E+000	-4.61561E-005	-5.99601E-002	4.67416E-001	3.57950E+000	9	...........
	35	0.48	4.56935E-001	-9.88259E-005	0.00000E+000	-4.51570E-005	-5.99601E-002	4.57022E-001	3.57950E+000	9	...........
	36	0.493333	4.46606E-001	-9.87436E-005	0.00000E+000	-4.40995E-005	-5.99601E-002	4.46698E-001	3.57950E+000	9	...........
	37	0.506667	4.36351E-001	-9.85207E-005	0.00000E+000	-4.29896E-005	-5.99601E-002	4.36430E-001	3.57950E+000	9	...........
	38	0.52	4.26145E-001	-9.89551E-005	0.00000E+000	-4.21693E-005	-5.99601E-002	4.26231E-001	3.57950E+000	9	...........
	39	0.533333	4.16005E-001	-9.92083E-005	0.00000E+000	-4.12712E-005	-5.99601E-002	4.16087E-001	3.57950E+000	9	...........
	40	0.546667	4.05929E-001	-9.87468E-005	0.00000E+000	-4.00842E-005	-5.99601E-002	4.06005E-001	3.57950E+000	9	...........
	41	0.56	3.95916E-001	-9.89020E-005	0.00000E+000	-3.91569E-005	-5.99601E-002	3.95988E-001	3.57950E+000	9	...........
	42	0.573333	3.85959E-001	-9.88353E-005	0.00000E+000	-3.81464E-005	-5.99601E-002	3.86033E-001	3.57950E+000	9	...........
	43	0.586667	3.76066E-001	-9.82592E-005	0.00000E+000	-3.69519E-005	-5.99601E-002	3.76137E-001	3.57950E+000	9	...........
	44	0.6	3.66240E-001	-9.85675E-005	0.00000E+000	-3.60993E-005	-5.99601E-002	3.66307E-001	3.57950E+000	9	...........
	45	0.613333	3.56459E-001	-9.87447E-005	0.00000E+000	-3.51985E-005	-5.99601E-002	3.56524E-001	3.57950E+000	9	...........
	46	0.626667	3.46750E-001	-9.87478E-005	0.00000E+000	-3.42408E-005	-5.99601E-002	3.46809E-001	3.57950E+000	9	...........
	47	0.64	3.37081E-001	-9.85061E-005	0.00000E+000	-3.32046E-005	-5.99601E-002	3.37151E-001	3.57900E+000	9	...........
	48	0.653333	3.27482E-001	-9.91927E-005	0.00000E+000	-3.24838E-005	-5.99601E-002	3.27546E-001	3.57900E+000	9	...........
	49	0.666667	3.17931E-001	-9.86321E-005	0.00000E+000	-3.13582E-005	-5.99601E-002	3.17989E-001	3.57900E+000	9	...........
	50	0.68	3.08429E-001	-9.94052E-005	0.00000E+000	-3.06594E-005	-5.99601E-002	3.08489E-001	3.57900E+000	9	...........
	51	0.693333	2.98986E-001	-9.90229E-005	0.00000E+000	-2.96065E-005	-5.99601E-002	2.99035E-001	3.57900E+000	9	...........
	52	0.706667	2.89577E-001	-9.88687E-005	0.00000E+000	-2.86301E-005	-5.99601E-002	2.89636E-001	3.57900E+000	9	...........
	53	0.72	2.80231E-001	-9.86863E-005	0.00000E+000	-2.76550E-005	-5.99601E-002	2.80283E-001	3.57900E+000	9	...........
	54	0.733333	2.70927E-001	-9.91114E-005	0.00000E+000	-2.68519E-005	-5.99601E-002	2.70978E-001	3.57900E+000	9	...........
	55	0.746667	2.61666E-001	-9.90166E-005	0.00000E+000	-2.59093E-005	-5.99601E-002	2.61723E-001	3.57900E+000	9	...........
	56	0.76	2.52461E-001	-9.87332E-005	0.00000E+000	-2.49263E-005	-5.99601E-002	2.52510E-001	3.57900E+000	9	...........
	57	0.773333	2.43292E-001	-9.91510E-005	0.00000E+000	-2.41226E-005	-5.99601E-002	2.43341E-001	3.57900E+000	9	...........
	58	0.786667	2.34177E-001	-9.93510E-005	0.00000E+000	-2.32657E-005	-5.99601E-002	2.34221E-001	3.57900E+000	9	...........
	59	0.8	2.25104E-001	-9.89457E-005	0.00000E+000	-2.22731E-005	-5.99601E-002	2.25141E-001	3.57900E+000	9	...........
	60	0.813333	2.16081E-001	-9.98511E-005	0.00000E+000	-2.15760E-005	-5.99601E-002	2.16119E-001	3.57900E+000	9	...........
	61	0.826667	2.07111E-001	-9.89426E-005	0.00000E+000	-2.04921E-005	-5.99601E-002	2.07145E-001	3.57900E+000	9	...........
	62	0.84	1.98189E-001	-9.83092E-005	0.00000E+000	-1.94837E-005	-5.99601E-002	1.98221E-001	3.57900E+000	9	...........
	63	0.853333	1.89322E-001	-9.85853E-005	0.00000E+000	-1.86644E-005	-5.99601E-002	1.89352E-001	3.57900E+000	9	...........
	64	0.866667	1.80507E-001	-9.86738E-005	0.00000E+000	-1.78113E-005	-5.99601E-002	1.80540E-001	3.57900E+000	9	...........
	65	0.88	1.71752E-001	-9.90843E-005	0.00000E+000	-1.70179E-005	-5.99601E-002	1.71781E-001	3.57900E+000	9	...........
	66	0.893333	1.63062E-001	-9.96334E-005	0.00000E+000	-1.62464E-005	-5.99601E-002	1.63086E-001	3.57900E+000	9	...........
	67	0.906667	1.54434E-001	-9.90312E-005	0.00000E+000	-1.52938E-005	-5.99601E-002	1.54455E-001	3.57900E+000	9	...........
	68	0.92	1.45868E-001	-9.87436E-005	0.00000E+000	-1.44036E-005	-5.99601E-002	1.45891E-001	3.57900E+000	9	...........
	69	0.933333	1.37374E-001	-9.86436E-005	0.00000E+000	-1.35510E-005	-5.99601E-002	1.37392E-001	3.57900E+000	9	...........
	70	0.946667	1.28944E-001	-9.88947E-005	0.00000E+000	-1.27518E-005	-5.99601E-002	1.28960E-001	3.57900E+000	9	...........
	71	0.96	1.20586E-001	-9.91781E-005	0.00000E+000	-1.19595E-005	-5.99601E-002	1.20603E-001	3.57900E+000	9	...........
	72	0.97333	1.12301E-001	-9.90718E-005	0.00000E+000	-1.11259E-005	-5.99601E-002	1.12313E-001	3.57900E+000	9	...........
	73	0.98667	1.04087E-001	-9.89155E-005	0.00000E+000	-1.02958E-005	-5.99601E-002	1.04102E-001	3.57900E+000	9	...........
	74	1	9.59451E-002	-9.84081E-005	0.00000E+000	-9.44178E-006	-5.99601E-002	9.59592E-002	3.57900E+000	9	...........
	75	1.01333	8.78801E-002	-9.89843E-005	0.00000E+000	-8.69875E-006	-5.99601E-002	8.78870E-002	3.57900E+000	9	...........
	76	1.02667	7.98898E-002	-9.87530E-005	0.00000E+000	-7.88936E-006	-5.99601E-002	7.98958E-002	3.57900E+000	9	...........
	77	1.04	7.19694E-002	-9.90614E-005	0.00000E+000	-7.12939E-006	-5.99601E-002	7.19665E-002	3.57900E+000	9	...........
	78	1.05333	6.41148E-002	-9.87770E-005	0.00000E+000	-6.33306E-006	-5.99601E-002	6.41192E-002	3.57900E+000	9	...........
	79	1.06667	5.63402E-002	-9.82914E-005	0.00000E+000	-5.53776E-006	-5.99601E-002	5.63373E-002	3.57900E+000	9	...........
	80	1.08	4.86387E-002	-9.90218E-005	0.00000E+000	-4.81630E-006	-5.99601E-002	4.86364E-002	3.57900E+000	9	...........
	81	1.09333	4.10203E-002	-9.92375E-005	0.00000E+000	-4.07075E-006	-5.99601E-002	4.10117E-002	3.57900E+000	9	...........
	82	1.10667	3.34425E-002	-9.86040E-005	0.00000E+000	-3.29756E-006	-5.99601E-002	3.34285E-002	3.57900E+000	9	...........
	83	1.12	2.59286E-002	-9.81508E-005	0.00000E+000	-2.54491E-006	-5.99601E-002	2.59119E-002	3.57900E+000	9	...........
	84	1.13333	1.84881E-002	-9.84029E-005	0.00000E+000	-1.81929E-006	-5.99601E-002	1.84663E-002	3.57900E+000	9	...........
	85	1.14667	1.11081E-002	-9.95844E-005	0.00000E+000	-1.10619E-006	-5.99601E-002	1.10808E-002	3.57900E+000	9	...........
	86	1.16	3.79342E-003	-9.89322E-005	0.00000E+000	-3.75292E-007	-5.99601E-002	3.76109E-003	3.57900E+000	9	...........
	87	1.16167	-2.92257E-004	-9.79768E-005	0.00000E+000	2.86344E-008	-5.99601E-002	-3.23649E-004	3.57900E+000	9	...........
STARTTIMEOFFSET	QUANT	1355.426	Start Time Offset (s)
