EXPLAIN
TAG	PWR800_DISCHARGE
TITLE	LABEL	PWR Cyclic Charge Discharge (Cell) - Discharge Step	Test &Identifier
DATE	LABEL	13-7-2017	Date
TIME	LABEL	15:39:00	Time
NOTES	NOTES	2	&Notes...
	supercap test cell
	6M KOH
PSTAT	PSTAT	IFC5000-01520	Potentiostat
CAPACITY	QUANT	1.00000E-003	Capacity (A-hr)
CELLTYPE	SELECTOR	1	&Cell Type
WORKINGCONNECTION	SELECTOR	0	&Working Lead
MAXDISCHARGETIME	VARIABLEANDUNITS	1.00000E+002	s	1.00000E+002	second(s)	Max &Discharge Time
DISCHARGEMODE	MULTIPARAM	0	1.00000E-004	&Discharge Mode	Constant Current	Amp(s)
SAMPLETIME	QUANT	1.00000E-002	Sa&mple Period (s)
DISCHARGESTOPAT1	MULTIPARAM	3	0.00000E+000	Discharge Stop At &1	Voltage < Limit	V
DISCHARGESTOPAT2	MULTIPARAM	0	0.00000E+000	Discharge Stop At &2	None	N/A
AESBHCSELECTOR	TOGGLE	F	Save Both Half Cells
IRCOMP	TOGGLE	F	IR &Measure
EOC	QUANT	0	Open Circuit (V)
SEQUENCER	TOGGLE	TRUE	Run as Sequence
PSTATMODEL	IQUANT	53	Pstat Model
PSTATSECTION	LABEL	IFC5000-01520	Pstat Section
PSTATSERIALNO	LABEL	01520	Pstat Serial Number
CTRLMODE	IQUANT	0	Control Mode
ELECTROMETER	IQUANT	1	RE=0 or CS=1
IESTAB	IQUANT	0	I/E Stability
CASPEED	IQUANT	4	Control Amp Speed
CONVENTION	IQUANT	1	Current Convention
ICHRANGE	IQUANT	2	Ich Range
ICHRANGEMODE	TOGGLE	T	Ich Auto Range
ICHOFFSETENABLE	TOGGLE	F	Ich Offset Enable
ICHOFFSET	QUANT	0	Ich Offset (V)
ICHFILTER	IQUANT	1	Ich Filter
VCHRANGE	IQUANT	2	Vch Range
VCHRANGEMODE	TOGGLE	T	Vch Auto Range
VCHOFFSETENABLE	TOGGLE	F	Vch Offset Enable
VCHOFFSET	QUANT	0	Vch Offset (V)
VCHFILTER	IQUANT	1	Vch Filter
IERANGELOWERLIMIT	IQUANT	9	I/E Range Lower Limit
IERANGEMODE	TOGGLE	F	I/E AutoRange
IERANGE	IQUANT	9	I/E Range
ACHSELECT	IQUANT	1	Ach Select
ACHRANGE	IQUANT	2	Ach Range
ACHOFFSETENABLE	TOGGLE	F	Ach Offset Enable
ACHOFFSET	QUANT	0	Ach Offset (V)
ACHFILTER	IQUANT	1	Ach Filter
CABLEID	IQUANT	14	Cable ID
DCCALDATE	LABEL	5-7-2017	DC Calibration Date
ACCALDATE	LABEL	12/3/2015	AC Calibration Date
FRAMEWORKVERSION	QUANT	7.01	Framework Version
INSTRUMENTVERSION	LABEL	4.00	Instrument Version
CURVE	TABLE	87
	Pt	T	Vf	Im	Vu	Pwr	Sig	Ach	Temp	IERange	Over
	#	s	V	A	V	W	V	V	deg C	#	bits
	0	0.013333	8.46503E-001	-9.83415E-005	0.00000E+000	-8.32463E-005	-5.99601E-002	8.46829E-001	3.58210E+000	9	...........
	1	0.026667	8.32308E-001	-9.83956E-005	0.00000E+000	-8.18955E-005	-5.99601E-002	8.32638E-001	3.58210E+000	9	...........
	2	0.04	8.18965E-001	-9.91052E-005	0.00000E+000	-8.11637E-005	-5.99601E-002	8.19311E-001	3.58210E+000	9	...........
	3	0.053333	8.06207E-001	-9.82633E-005	0.00000E+000	-7.92206E-005	-5.99601E-002	8.06516E-001	3.58165E+000	9	...........
	4	0.066667	7.93871E-001	-9.85019E-005	0.00000E+000	-7.81978E-005	-5.99601E-002	7.94143E-001	3.57850E+000	9	...........
	5	0.08	7.81792E-001	-9.93187E-005	0.00000E+000	-7.76466E-005	-5.99601E-002	7.82067E-001	3.57850E+000	9	...........
	6	0.093333	7.69919E-001	-9.94334E-005	0.00000E+000	-7.65556E-005	-5.99601E-002	7.70215E-001	3.57850E+000	9	...........
	7	0.106667	7.58227E-001	-9.83248E-005	0.00000E+000	-7.45525E-005	-5.99601E-002	7.58500E-001	3.57850E+000	9	...........
	8	0.12	7.46647E-001	-9.83081E-005	0.00000E+000	-7.34015E-005	-5.99601E-002	7.46931E-001	3.57850E+000	9	...........
	9	0.133333	7.35151E-001	-9.89051E-005	0.00000E+000	-7.27102E-005	-5.99601E-002	7.35430E-001	3.57850E+000	9	...........
	10	0.146667	7.23779E-001	-9.85915E-005	0.00000E+000	-7.13585E-005	-5.99601E-002	7.24029E-001	3.57850E+000	9	...........
	11	0.16	7.12386E-001	-9.87530E-005	0.00000E+000	-7.03503E-005	-5.99601E-002	7.12680E-001	3.57850E+000	9	...........
	12	0.173333	7.01082E-001	-9.85530E-005	0.00000E+000	-6.90937E-005	-5.99601E-002	7.01382E-001	3.57850E+000	9	...........
	13	0.186667	6.89820E-001	-9.87676E-005	0.00000E+000	-6.81319E-005	-5.99601E-002	6.90115E-001	3.57850E+000	9	...........
	14	0.2	6.78590E-001	-9.92541E-005	0.00000E+000	-6.73528E-005	-5.99601E-002	6.78879E-001	3.57850E+000	9	...........
	15	0.213333	6.67368E-001	-9.86342E-005	0.00000E+000	-6.58253E-005	-5.99601E-002	6.67680E-001	3.57850E+000	9	...........
	16	0.226667	6.56181E-001	-9.87040E-005	0.00000E+000	-6.47678E-005	-5.99601E-002	6.56480E-001	3.57850E+000	9	...........
	17	0.24	6.45025E-001	-9.81216E-005	0.00000E+000	-6.32909E-005	-5.99601E-002	6.45321E-001	3.57850E+000	9	...........
	18	0.253333	6.33856E-001	-9.92969E-005	0.00000E+000	-6.29399E-005	-5.99601E-002	6.34171E-001	3.57850E+000	9	...........
	19	0.266667	6.22753E-001	-9.83873E-005	0.00000E+000	-6.12710E-005	-5.99601E-002	6.23024E-001	3.57850E+000	9	...........
	20	0.28	6.11642E-001	-9.95104E-005	0.00000E+000	-6.08648E-005	-5.99601E-002	6.11938E-001	3.57850E+000	9	...........
	21	0.293333	6.00573E-001	-9.87582E-005	0.00000E+000	-5.93116E-005	-5.99601E-002	6.00863E-001	3.57850E+000	9	...........
	22	0.306667	5.89524E-001	-9.94563E-005	0.00000E+000	-5.86319E-005	-5.99601E-002	5.89808E-001	3.57850E+000	9	...........
	23	0.32	5.78505E-001	-9.85311E-005	0.00000E+000	-5.70007E-005	-5.99601E-002	5.78767E-001	3.57850E+000	9	...........
	24	0.333333	5.67544E-001	-9.76601E-005	0.00000E+000	-5.54264E-005	-5.99601E-002	5.67782E-001	3.57850E+000	9	...........
	25	0.346667	5.56550E-001	-9.88332E-005	0.00000E+000	-5.50056E-005	-5.99601E-002	5.56811E-001	3.57850E+000	9	...........
	26	0.36	5.45638E-001	-9.92250E-005	0.00000E+000	-5.41409E-005	-5.99601E-002	5.45877E-001	3.57850E+000	9	...........
	27	0.373333	5.34755E-001	-9.92093E-005	0.00000E+000	-5.30527E-005	-5.99601E-002	5.34994E-001	3.57850E+000	9	...........
	28	0.386667	5.23916E-001	-9.90312E-005	0.00000E+000	-5.18840E-005	-5.99601E-002	5.24150E-001	3.57850E+000	9	...........
	29	0.4	5.13126E-001	-9.93865E-005	0.00000E+000	-5.09978E-005	-5.99601E-002	5.13354E-001	3.57850E+000	9	...........
	30	0.413333	5.02340E-001	-9.89176E-005	0.00000E+000	-4.96902E-005	-5.99601E-002	5.02630E-001	3.57850E+000	9	...........
	31	0.426667	4.91691E-001	-9.89499E-005	0.00000E+000	-4.86527E-005	-5.99601E-002	4.91940E-001	3.57850E+000	9	...........
	32	0.44	4.81334E-001	-9.94563E-005	0.00000E+000	-4.78717E-005	-5.99601E-002	4.81481E-001	3.57850E+000	9	...........
	33	0.453333	4.70861E-001	-9.89541E-005	0.00000E+000	-4.65936E-005	-5.99601E-002	4.70961E-001	3.57850E+000	9	...........
	34	0.466667	4.60359E-001	-9.92833E-005	0.00000E+000	-4.57059E-005	-5.99601E-002	4.60451E-001	3.57850E+000	9	...........
	35	0.48	4.49911E-001	-9.85040E-005	0.00000E+000	-4.43180E-005	-5.99601E-002	4.50003E-001	3.57850E+000	9	...........
	36	0.493333	4.39532E-001	-9.91896E-005	0.00000E+000	-4.35970E-005	-5.99601E-002	4.39624E-001	3.57850E+000	9	...........
	37	0.506667	4.29217E-001	-9.85425E-005	0.00000E+000	-4.22961E-005	-5.99601E-002	4.29304E-001	3.57850E+000	9	...........
	38	0.52	4.18969E-001	-9.92312E-005	0.00000E+000	-4.15748E-005	-5.99601E-002	4.19045E-001	3.57850E+000	9	...........
	39	0.533333	4.08784E-001	-9.90145E-005	0.00000E+000	-4.04756E-005	-5.99601E-002	4.08863E-001	3.57850E+000	9	...........
	40	0.546667	3.98668E-001	-9.89343E-005	0.00000E+000	-3.94420E-005	-5.99601E-002	3.98740E-001	3.57850E+000	9	...........
	41	0.56	3.88613E-001	-9.84425E-005	0.00000E+000	-3.82560E-005	-5.99601E-002	3.88687E-001	3.57850E+000	9	...........
	42	0.573333	3.78628E-001	-9.91552E-005	0.00000E+000	-3.75429E-005	-5.99601E-002	3.78696E-001	3.57850E+000	9	...........
	43	0.586667	3.68698E-001	-9.83623E-005	0.00000E+000	-3.62659E-005	-5.99601E-002	3.68767E-001	3.57850E+000	9	...........
	44	0.6	3.58835E-001	-9.83863E-005	0.00000E+000	-3.53044E-005	-5.99601E-002	3.58903E-001	3.57850E+000	9	...........
	45	0.613333	3.49035E-001	-9.89999E-005	0.00000E+000	-3.45545E-005	-5.99601E-002	3.49100E-001	3.57850E+000	9	...........
	46	0.626667	3.39294E-001	-9.89145E-005	0.00000E+000	-3.35611E-005	-5.99601E-002	3.39353E-001	3.57850E+000	9	...........
	47	0.64	3.29612E-001	-9.87384E-005	0.00000E+000	-3.25454E-005	-5.99601E-002	3.29669E-001	3.57850E+000	9	...........
	48	0.653333	3.19990E-001	-9.90395E-005	0.00000E+000	-3.16916E-005	-5.99601E-002	3.20045E-001	3.57850E+000	9	...........
	49	0.666667	3.10412E-001	-9.95115E-005	0.00000E+000	-3.08896E-005	-5.99601E-002	3.10471E-001	3.57850E+000	9	...........
	50	0.68	3.00892E-001	-9.84644E-005	0.00000E+000	-2.96271E-005	-5.99601E-002	3.00952E-001	3.57850E+000	9	...........
	51	0.693333	2.91427E-001	-9.92416E-005	0.00000E+000	-2.89217E-005	-5.99601E-002	2.91481E-001	3.57850E+000	9	...........
	52	0.706667	2.82019E-001	-9.80966E-005	0.00000E+000	-2.76651E-005	-5.99601E-002	2.82066E-001	3.57850E+000	9	...........
	53	0.72	2.72648E-001	-9.89260E-005	0.00000E+000	-2.69720E-005	-5.99601E-002	2.72698E-001	3.57850E+000	9	...........
	54	0.733333	2.63332E-001	-9.92937E-005	0.00000E+000	-2.61472E-005	-5.99601E-002	2.63382E-001	3.57850E+000	9	...........
	55	0.746667	2.54065E-001	-9.89280E-005	0.00000E+000	-2.51342E-005	-5.99601E-002	2.54111E-001	3.57850E+000	9	...........
	56	0.76	2.44855E-001	-9.90729E-005	0.00000E+000	-2.42585E-005	-5.99601E-002	2.44892E-001	3.57850E+000	9	...........
	57	0.773333	2.35686E-001	-9.93615E-005	0.00000E+000	-2.34181E-005	-5.99601E-002	2.35718E-001	3.57850E+000	9	...........
	58	0.786667	2.26566E-001	-9.88426E-005	0.00000E+000	-2.23944E-005	-5.99601E-002	2.26599E-001	3.57850E+000	9	...........
	59	0.8	2.17495E-001	-9.91968E-005	0.00000E+000	-2.15748E-005	-5.99601E-002	2.17523E-001	3.57850E+000	9	...........
	60	0.813333	2.08477E-001	-9.95021E-005	0.00000E+000	-2.07439E-005	-5.99601E-002	2.08508E-001	3.57850E+000	9	...........
	61	0.826667	1.99512E-001	-9.97334E-005	0.00000E+000	-1.98980E-005	-5.99601E-002	1.99543E-001	3.57850E+000	9	...........
	62	0.84	1.90604E-001	-9.88322E-005	0.00000E+000	-1.88378E-005	-5.99601E-002	1.90632E-001	3.57850E+000	9	...........
	63	0.853333	1.81750E-001	-9.85217E-005	0.00000E+000	-1.79064E-005	-5.99601E-002	1.81778E-001	3.57850E+000	9	...........
	64	0.866667	1.72966E-001	-9.83883E-005	0.00000E+000	-1.70178E-005	-5.99601E-002	1.72987E-001	3.57850E+000	9	...........
	65	0.88	1.64237E-001	-9.81081E-005	0.00000E+000	-1.61130E-005	-5.99601E-002	1.64257E-001	3.57850E+000	9	...........
	66	0.893333	1.55575E-001	-9.93000E-005	0.00000E+000	-1.54486E-005	-5.99601E-002	1.55594E-001	3.57850E+000	9	...........
	67	0.906667	1.46986E-001	-9.94042E-005	0.00000E+000	-1.46110E-005	-5.99601E-002	1.47002E-001	3.57850E+000	9	...........
	68	0.92	1.38461E-001	-9.80820E-005	0.00000E+000	-1.35805E-005	-5.99601E-002	1.38477E-001	3.57850E+000	9	...........
	69	0.933333	1.30010E-001	-9.83456E-005	0.00000E+000	-1.27860E-005	-5.99601E-002	1.30021E-001	3.57850E+000	9	...........
	70	0.946667	1.21625E-001	-9.87290E-005	0.00000E+000	-1.20079E-005	-5.99601E-002	1.21638E-001	3.57850E+000	9	...........
	71	0.96	1.13323E-001	-9.90072E-005	0.00000E+000	-1.12198E-005	-5.99601E-002	1.13335E-001	3.57850E+000	9	...........
	72	0.97333	1.05091E-001	-9.79257E-005	0.00000E+000	-1.02911E-005	-5.99601E-002	1.05102E-001	3.57850E+000	9	...........
	73	0.98667	9.69322E-002	-9.82852E-005	0.00000E+000	-9.52700E-006	-5.99601E-002	9.69415E-002	3.57850E+000	9	...........
	74	1	8.88475E-002	-9.78518E-005	0.00000E+000	-8.69388E-006	-5.99601E-002	8.88526E-002	3.57850E+000	9	...........
	75	1.01333	8.08429E-002	-9.89562E-005	0.00000E+000	-7.99991E-006	-5.99601E-002	8.08457E-002	3.57850E+000	9	...........
	76	1.02667	7.29117E-002	-9.85863E-005	0.00000E+000	-7.18810E-006	-5.99601E-002	7.29041E-002	3.57850E+000	9	...........
	77	1.04	6.50425E-002	-9.91843E-005	0.00000E+000	-6.45120E-006	-5.99601E-002	6.50348E-002	3.57850E+000	9	...........
	78	1.05333	5.72475E-002	-9.87113E-005	0.00000E+000	-5.65098E-006	-5.99601E-002	5.72402E-002	3.57850E+000	9	...........
	79	1.06667	4.95352E-002	-9.79007E-005	0.00000E+000	-4.84953E-006	-5.99601E-002	4.95252E-002	3.57850E+000	9	...........
	80	1.08	4.19051E-002	-9.79883E-005	0.00000E+000	-4.10621E-006	-5.99601E-002	4.18993E-002	3.57850E+000	9	...........
	81	1.09333	3.43169E-002	-9.98647E-005	0.00000E+000	-3.42705E-006	-5.99601E-002	3.43003E-002	3.57850E+000	9	...........
	82	1.10667	2.67944E-002	-9.97730E-005	0.00000E+000	-2.67336E-006	-5.99601E-002	2.67754E-002	3.57850E+000	9	...........
	83	1.12	1.93377E-002	-9.86186E-005	0.00000E+000	-1.90705E-006	-5.99601E-002	1.93136E-002	3.57850E+000	9	...........
	84	1.13333	1.19484E-002	-9.84488E-005	0.00000E+000	-1.17631E-006	-5.99601E-002	1.19195E-002	3.57850E+000	9	...........
	85	1.14667	4.62265E-003	-9.85425E-005	0.00000E+000	-4.55527E-007	-5.99601E-002	4.59011E-003	3.57850E+000	9	...........
	86	1.15	8.14554E-005	-9.86519E-005	0.00000E+000	-8.03573E-009	-5.99601E-002	3.67461E-005	3.57850E+000	9	...........
STARTTIMEOFFSET	QUANT	1672.419	Start Time Offset (s)
