EXPLAIN
TAG	PWR800_DISCHARGE
TITLE	LABEL	PWR Cyclic Charge Discharge (Cell) - Discharge Step	Test &Identifier
DATE	LABEL	13-7-2017	Date
TIME	LABEL	15:21:41	Time
NOTES	NOTES	2	&Notes...
	supercap test cell
	6M KOH
PSTAT	PSTAT	IFC5000-01520	Potentiostat
CAPACITY	QUANT	1.00000E-003	Capacity (A-hr)
CELLTYPE	SELECTOR	1	&Cell Type
WORKINGCONNECTION	SELECTOR	0	&Working Lead
MAXDISCHARGETIME	VARIABLEANDUNITS	1.00000E+002	s	1.00000E+002	second(s)	Max &Discharge Time
DISCHARGEMODE	MULTIPARAM	0	1.00000E-004	&Discharge Mode	Constant Current	Amp(s)
SAMPLETIME	QUANT	1.00000E-002	Sa&mple Period (s)
DISCHARGESTOPAT1	MULTIPARAM	3	0.00000E+000	Discharge Stop At &1	Voltage < Limit	V
DISCHARGESTOPAT2	MULTIPARAM	0	0.00000E+000	Discharge Stop At &2	None	N/A
AESBHCSELECTOR	TOGGLE	F	Save Both Half Cells
IRCOMP	TOGGLE	F	IR &Measure
EOC	QUANT	0	Open Circuit (V)
SEQUENCER	TOGGLE	TRUE	Run as Sequence
PSTATMODEL	IQUANT	53	Pstat Model
PSTATSECTION	LABEL	IFC5000-01520	Pstat Section
PSTATSERIALNO	LABEL	01520	Pstat Serial Number
CTRLMODE	IQUANT	0	Control Mode
ELECTROMETER	IQUANT	1	RE=0 or CS=1
IESTAB	IQUANT	0	I/E Stability
CASPEED	IQUANT	4	Control Amp Speed
CONVENTION	IQUANT	1	Current Convention
ICHRANGE	IQUANT	2	Ich Range
ICHRANGEMODE	TOGGLE	T	Ich Auto Range
ICHOFFSETENABLE	TOGGLE	F	Ich Offset Enable
ICHOFFSET	QUANT	0	Ich Offset (V)
ICHFILTER	IQUANT	1	Ich Filter
VCHRANGE	IQUANT	2	Vch Range
VCHRANGEMODE	TOGGLE	T	Vch Auto Range
VCHOFFSETENABLE	TOGGLE	F	Vch Offset Enable
VCHOFFSET	QUANT	0	Vch Offset (V)
VCHFILTER	IQUANT	1	Vch Filter
IERANGELOWERLIMIT	IQUANT	9	I/E Range Lower Limit
IERANGEMODE	TOGGLE	F	I/E AutoRange
IERANGE	IQUANT	9	I/E Range
ACHSELECT	IQUANT	1	Ach Select
ACHRANGE	IQUANT	2	Ach Range
ACHOFFSETENABLE	TOGGLE	F	Ach Offset Enable
ACHOFFSET	QUANT	0	Ach Offset (V)
ACHFILTER	IQUANT	1	Ach Filter
CABLEID	IQUANT	14	Cable ID
DCCALDATE	LABEL	5-7-2017	DC Calibration Date
ACCALDATE	LABEL	12/3/2015	AC Calibration Date
FRAMEWORKVERSION	QUANT	7.01	Framework Version
INSTRUMENTVERSION	LABEL	4.00	Instrument Version
CURVE	TABLE	89
	Pt	T	Vf	Im	Vu	Pwr	Sig	Ach	Temp	IERange	Over
	#	s	V	A	V	W	V	V	deg C	#	bits
	0	0.013333	8.51795E-001	-9.91406E-005	0.00000E+000	-8.44474E-005	-5.99601E-002	8.52168E-001	3.58220E+000	9	...........
	1	0.026667	8.38042E-001	-9.87332E-005	0.00000E+000	-8.27426E-005	-5.99601E-002	8.38420E-001	3.58220E+000	9	...........
	2	0.04	8.25163E-001	-9.93385E-005	0.00000E+000	-8.19705E-005	-5.99601E-002	8.25502E-001	3.57860E+000	9	...........
	3	0.053333	8.12803E-001	-9.90479E-005	0.00000E+000	-8.05064E-005	-5.99601E-002	8.13160E-001	3.57860E+000	9	...........
	4	0.066667	8.00909E-001	-9.88697E-005	0.00000E+000	-7.91856E-005	-5.99601E-002	8.01252E-001	3.57860E+000	9	...........
	5	0.08	7.89274E-001	-9.93000E-005	0.00000E+000	-7.83749E-005	-5.99601E-002	7.89596E-001	3.57860E+000	9	...........
	6	0.093333	7.77863E-001	-9.83467E-005	0.00000E+000	-7.65002E-005	-5.99601E-002	7.78177E-001	3.57860E+000	9	...........
	7	0.106667	7.66594E-001	-9.90343E-005	0.00000E+000	-7.59191E-005	-5.99601E-002	7.66907E-001	3.57860E+000	9	...........
	8	0.12	7.55459E-001	-9.88009E-005	0.00000E+000	-7.46401E-005	-5.99601E-002	7.55779E-001	3.57860E+000	9	...........
	9	0.133333	7.44427E-001	-9.86509E-005	0.00000E+000	-7.34383E-005	-5.99601E-002	7.44730E-001	3.57860E+000	9	...........
	10	0.146667	7.33474E-001	-9.88509E-005	0.00000E+000	-7.25046E-005	-5.99601E-002	7.33768E-001	3.57860E+000	9	...........
	11	0.16	7.22606E-001	-9.94459E-005	0.00000E+000	-7.18602E-005	-5.99601E-002	7.22844E-001	3.57860E+000	9	...........
	12	0.173333	7.11727E-001	-9.92271E-005	0.00000E+000	-7.06226E-005	-5.99601E-002	7.11985E-001	3.57860E+000	9	...........
	13	0.186667	7.00939E-001	-9.86332E-005	0.00000E+000	-6.91359E-005	-5.99601E-002	7.01167E-001	3.57860E+000	9	...........
	14	0.2	6.90144E-001	-9.94375E-005	0.00000E+000	-6.86262E-005	-5.99601E-002	6.90380E-001	3.57860E+000	9	...........
	15	0.213333	6.79390E-001	-9.89749E-005	0.00000E+000	-6.72426E-005	-5.99601E-002	6.79632E-001	3.57860E+000	9	...........
	16	0.226667	6.68659E-001	-9.88989E-005	0.00000E+000	-6.61296E-005	-5.99601E-002	6.68895E-001	3.57860E+000	9	...........
	17	0.24	6.57932E-001	-9.89958E-005	0.00000E+000	-6.51325E-005	-5.99601E-002	6.58158E-001	3.57860E+000	9	...........
	18	0.253333	6.47211E-001	-9.83519E-005	0.00000E+000	-6.36544E-005	-5.99601E-002	6.47447E-001	3.57860E+000	9	...........
	19	0.266667	6.36497E-001	-9.91375E-005	0.00000E+000	-6.31007E-005	-5.99601E-002	6.36731E-001	3.57860E+000	9	...........
	20	0.28	6.25820E-001	-9.91958E-005	0.00000E+000	-6.20787E-005	-5.99601E-002	6.26053E-001	3.57860E+000	9	...........
	21	0.293333	6.15140E-001	-9.84842E-005	0.00000E+000	-6.05816E-005	-5.99601E-002	6.15403E-001	3.57860E+000	9	...........
	22	0.306667	6.04456E-001	-9.89999E-005	0.00000E+000	-5.98411E-005	-5.99601E-002	6.04730E-001	3.57860E+000	9	...........
	23	0.32	5.93846E-001	-9.94219E-005	0.00000E+000	-5.90413E-005	-5.99601E-002	5.94091E-001	3.57860E+000	9	...........
	24	0.333333	5.83194E-001	-9.91395E-005	0.00000E+000	-5.78176E-005	-5.99601E-002	5.83447E-001	3.57860E+000	9	...........
	25	0.346667	5.72613E-001	-9.89885E-005	0.00000E+000	-5.66821E-005	-5.99601E-002	5.72852E-001	3.57860E+000	9	...........
	26	0.36	5.62034E-001	-9.96865E-005	0.00000E+000	-5.60272E-005	-5.99601E-002	5.62272E-001	3.57860E+000	9	...........
	27	0.373333	5.51470E-001	-9.83602E-005	0.00000E+000	-5.42427E-005	-5.99601E-002	5.51692E-001	3.57860E+000	9	...........
	28	0.386667	5.40934E-001	-9.92146E-005	0.00000E+000	-5.36685E-005	-5.99601E-002	5.41197E-001	3.57860E+000	9	...........
	29	0.4	5.30415E-001	-9.88916E-005	0.00000E+000	-5.24536E-005	-5.99601E-002	5.30665E-001	3.57860E+000	9	...........
	30	0.413333	5.19951E-001	-9.86373E-005	0.00000E+000	-5.12866E-005	-5.99601E-002	5.20194E-001	3.57860E+000	9	...........
	31	0.426667	5.09491E-001	-9.91124E-005	0.00000E+000	-5.04969E-005	-5.99601E-002	5.09776E-001	3.57860E+000	9	...........
	32	0.44	4.99098E-001	-9.88624E-005	0.00000E+000	-4.93421E-005	-5.99601E-002	4.99383E-001	3.57860E+000	9	...........
	33	0.453333	4.88820E-001	-9.93719E-005	0.00000E+000	-4.85750E-005	-5.99601E-002	4.89035E-001	3.57860E+000	9	...........
	34	0.466667	4.78850E-001	-9.90812E-005	0.00000E+000	-4.74450E-005	-5.99601E-002	4.78957E-001	3.57860E+000	9	...........
	35	0.48	4.68599E-001	-9.92792E-005	0.00000E+000	-4.65221E-005	-5.99601E-002	4.68700E-001	3.57860E+000	9	...........
	36	0.493333	4.58393E-001	-9.92729E-005	0.00000E+000	-4.55060E-005	-5.99601E-002	4.58489E-001	3.57860E+000	9	...........
	37	0.506667	4.48239E-001	-9.88937E-005	0.00000E+000	-4.43280E-005	-5.99601E-002	4.48339E-001	3.57860E+000	9	...........
	38	0.52	4.38137E-001	-9.92364E-005	0.00000E+000	-4.34791E-005	-5.99601E-002	4.38229E-001	3.57860E+000	9	...........
	39	0.533333	4.28098E-001	-9.84592E-005	0.00000E+000	-4.21501E-005	-5.99601E-002	4.28190E-001	3.57860E+000	9	...........
	40	0.546667	4.18111E-001	-9.89062E-005	0.00000E+000	-4.13537E-005	-5.99601E-002	4.18202E-001	3.57860E+000	9	...........
	41	0.56	4.08187E-001	-9.91896E-005	0.00000E+000	-4.04878E-005	-5.99601E-002	4.08271E-001	3.57860E+000	9	...........
	42	0.573333	3.98318E-001	-9.80747E-005	0.00000E+000	-3.90649E-005	-5.99601E-002	3.98393E-001	3.57860E+000	9	...........
	43	0.586667	3.88495E-001	-9.83092E-005	0.00000E+000	-3.81926E-005	-5.99601E-002	3.88576E-001	3.57860E+000	9	...........
	44	0.6	3.78737E-001	-9.98730E-005	0.00000E+000	-3.78256E-005	-5.99601E-002	3.78807E-001	3.57860E+000	9	...........
	45	0.613333	3.69033E-001	-9.84456E-005	0.00000E+000	-3.63297E-005	-5.99601E-002	3.69100E-001	3.57860E+000	9	...........
	46	0.626667	3.59375E-001	-9.91083E-005	0.00000E+000	-3.56171E-005	-5.99601E-002	3.59449E-001	3.57860E+000	9	...........
	47	0.64	3.49779E-001	-9.90437E-005	0.00000E+000	-3.46434E-005	-5.99601E-002	3.49846E-001	3.57860E+000	9	...........
	48	0.653333	3.40225E-001	-9.78163E-005	0.00000E+000	-3.32795E-005	-5.99601E-002	3.40293E-001	3.57860E+000	9	...........
	49	0.666667	3.30726E-001	-9.94771E-005	0.00000E+000	-3.28997E-005	-5.99601E-002	3.30785E-001	3.57860E+000	9	...........
	50	0.68	3.21277E-001	-9.91687E-005	0.00000E+000	-3.18606E-005	-5.99601E-002	3.21335E-001	3.57860E+000	9	...........
	51	0.693333	3.11868E-001	-9.90020E-005	0.00000E+000	-3.08756E-005	-5.99601E-002	3.11928E-001	3.57860E+000	9	...........
	52	0.706667	3.02514E-001	-9.83810E-005	0.00000E+000	-2.97616E-005	-5.99601E-002	3.02574E-001	3.57860E+000	9	...........
	53	0.72	2.93207E-001	-9.85498E-005	0.00000E+000	-2.88955E-005	-5.99601E-002	2.93265E-001	3.57860E+000	9	...........
	54	0.733333	2.83944E-001	-9.96157E-005	0.00000E+000	-2.82853E-005	-5.99601E-002	2.83992E-001	3.57860E+000	9	...........
	55	0.746667	2.74724E-001	-9.90541E-005	0.00000E+000	-2.72125E-005	-5.99601E-002	2.74769E-001	3.57860E+000	9	...........
	56	0.76	2.65540E-001	-9.89833E-005	0.00000E+000	-2.62841E-005	-5.99601E-002	2.65588E-001	3.57860E+000	9	...........
	57	0.773333	2.56404E-001	-9.88676E-005	0.00000E+000	-2.53501E-005	-5.99601E-002	2.56451E-001	3.57860E+000	9	...........
	58	0.786667	2.47314E-001	-9.91322E-005	0.00000E+000	-2.45168E-005	-5.99601E-002	2.47354E-001	3.57860E+000	9	...........
	59	0.8	2.38262E-001	-9.85759E-005	0.00000E+000	-2.34868E-005	-5.99601E-002	2.38302E-001	3.57860E+000	9	...........
	60	0.813333	2.29255E-001	-9.84894E-005	0.00000E+000	-2.25792E-005	-5.99601E-002	2.29287E-001	3.57860E+000	9	...........
	61	0.826667	2.20292E-001	-9.84571E-005	0.00000E+000	-2.16893E-005	-5.99601E-002	2.20324E-001	3.57860E+000	9	...........
	62	0.84	2.11374E-001	-9.93656E-005	0.00000E+000	-2.10033E-005	-5.99601E-002	2.11404E-001	3.57860E+000	9	...........
	63	0.853333	2.02498E-001	-9.93437E-005	0.00000E+000	-2.01169E-005	-5.99601E-002	2.02525E-001	3.57860E+000	9	...........
	64	0.866667	1.93671E-001	-9.84113E-005	0.00000E+000	-1.90595E-005	-5.99601E-002	1.93702E-001	3.57860E+000	9	...........
	65	0.88	1.84893E-001	-9.92177E-005	0.00000E+000	-1.83447E-005	-5.99601E-002	1.84926E-001	3.57860E+000	9	...........
	66	0.893333	1.76164E-001	-9.85769E-005	0.00000E+000	-1.73657E-005	-5.99601E-002	1.76195E-001	3.57860E+000	9	...........
	67	0.906667	1.67495E-001	-9.95688E-005	0.00000E+000	-1.66773E-005	-5.99601E-002	1.67518E-001	3.57860E+000	9	...........
	68	0.92	1.58877E-001	-9.89780E-005	0.00000E+000	-1.57254E-005	-5.99601E-002	1.58903E-001	3.57860E+000	9	...........
	69	0.933333	1.50324E-001	-9.81487E-005	0.00000E+000	-1.47541E-005	-5.99601E-002	1.50343E-001	3.57860E+000	9	...........
	70	0.946667	1.41828E-001	-9.90822E-005	0.00000E+000	-1.40527E-005	-5.99601E-002	1.41842E-001	3.57860E+000	9	...........
	71	0.96	1.33390E-001	-9.82487E-005	0.00000E+000	-1.31054E-005	-5.99601E-002	1.33409E-001	3.57860E+000	9	...........
	72	0.97333	1.25028E-001	-9.94646E-005	0.00000E+000	-1.24358E-005	-5.99601E-002	1.25041E-001	3.57860E+000	9	...........
	73	0.98667	1.16732E-001	-1.00282E-004	0.00000E+000	-1.17062E-005	-5.99601E-002	1.16749E-001	3.57860E+000	9	...........
	74	1	1.08506E-001	-9.86071E-005	0.00000E+000	-1.06995E-005	-5.99601E-002	1.08517E-001	3.57860E+000	9	...........
	75	1.01333	1.00346E-001	-9.85550E-005	0.00000E+000	-9.88965E-006	-5.99601E-002	1.00358E-001	3.57860E+000	9	...........
	76	1.02667	9.22552E-002	-9.93396E-005	0.00000E+000	-9.16460E-006	-5.99601E-002	9.22646E-002	3.57860E+000	9	...........
	77	1.04	8.42268E-002	-9.97240E-005	0.00000E+000	-8.39944E-006	-5.99601E-002	8.42368E-002	3.57860E+000	9	...........
	78	1.05333	7.62826E-002	-9.87634E-005	0.00000E+000	-7.53393E-006	-5.99601E-002	7.62846E-002	3.57860E+000	9	...........
	79	1.06667	6.84005E-002	-9.86561E-005	0.00000E+000	-6.74813E-006	-5.99601E-002	6.83999E-002	3.57860E+000	9	...........
	80	1.08	6.05857E-002	-9.87249E-005	0.00000E+000	-5.98131E-006	-5.99601E-002	6.05810E-002	3.57860E+000	9	...........
	81	1.09333	5.28372E-002	-9.84509E-005	0.00000E+000	-5.20187E-006	-5.99601E-002	5.28283E-002	3.57860E+000	9	...........
	82	1.10667	4.51923E-002	-9.80237E-005	0.00000E+000	-4.42992E-006	-5.99601E-002	4.51882E-002	3.57860E+000	9	...........
	83	1.12	3.75785E-002	-9.90104E-005	0.00000E+000	-3.72066E-006	-5.99601E-002	3.75682E-002	3.57860E+000	9	...........
	84	1.13333	3.00353E-002	-9.81362E-005	0.00000E+000	-2.94755E-006	-5.99601E-002	3.00127E-002	3.57860E+000	9	...........
	85	1.14667	2.25450E-002	-9.82112E-005	0.00000E+000	-2.21417E-006	-5.99601E-002	2.25248E-002	3.57860E+000	9	...........
	86	1.16	1.51260E-002	-9.93344E-005	0.00000E+000	-1.50254E-006	-5.99601E-002	1.50998E-002	3.57860E+000	9	...........
	87	1.17333	7.76635E-003	-9.88478E-005	0.00000E+000	-7.67687E-007	-5.99601E-002	7.73507E-003	3.57860E+000	9	...........
	88	1.18333	1.37570E-003	-9.84769E-005	0.00000E+000	-1.35475E-007	-5.99601E-002	1.34573E-003	3.57860E+000	9	...........
STARTTIMEOFFSET	QUANT	889.8124	Start Time Offset (s)
