EXPLAIN
TAG	PWR800_DISCHARGE
TITLE	LABEL	PWR Cyclic Charge Discharge (Cell) - Discharge Step	Test &Identifier
DATE	LABEL	13-7-2017	Date
TIME	LABEL	15:35:01	Time
NOTES	NOTES	2	&Notes...
	supercap test cell
	6M KOH
PSTAT	PSTAT	IFC5000-01520	Potentiostat
CAPACITY	QUANT	1.00000E-003	Capacity (A-hr)
CELLTYPE	SELECTOR	1	&Cell Type
WORKINGCONNECTION	SELECTOR	0	&Working Lead
MAXDISCHARGETIME	VARIABLEANDUNITS	1.00000E+002	s	1.00000E+002	second(s)	Max &Discharge Time
DISCHARGEMODE	MULTIPARAM	0	1.00000E-004	&Discharge Mode	Constant Current	Amp(s)
SAMPLETIME	QUANT	1.00000E-002	Sa&mple Period (s)
DISCHARGESTOPAT1	MULTIPARAM	3	0.00000E+000	Discharge Stop At &1	Voltage < Limit	V
DISCHARGESTOPAT2	MULTIPARAM	0	0.00000E+000	Discharge Stop At &2	None	N/A
AESBHCSELECTOR	TOGGLE	F	Save Both Half Cells
IRCOMP	TOGGLE	F	IR &Measure
EOC	QUANT	0	Open Circuit (V)
SEQUENCER	TOGGLE	TRUE	Run as Sequence
PSTATMODEL	IQUANT	53	Pstat Model
PSTATSECTION	LABEL	IFC5000-01520	Pstat Section
PSTATSERIALNO	LABEL	01520	Pstat Serial Number
CTRLMODE	IQUANT	0	Control Mode
ELECTROMETER	IQUANT	1	RE=0 or CS=1
IESTAB	IQUANT	0	I/E Stability
CASPEED	IQUANT	4	Control Amp Speed
CONVENTION	IQUANT	1	Current Convention
ICHRANGE	IQUANT	2	Ich Range
ICHRANGEMODE	TOGGLE	T	Ich Auto Range
ICHOFFSETENABLE	TOGGLE	F	Ich Offset Enable
ICHOFFSET	QUANT	0	Ich Offset (V)
ICHFILTER	IQUANT	1	Ich Filter
VCHRANGE	IQUANT	2	Vch Range
VCHRANGEMODE	TOGGLE	T	Vch Auto Range
VCHOFFSETENABLE	TOGGLE	F	Vch Offset Enable
VCHOFFSET	QUANT	0	Vch Offset (V)
VCHFILTER	IQUANT	1	Vch Filter
IERANGELOWERLIMIT	IQUANT	9	I/E Range Lower Limit
IERANGEMODE	TOGGLE	F	I/E AutoRange
IERANGE	IQUANT	9	I/E Range
ACHSELECT	IQUANT	1	Ach Select
ACHRANGE	IQUANT	2	Ach Range
ACHOFFSETENABLE	TOGGLE	F	Ach Offset Enable
ACHOFFSET	QUANT	0	Ach Offset (V)
ACHFILTER	IQUANT	1	Ach Filter
CABLEID	IQUANT	14	Cable ID
DCCALDATE	LABEL	5-7-2017	DC Calibration Date
ACCALDATE	LABEL	12/3/2015	AC Calibration Date
FRAMEWORKVERSION	QUANT	7.01	Framework Version
INSTRUMENTVERSION	LABEL	4.00	Instrument Version
CURVE	TABLE	87
	Pt	T	Vf	Im	Vu	Pwr	Sig	Ach	Temp	IERange	Over
	#	s	V	A	V	W	V	V	deg C	#	bits
	0	0.013333	8.48322E-001	-9.92114E-005	0.00000E+000	-8.41633E-005	-5.99601E-002	8.48661E-001	3.57850E+000	9	...........
	1	0.026667	8.34221E-001	-9.84279E-005	0.00000E+000	-8.21107E-005	-5.99601E-002	8.34538E-001	3.57850E+000	9	...........
	2	0.04	8.20975E-001	-9.81227E-005	0.00000E+000	-8.05562E-005	-5.99601E-002	8.21280E-001	3.57850E+000	9	...........
	3	0.053333	8.08273E-001	-9.94083E-005	0.00000E+000	-8.03490E-005	-5.99601E-002	8.08580E-001	3.57850E+000	9	...........
	4	0.066667	7.95996E-001	-9.91937E-005	0.00000E+000	-7.89578E-005	-5.99601E-002	7.96270E-001	3.57850E+000	9	...........
	5	0.08	7.83977E-001	-9.92823E-005	0.00000E+000	-7.78351E-005	-5.99601E-002	7.84264E-001	3.57850E+000	9	...........
	6	0.093333	7.72194E-001	-9.84019E-005	0.00000E+000	-7.59854E-005	-5.99601E-002	7.72481E-001	3.57850E+000	9	...........
	7	0.106667	7.60580E-001	-9.92573E-005	0.00000E+000	-7.54931E-005	-5.99601E-002	7.60861E-001	3.57850E+000	9	...........
	8	0.12	7.49066E-001	-9.92291E-005	0.00000E+000	-7.43292E-005	-5.99601E-002	7.49361E-001	3.57850E+000	9	...........
	9	0.133333	7.37664E-001	-9.94229E-005	0.00000E+000	-7.33407E-005	-5.99601E-002	7.37939E-001	3.57850E+000	9	...........
	10	0.146667	7.26360E-001	-9.89833E-005	0.00000E+000	-7.18975E-005	-5.99601E-002	7.26626E-001	3.57850E+000	9	...........
	11	0.16	7.15083E-001	-9.79914E-005	0.00000E+000	-7.00720E-005	-5.99601E-002	7.15333E-001	3.57850E+000	9	...........
	12	0.173333	7.03849E-001	-9.90666E-005	0.00000E+000	-6.97279E-005	-5.99601E-002	7.04084E-001	3.57850E+000	9	...........
	13	0.186667	6.92674E-001	-9.89270E-005	0.00000E+000	-6.85241E-005	-5.99601E-002	6.92919E-001	3.57850E+000	9	...........
	14	0.2	6.81526E-001	-9.96042E-005	0.00000E+000	-6.78829E-005	-5.99601E-002	6.81793E-001	3.57850E+000	9	...........
	15	0.213333	6.70400E-001	-9.82268E-005	0.00000E+000	-6.58513E-005	-5.99601E-002	6.70667E-001	3.57850E+000	9	...........
	16	0.226667	6.59273E-001	-9.88124E-005	0.00000E+000	-6.51443E-005	-5.99601E-002	6.59540E-001	3.57850E+000	9	...........
	17	0.24	6.48178E-001	-9.86915E-005	0.00000E+000	-6.39697E-005	-5.99601E-002	6.48447E-001	3.57850E+000	9	...........
	18	0.253333	6.37097E-001	-9.84279E-005	0.00000E+000	-6.27081E-005	-5.99601E-002	6.37372E-001	3.57850E+000	9	...........
	19	0.266667	6.26063E-001	-9.92177E-005	0.00000E+000	-6.21165E-005	-5.99601E-002	6.26323E-001	3.57850E+000	9	...........
	20	0.28	6.15034E-001	-9.80581E-005	0.00000E+000	-6.03090E-005	-5.99601E-002	6.15307E-001	3.57850E+000	9	...........
	21	0.293333	6.03977E-001	-9.87686E-005	0.00000E+000	-5.96540E-005	-5.99601E-002	6.04291E-001	3.57850E+000	9	...........
	22	0.306667	5.93019E-001	-9.82216E-005	0.00000E+000	-5.82473E-005	-5.99601E-002	5.93313E-001	3.57850E+000	9	...........
	23	0.32	5.82038E-001	-9.90947E-005	0.00000E+000	-5.76769E-005	-5.99601E-002	5.82340E-001	3.57850E+000	9	...........
	24	0.333333	5.71122E-001	-9.81393E-005	0.00000E+000	-5.60496E-005	-5.99601E-002	5.71412E-001	3.57850E+000	9	...........
	25	0.346667	5.60191E-001	-9.84259E-005	0.00000E+000	-5.51373E-005	-5.99601E-002	5.60497E-001	3.57850E+000	9	...........
	26	0.36	5.49328E-001	-9.90624E-005	0.00000E+000	-5.44178E-005	-5.99601E-002	5.49641E-001	3.57850E+000	9	...........
	27	0.373333	5.38532E-001	-9.89593E-005	0.00000E+000	-5.32927E-005	-5.99601E-002	5.38820E-001	3.57850E+000	9	...........
	28	0.386667	5.27739E-001	-9.88155E-005	0.00000E+000	-5.21488E-005	-5.99601E-002	5.28004E-001	3.57850E+000	9	...........
	29	0.4	5.17027E-001	-9.86874E-005	0.00000E+000	-5.10241E-005	-5.99601E-002	5.17253E-001	3.57850E+000	9	...........
	30	0.413333	5.06260E-001	-9.88562E-005	0.00000E+000	-5.00469E-005	-5.99601E-002	5.06535E-001	3.57850E+000	9	...........
	31	0.426667	4.95650E-001	-9.95959E-005	0.00000E+000	-4.93647E-005	-5.99601E-002	4.95893E-001	3.57850E+000	9	...........
	32	0.44	4.85187E-001	-9.94584E-005	0.00000E+000	-4.82559E-005	-5.99601E-002	4.85403E-001	3.57850E+000	9	...........
	33	0.453333	4.74877E-001	-9.96709E-005	0.00000E+000	-4.73314E-005	-5.99601E-002	4.74979E-001	3.57850E+000	9	...........
	34	0.466667	4.64399E-001	-9.86061E-005	0.00000E+000	-4.57926E-005	-5.99601E-002	4.64496E-001	3.57850E+000	9	...........
	35	0.48	4.53980E-001	-9.85384E-005	0.00000E+000	-4.47345E-005	-5.99601E-002	4.54071E-001	3.57850E+000	9	...........
	36	0.493333	4.43622E-001	-9.86519E-005	0.00000E+000	-4.37642E-005	-5.99601E-002	4.43714E-001	3.57850E+000	9	...........
	37	0.506667	4.33330E-001	-9.90395E-005	0.00000E+000	-4.29168E-005	-5.99601E-002	4.33416E-001	3.57850E+000	9	...........
	38	0.52	4.23098E-001	-9.86842E-005	0.00000E+000	-4.17531E-005	-5.99601E-002	4.23185E-001	3.57850E+000	9	...........
	39	0.533333	4.12938E-001	-9.87363E-005	0.00000E+000	-4.07719E-005	-5.99601E-002	4.13017E-001	3.57850E+000	9	...........
	40	0.546667	4.02838E-001	-9.85978E-005	0.00000E+000	-3.97189E-005	-5.99601E-002	4.02914E-001	3.57850E+000	9	...........
	41	0.56	3.92801E-001	-9.93135E-005	0.00000E+000	-3.90104E-005	-5.99601E-002	3.92872E-001	3.57850E+000	9	...........
	42	0.573333	3.82823E-001	-9.90583E-005	0.00000E+000	-3.79218E-005	-5.99601E-002	3.82898E-001	3.57850E+000	9	...........
	43	0.586667	3.72910E-001	-9.88426E-005	0.00000E+000	-3.68594E-005	-5.99601E-002	3.72978E-001	3.57850E+000	9	...........
	44	0.6	3.63060E-001	-9.89030E-005	0.00000E+000	-3.59077E-005	-5.99601E-002	3.63127E-001	3.57850E+000	9	...........
	45	0.613333	3.53265E-001	-9.92375E-005	0.00000E+000	-3.50571E-005	-5.99601E-002	3.53333E-001	3.57850E+000	9	...........
	46	0.626667	3.43531E-001	-9.88530E-005	0.00000E+000	-3.39591E-005	-5.99601E-002	3.43594E-001	3.57850E+000	9	...........
	47	0.64	3.33854E-001	-9.97865E-005	0.00000E+000	-3.33141E-005	-5.99601E-002	3.33916E-001	3.57850E+000	9	...........
	48	0.653333	3.24235E-001	-9.92458E-005	0.00000E+000	-3.21790E-005	-5.99601E-002	3.24292E-001	3.57850E+000	9	...........
	49	0.666667	3.14663E-001	-9.86540E-005	0.00000E+000	-3.10428E-005	-5.99601E-002	3.14725E-001	3.57850E+000	9	...........
	50	0.68	3.05150E-001	-9.85561E-005	0.00000E+000	-3.00744E-005	-5.99601E-002	3.05206E-001	3.57850E+000	9	...........
	51	0.693333	2.95688E-001	-9.93510E-005	0.00000E+000	-2.93769E-005	-5.99601E-002	2.95737E-001	3.57850E+000	9	...........
	52	0.706667	2.86269E-001	-9.86353E-005	0.00000E+000	-2.82362E-005	-5.99601E-002	2.86325E-001	3.57850E+000	9	...........
	53	0.72	2.76908E-001	-9.84342E-005	0.00000E+000	-2.72572E-005	-5.99601E-002	2.76954E-001	3.57850E+000	9	...........
	54	0.733333	2.67594E-001	-9.84634E-005	0.00000E+000	-2.63482E-005	-5.99601E-002	2.67641E-001	3.57850E+000	9	...........
	55	0.746667	2.58322E-001	-9.86019E-005	0.00000E+000	-2.54710E-005	-5.99601E-002	2.58373E-001	3.57850E+000	9	...........
	56	0.76	2.49101E-001	-9.85655E-005	0.00000E+000	-2.45528E-005	-5.99601E-002	2.49150E-001	3.57850E+000	9	...........
	57	0.773333	2.39931E-001	-9.92885E-005	0.00000E+000	-2.38224E-005	-5.99601E-002	2.39970E-001	3.57850E+000	9	...........
	58	0.786667	2.30804E-001	-9.79789E-005	0.00000E+000	-2.26139E-005	-5.99601E-002	2.30838E-001	3.57850E+000	9	...........
	59	0.8	2.21723E-001	-9.85373E-005	0.00000E+000	-2.18480E-005	-5.99601E-002	2.21761E-001	3.57850E+000	9	...........
	60	0.813333	2.12698E-001	-9.89760E-005	0.00000E+000	-2.10519E-005	-5.99601E-002	2.12731E-001	3.57850E+000	9	...........
	61	0.826667	2.03723E-001	-9.91625E-005	0.00000E+000	-2.02016E-005	-5.99601E-002	2.03756E-001	3.57850E+000	9	...........
	62	0.84	1.94807E-001	-9.91760E-005	0.00000E+000	-1.93202E-005	-5.99601E-002	1.94838E-001	3.57850E+000	9	...........
	63	0.853333	1.85946E-001	-9.83519E-005	0.00000E+000	-1.82882E-005	-5.99601E-002	1.85969E-001	3.57850E+000	9	...........
	64	0.866667	1.77136E-001	-9.85405E-005	0.00000E+000	-1.74550E-005	-5.99601E-002	1.77159E-001	3.57850E+000	9	...........
	65	0.88	1.68386E-001	-9.88697E-005	0.00000E+000	-1.66483E-005	-5.99601E-002	1.68409E-001	3.57850E+000	9	...........
	66	0.893333	1.59703E-001	-9.93208E-005	0.00000E+000	-1.58619E-005	-5.99601E-002	1.59715E-001	3.57850E+000	9	...........
	67	0.906667	1.51084E-001	-9.95709E-005	0.00000E+000	-1.50435E-005	-5.99601E-002	1.51093E-001	3.57850E+000	9	...........
	68	0.92	1.42532E-001	-9.96521E-005	0.00000E+000	-1.42037E-005	-5.99601E-002	1.42536E-001	3.57850E+000	9	...........
	69	0.933333	1.34052E-001	-9.91989E-005	0.00000E+000	-1.32978E-005	-5.99601E-002	1.34055E-001	3.57906E+000	9	...........
	70	0.946667	1.25636E-001	-9.85967E-005	0.00000E+000	-1.23873E-005	-5.99601E-002	1.25647E-001	3.58000E+000	9	...........
	71	0.96	1.17300E-001	-9.88447E-005	0.00000E+000	-1.15945E-005	-5.99601E-002	1.17309E-001	3.58000E+000	9	...........
	72	0.97333	1.09031E-001	-9.83508E-005	0.00000E+000	-1.07233E-005	-5.99601E-002	1.09042E-001	3.58000E+000	9	...........
	73	0.98667	1.00845E-001	-9.92125E-005	0.00000E+000	-1.00051E-005	-5.99601E-002	1.00855E-001	3.58000E+000	9	...........
	74	1	9.27258E-002	-9.93094E-005	0.00000E+000	-9.20854E-006	-5.99601E-002	9.27325E-002	3.58000E+000	9	...........
	75	1.01333	8.46829E-002	-9.84154E-005	0.00000E+000	-8.33410E-006	-5.99601E-002	8.46872E-002	3.58000E+000	9	...........
	76	1.02667	7.67166E-002	-9.91541E-005	0.00000E+000	-7.60677E-006	-5.99601E-002	7.67162E-002	3.58000E+000	9	...........
	77	1.04	6.88146E-002	-9.82842E-005	0.00000E+000	-6.76338E-006	-5.99601E-002	6.88143E-002	3.58000E+000	9	...........
	78	1.05333	6.09832E-002	-9.83790E-005	0.00000E+000	-5.99946E-006	-5.99601E-002	6.09873E-002	3.58000E+000	9	...........
	79	1.06667	5.32239E-002	-9.90312E-005	0.00000E+000	-5.27083E-006	-5.99601E-002	5.32179E-002	3.58000E+000	9	...........
	80	1.08	4.55629E-002	-9.89437E-005	0.00000E+000	-4.50816E-006	-5.99601E-002	4.55558E-002	3.58000E+000	9	...........
	81	1.09333	3.79475E-002	-9.88718E-005	0.00000E+000	-3.75194E-006	-5.99601E-002	3.79381E-002	3.58000E+000	9	...........
	82	1.10667	3.03927E-002	-9.86113E-005	0.00000E+000	-2.99707E-006	-5.99601E-002	3.03782E-002	3.58000E+000	9	...........
	83	1.12	2.29083E-002	-9.84269E-005	0.00000E+000	-2.25479E-006	-5.99601E-002	2.28867E-002	3.58000E+000	9	...........
	84	1.13333	1.54805E-002	-9.86790E-005	0.00000E+000	-1.52760E-006	-5.99601E-002	1.54590E-002	3.58000E+000	9	...........
	85	1.14667	8.12398E-003	-9.91937E-005	0.00000E+000	-8.05848E-007	-5.99601E-002	8.09818E-003	3.58000E+000	9	...........
	86	1.15667	1.74162E-003	-9.93618E-005	0.00000E+000	-1.73050E-007	-5.99601E-002	1.70422E-003	3.58000E+000	9	...........
STARTTIMEOFFSET	QUANT	1493.059	Start Time Offset (s)
