EXPLAIN
TAG	PWR800_DISCHARGE
TITLE	LABEL	PWR Cyclic Charge Discharge (Cell) - Discharge Step	Test &Identifier
DATE	LABEL	13-7-2017	Date
TIME	LABEL	15:30:49	Time
NOTES	NOTES	2	&Notes...
	supercap test cell
	6M KOH
PSTAT	PSTAT	IFC5000-01520	Potentiostat
CAPACITY	QUANT	1.00000E-003	Capacity (A-hr)
CELLTYPE	SELECTOR	1	&Cell Type
WORKINGCONNECTION	SELECTOR	0	&Working Lead
MAXDISCHARGETIME	VARIABLEANDUNITS	1.00000E+002	s	1.00000E+002	second(s)	Max &Discharge Time
DISCHARGEMODE	MULTIPARAM	0	1.00000E-004	&Discharge Mode	Constant Current	Amp(s)
SAMPLETIME	QUANT	1.00000E-002	Sa&mple Period (s)
DISCHARGESTOPAT1	MULTIPARAM	3	0.00000E+000	Discharge Stop At &1	Voltage < Limit	V
DISCHARGESTOPAT2	MULTIPARAM	0	0.00000E+000	Discharge Stop At &2	None	N/A
AESBHCSELECTOR	TOGGLE	F	Save Both Half Cells
IRCOMP	TOGGLE	F	IR &Measure
EOC	QUANT	0	Open Circuit (V)
SEQUENCER	TOGGLE	TRUE	Run as Sequence
PSTATMODEL	IQUANT	53	Pstat Model
PSTATSECTION	LABEL	IFC5000-01520	Pstat Section
PSTATSERIALNO	LABEL	01520	Pstat Serial Number
CTRLMODE	IQUANT	0	Control Mode
ELECTROMETER	IQUANT	1	RE=0 or CS=1
IESTAB	IQUANT	0	I/E Stability
CASPEED	IQUANT	4	Control Amp Speed
CONVENTION	IQUANT	1	Current Convention
ICHRANGE	IQUANT	2	Ich Range
ICHRANGEMODE	TOGGLE	T	Ich Auto Range
ICHOFFSETENABLE	TOGGLE	F	Ich Offset Enable
ICHOFFSET	QUANT	0	Ich Offset (V)
ICHFILTER	IQUANT	1	Ich Filter
VCHRANGE	IQUANT	2	Vch Range
VCHRANGEMODE	TOGGLE	T	Vch Auto Range
VCHOFFSETENABLE	TOGGLE	F	Vch Offset Enable
VCHOFFSET	QUANT	0	Vch Offset (V)
VCHFILTER	IQUANT	1	Vch Filter
IERANGELOWERLIMIT	IQUANT	9	I/E Range Lower Limit
IERANGEMODE	TOGGLE	F	I/E AutoRange
IERANGE	IQUANT	9	I/E Range
ACHSELECT	IQUANT	1	Ach Select
ACHRANGE	IQUANT	2	Ach Range
ACHOFFSETENABLE	TOGGLE	F	Ach Offset Enable
ACHOFFSET	QUANT	0	Ach Offset (V)
ACHFILTER	IQUANT	1	Ach Filter
CABLEID	IQUANT	14	Cable ID
DCCALDATE	LABEL	5-7-2017	DC Calibration Date
ACCALDATE	LABEL	12/3/2015	AC Calibration Date
FRAMEWORKVERSION	QUANT	7.01	Framework Version
INSTRUMENTVERSION	LABEL	4.00	Instrument Version
CURVE	TABLE	88
	Pt	T	Vf	Im	Vu	Pwr	Sig	Ach	Temp	IERange	Over
	#	s	V	A	V	W	V	V	deg C	#	bits
	0	0.013333	8.47980E-001	-9.83290E-005	0.00000E+000	-8.33810E-005	-5.99601E-002	8.48311E-001	3.58060E+000	9	...........
	1	0.026667	8.33998E-001	-9.89676E-005	0.00000E+000	-8.25388E-005	-5.99601E-002	8.34323E-001	3.57981E+000	9	...........
	2	0.04	8.20841E-001	-9.90739E-005	0.00000E+000	-8.13239E-005	-5.99601E-002	8.21170E-001	3.57850E+000	9	...........
	3	0.053333	8.08246E-001	-9.94344E-005	0.00000E+000	-8.03675E-005	-5.99601E-002	8.08578E-001	3.57850E+000	9	...........
	4	0.066667	7.96103E-001	-9.89353E-005	0.00000E+000	-7.87627E-005	-5.99601E-002	7.96381E-001	3.57850E+000	9	...........
	5	0.08	7.84181E-001	-9.84821E-005	0.00000E+000	-7.72278E-005	-5.99601E-002	7.84499E-001	3.57850E+000	9	...........
	6	0.093333	7.72536E-001	-9.84644E-005	0.00000E+000	-7.60673E-005	-5.99601E-002	7.72809E-001	3.57850E+000	9	...........
	7	0.106667	7.60998E-001	-9.93073E-005	0.00000E+000	-7.55726E-005	-5.99601E-002	7.61271E-001	3.57850E+000	9	...........
	8	0.12	7.49610E-001	-9.95834E-005	0.00000E+000	-7.46487E-005	-5.99601E-002	7.49900E-001	3.57850E+000	9	...........
	9	0.133333	7.38331E-001	-9.84946E-005	0.00000E+000	-7.27216E-005	-5.99601E-002	7.38613E-001	3.57850E+000	9	...........
	10	0.146667	7.27128E-001	-9.83665E-005	0.00000E+000	-7.15250E-005	-5.99601E-002	7.27403E-001	3.57850E+000	9	...........
	11	0.16	7.15934E-001	-9.91187E-005	0.00000E+000	-7.09624E-005	-5.99601E-002	7.16239E-001	3.57850E+000	9	...........
	12	0.173333	7.04831E-001	-9.78288E-005	0.00000E+000	-6.89528E-005	-5.99601E-002	7.05113E-001	3.57850E+000	9	...........
	13	0.186667	6.93753E-001	-9.86717E-005	0.00000E+000	-6.84538E-005	-5.99601E-002	6.94035E-001	3.57850E+000	9	...........
	14	0.2	6.82710E-001	-9.84727E-005	0.00000E+000	-6.72283E-005	-5.99601E-002	6.82972E-001	3.57850E+000	9	...........
	15	0.213333	6.71687E-001	-9.87009E-005	0.00000E+000	-6.62961E-005	-5.99601E-002	6.71949E-001	3.57850E+000	9	...........
	16	0.226667	6.60678E-001	-9.88103E-005	0.00000E+000	-6.52818E-005	-5.99601E-002	6.60926E-001	3.57850E+000	9	...........
	17	0.24	6.49694E-001	-9.81039E-005	0.00000E+000	-6.37375E-005	-5.99601E-002	6.49956E-001	3.57850E+000	9	...........
	18	0.253333	6.38722E-001	-9.94771E-005	0.00000E+000	-6.35383E-005	-5.99601E-002	6.38976E-001	3.57850E+000	9	...........
	19	0.266667	6.27782E-001	-9.96115E-005	0.00000E+000	-6.25343E-005	-5.99601E-002	6.28044E-001	3.57850E+000	9	...........
	20	0.28	6.16844E-001	-9.83404E-005	0.00000E+000	-6.06607E-005	-5.99601E-002	6.17124E-001	3.57850E+000	9	...........
	21	0.293333	6.05910E-001	-9.94073E-005	0.00000E+000	-6.02319E-005	-5.99601E-002	6.06188E-001	3.57850E+000	9	...........
	22	0.306667	5.95030E-001	-9.79768E-005	0.00000E+000	-5.82991E-005	-5.99601E-002	5.95293E-001	3.57850E+000	9	...........
	23	0.32	5.84155E-001	-9.93083E-005	0.00000E+000	-5.80114E-005	-5.99601E-002	5.84456E-001	3.57850E+000	9	...........
	24	0.333333	5.73323E-001	-9.85905E-005	0.00000E+000	-5.65242E-005	-5.99601E-002	5.73580E-001	3.57850E+000	9	...........
	25	0.346667	5.62514E-001	-9.89968E-005	0.00000E+000	-5.56871E-005	-5.99601E-002	5.62781E-001	3.57850E+000	9	...........
	26	0.36	5.51732E-001	-9.89801E-005	0.00000E+000	-5.46105E-005	-5.99601E-002	5.52006E-001	3.57850E+000	9	...........
	27	0.373333	5.40985E-001	-9.91604E-005	0.00000E+000	-5.36443E-005	-5.99601E-002	5.41260E-001	3.57850E+000	9	...........
	28	0.386667	5.30266E-001	-9.89374E-005	0.00000E+000	-5.24632E-005	-5.99601E-002	5.30504E-001	3.57850E+000	9	...........
	29	0.4	5.19598E-001	-9.95969E-005	0.00000E+000	-5.17504E-005	-5.99601E-002	5.19839E-001	3.57850E+000	9	...........
	30	0.413333	5.08945E-001	-9.84602E-005	0.00000E+000	-5.01108E-005	-5.99601E-002	5.09210E-001	3.57850E+000	9	...........
	31	0.426667	4.98351E-001	-9.85363E-005	0.00000E+000	-4.91056E-005	-5.99601E-002	4.98625E-001	3.57850E+000	9	...........
	32	0.44	4.87902E-001	-9.86613E-005	0.00000E+000	-4.81371E-005	-5.99601E-002	4.88111E-001	3.57850E+000	9	...........
	33	0.453333	4.77730E-001	-9.93354E-005	0.00000E+000	-4.74555E-005	-5.99601E-002	4.77828E-001	3.57850E+000	9	...........
	34	0.466667	4.67305E-001	-9.85894E-005	0.00000E+000	-4.60713E-005	-5.99601E-002	4.67402E-001	3.57850E+000	9	...........
	35	0.48	4.56942E-001	-9.89530E-005	0.00000E+000	-4.52158E-005	-5.99601E-002	4.57035E-001	3.57850E+000	9	...........
	36	0.493333	4.46629E-001	-9.96730E-005	0.00000E+000	-4.45169E-005	-5.99601E-002	4.46719E-001	3.57850E+000	9	...........
	37	0.506667	4.36387E-001	-9.93312E-005	0.00000E+000	-4.33469E-005	-5.99601E-002	4.36477E-001	3.57850E+000	9	...........
	38	0.52	4.26204E-001	-9.89447E-005	0.00000E+000	-4.21706E-005	-5.99601E-002	4.26292E-001	3.57850E+000	9	...........
	39	0.533333	4.16081E-001	-9.93229E-005	0.00000E+000	-4.13264E-005	-5.99601E-002	4.16170E-001	3.57850E+000	9	...........
	40	0.546667	4.06026E-001	-9.89405E-005	0.00000E+000	-4.01725E-005	-5.99601E-002	4.06103E-001	3.57850E+000	9	...........
	41	0.56	3.96029E-001	-9.91614E-005	0.00000E+000	-3.92708E-005	-5.99601E-002	3.96101E-001	3.57850E+000	9	...........
	42	0.573333	3.86084E-001	-9.88426E-005	0.00000E+000	-3.81616E-005	-5.99601E-002	3.86161E-001	3.57850E+000	9	...........
	43	0.586667	3.76203E-001	-9.92948E-005	0.00000E+000	-3.73550E-005	-5.99601E-002	3.76272E-001	3.57850E+000	9	...........
	44	0.6	3.66382E-001	-9.99157E-005	0.00000E+000	-3.66073E-005	-5.99601E-002	3.66450E-001	3.57850E+000	9	...........
	45	0.613333	3.56621E-001	-9.84925E-005	0.00000E+000	-3.51245E-005	-5.99601E-002	3.56686E-001	3.57850E+000	9	...........
	46	0.626667	3.46915E-001	-9.97886E-005	0.00000E+000	-3.46182E-005	-5.99601E-002	3.46976E-001	3.57850E+000	9	...........
	47	0.64	3.37265E-001	-9.89239E-005	0.00000E+000	-3.33635E-005	-5.99601E-002	3.37325E-001	3.57850E+000	9	...........
	48	0.653333	3.27676E-001	-9.93896E-005	0.00000E+000	-3.25676E-005	-5.99601E-002	3.27737E-001	3.57850E+000	9	...........
	49	0.666667	3.18138E-001	-9.83331E-005	0.00000E+000	-3.12835E-005	-5.99601E-002	3.18197E-001	3.57850E+000	9	...........
	50	0.68	3.08650E-001	-9.94125E-005	0.00000E+000	-3.06837E-005	-5.99601E-002	3.08706E-001	3.57850E+000	9	...........
	51	0.693333	2.99209E-001	-9.87832E-005	0.00000E+000	-2.95568E-005	-5.99601E-002	2.99266E-001	3.57850E+000	9	...........
	52	0.706667	2.89816E-001	-9.99168E-005	0.00000E+000	-2.89574E-005	-5.99601E-002	2.89866E-001	3.57850E+000	9	...........
	53	0.72	2.80477E-001	-9.96324E-005	0.00000E+000	-2.79445E-005	-5.99601E-002	2.80522E-001	3.57850E+000	9	...........
	54	0.733333	2.71177E-001	-9.88145E-005	0.00000E+000	-2.67962E-005	-5.99601E-002	2.71227E-001	3.57850E+000	9	...........
	55	0.746667	2.61932E-001	-9.91989E-005	0.00000E+000	-2.59834E-005	-5.99601E-002	2.61974E-001	3.57850E+000	9	...........
	56	0.76	2.52727E-001	-9.92792E-005	0.00000E+000	-2.50905E-005	-5.99601E-002	2.52772E-001	3.57850E+000	9	...........
	57	0.773333	2.43573E-001	-9.85603E-005	0.00000E+000	-2.40066E-005	-5.99601E-002	2.43611E-001	3.57850E+000	9	...........
	58	0.786667	2.34458E-001	-9.81914E-005	0.00000E+000	-2.30218E-005	-5.99601E-002	2.34498E-001	3.57850E+000	9	...........
	59	0.8	2.25396E-001	-9.87436E-005	0.00000E+000	-2.22564E-005	-5.99601E-002	2.25429E-001	3.57850E+000	9	...........
	60	0.813333	2.16379E-001	-9.91093E-005	0.00000E+000	-2.14451E-005	-5.99601E-002	2.16414E-001	3.57850E+000	9	...........
	61	0.826667	2.07409E-001	-9.90906E-005	0.00000E+000	-2.05523E-005	-5.99601E-002	2.07443E-001	3.57850E+000	9	...........
	62	0.84	1.98490E-001	-9.89926E-005	0.00000E+000	-1.96491E-005	-5.99601E-002	1.98521E-001	3.57850E+000	9	...........
	63	0.853333	1.89631E-001	-9.77330E-005	0.00000E+000	-1.85332E-005	-5.99601E-002	1.89658E-001	3.57850E+000	9	...........
	64	0.866667	1.80817E-001	-9.93375E-005	0.00000E+000	-1.79619E-005	-5.99601E-002	1.80847E-001	3.57850E+000	9	...........
	65	0.88	1.72066E-001	-9.91552E-005	0.00000E+000	-1.70613E-005	-5.99601E-002	1.72098E-001	3.57850E+000	9	...........
	66	0.893333	1.63381E-001	-9.90166E-005	0.00000E+000	-1.61774E-005	-5.99601E-002	1.63406E-001	3.57850E+000	9	...........
	67	0.906667	1.54756E-001	-9.93323E-005	0.00000E+000	-1.53722E-005	-5.99601E-002	1.54777E-001	3.57850E+000	9	...........
	68	0.92	1.46191E-001	-9.93667E-005	0.00000E+000	-1.45265E-005	-5.99601E-002	1.46210E-001	3.57850E+000	9	...........
	69	0.933333	1.37696E-001	-9.91635E-005	0.00000E+000	-1.36545E-005	-5.99601E-002	1.37714E-001	3.57850E+000	9	...........
	70	0.946667	1.29267E-001	-9.84821E-005	0.00000E+000	-1.27305E-005	-5.99601E-002	1.29283E-001	3.57850E+000	9	...........
	71	0.96	1.20914E-001	-9.94917E-005	0.00000E+000	-1.20299E-005	-5.99601E-002	1.20930E-001	3.57850E+000	9	...........
	72	0.97333	1.12631E-001	-9.79903E-005	0.00000E+000	-1.10367E-005	-5.99601E-002	1.12647E-001	3.57850E+000	9	...........
	73	0.98667	1.04420E-001	-9.83654E-005	0.00000E+000	-1.02713E-005	-5.99601E-002	1.04431E-001	3.57850E+000	9	...........
	74	1	9.62753E-002	-9.97459E-005	0.00000E+000	-9.60307E-006	-5.99601E-002	9.62874E-002	3.57850E+000	9	...........
	75	1.01333	8.82126E-002	-9.92625E-005	0.00000E+000	-8.75621E-006	-5.99601E-002	8.82212E-002	3.57850E+000	9	...........
	76	1.02667	8.02166E-002	-9.91427E-005	0.00000E+000	-7.95289E-006	-5.99601E-002	8.02177E-002	3.57854E+000	9	...........
	77	1.04	7.22965E-002	-9.85207E-005	0.00000E+000	-7.12270E-006	-5.99601E-002	7.22972E-002	3.57860E+000	9	...........
	78	1.05333	6.44438E-002	-9.90989E-005	0.00000E+000	-6.38631E-006	-5.99601E-002	6.44429E-002	3.57860E+000	9	...........
	79	1.06667	5.66604E-002	-9.92469E-005	0.00000E+000	-5.62336E-006	-5.99601E-002	5.66612E-002	3.57860E+000	9	...........
	80	1.08	4.89648E-002	-9.80935E-005	0.00000E+000	-4.80313E-006	-5.99601E-002	4.89569E-002	3.57860E+000	9	...........
	81	1.09333	4.13417E-002	-9.93177E-005	0.00000E+000	-4.10597E-006	-5.99601E-002	4.13350E-002	3.57860E+000	9	...........
	82	1.10667	3.37622E-002	-9.88353E-005	0.00000E+000	-3.33690E-006	-5.99601E-002	3.37497E-002	3.57860E+000	9	...........
	83	1.12	2.62513E-002	-9.84227E-005	0.00000E+000	-2.58372E-006	-5.99601E-002	2.62325E-002	3.57860E+000	9	...........
	84	1.13333	1.88048E-002	-9.84904E-005	0.00000E+000	-1.85210E-006	-5.99601E-002	1.87845E-002	3.57860E+000	9	...........
	85	1.14667	1.14217E-002	-9.91833E-005	0.00000E+000	-1.13284E-006	-5.99601E-002	1.13992E-002	3.57860E+000	9	...........
	86	1.16	4.11208E-003	-9.87874E-005	0.00000E+000	-4.06222E-007	-5.99601E-002	4.07819E-003	3.57860E+000	9	...........
	87	1.16333	-4.34663E-004	-9.86394E-005	0.00000E+000	4.28750E-008	-5.99601E-002	-4.67406E-004	3.57860E+000	9	...........
STARTTIMEOFFSET	QUANT	1303.035	Start Time Offset (s)
