EXPLAIN
TAG	PWR800_DISCHARGE
TITLE	LABEL	PWR Cyclic Charge Discharge (Cell) - Discharge Step	Test &Identifier
DATE	LABEL	13-7-2017	Date
TIME	LABEL	15:22:19	Time
NOTES	NOTES	2	&Notes...
	supercap test cell
	6M KOH
PSTAT	PSTAT	IFC5000-01520	Potentiostat
CAPACITY	QUANT	1.00000E-003	Capacity (A-hr)
CELLTYPE	SELECTOR	1	&Cell Type
WORKINGCONNECTION	SELECTOR	0	&Working Lead
MAXDISCHARGETIME	VARIABLEANDUNITS	1.00000E+002	s	1.00000E+002	second(s)	Max &Discharge Time
DISCHARGEMODE	MULTIPARAM	0	1.00000E-004	&Discharge Mode	Constant Current	Amp(s)
SAMPLETIME	QUANT	1.00000E-002	Sa&mple Period (s)
DISCHARGESTOPAT1	MULTIPARAM	3	0.00000E+000	Discharge Stop At &1	Voltage < Limit	V
DISCHARGESTOPAT2	MULTIPARAM	0	0.00000E+000	Discharge Stop At &2	None	N/A
AESBHCSELECTOR	TOGGLE	F	Save Both Half Cells
IRCOMP	TOGGLE	F	IR &Measure
EOC	QUANT	0	Open Circuit (V)
SEQUENCER	TOGGLE	TRUE	Run as Sequence
PSTATMODEL	IQUANT	53	Pstat Model
PSTATSECTION	LABEL	IFC5000-01520	Pstat Section
PSTATSERIALNO	LABEL	01520	Pstat Serial Number
CTRLMODE	IQUANT	0	Control Mode
ELECTROMETER	IQUANT	1	RE=0 or CS=1
IESTAB	IQUANT	0	I/E Stability
CASPEED	IQUANT	4	Control Amp Speed
CONVENTION	IQUANT	1	Current Convention
ICHRANGE	IQUANT	2	Ich Range
ICHRANGEMODE	TOGGLE	T	Ich Auto Range
ICHOFFSETENABLE	TOGGLE	F	Ich Offset Enable
ICHOFFSET	QUANT	0	Ich Offset (V)
ICHFILTER	IQUANT	1	Ich Filter
VCHRANGE	IQUANT	2	Vch Range
VCHRANGEMODE	TOGGLE	T	Vch Auto Range
VCHOFFSETENABLE	TOGGLE	F	Vch Offset Enable
VCHOFFSET	QUANT	0	Vch Offset (V)
VCHFILTER	IQUANT	1	Vch Filter
IERANGELOWERLIMIT	IQUANT	9	I/E Range Lower Limit
IERANGEMODE	TOGGLE	F	I/E AutoRange
IERANGE	IQUANT	9	I/E Range
ACHSELECT	IQUANT	1	Ach Select
ACHRANGE	IQUANT	2	Ach Range
ACHOFFSETENABLE	TOGGLE	F	Ach Offset Enable
ACHOFFSET	QUANT	0	Ach Offset (V)
ACHFILTER	IQUANT	1	Ach Filter
CABLEID	IQUANT	14	Cable ID
DCCALDATE	LABEL	5-7-2017	DC Calibration Date
ACCALDATE	LABEL	12/3/2015	AC Calibration Date
FRAMEWORKVERSION	QUANT	7.01	Framework Version
INSTRUMENTVERSION	LABEL	4.00	Instrument Version
CURVE	TABLE	89
	Pt	T	Vf	Im	Vu	Pwr	Sig	Ach	Temp	IERange	Over
	#	s	V	A	V	W	V	V	deg C	#	bits
	0	0.013333	8.50446E-001	-9.90906E-005	0.00000E+000	-8.42712E-005	-5.99601E-002	8.50798E-001	3.57900E+000	9	...........
	1	0.026667	8.36667E-001	-9.87353E-005	0.00000E+000	-8.26085E-005	-5.99601E-002	8.37026E-001	3.57900E+000	9	...........
	2	0.04	8.23755E-001	-9.87884E-005	0.00000E+000	-8.13774E-005	-5.99601E-002	8.24097E-001	3.57900E+000	9	...........
	3	0.053333	8.11405E-001	-9.83206E-005	0.00000E+000	-7.97778E-005	-5.99601E-002	8.11708E-001	3.57900E+000	9	...........
	4	0.066667	7.99479E-001	-9.90937E-005	0.00000E+000	-7.92234E-005	-5.99601E-002	7.99732E-001	3.57900E+000	9	...........
	5	0.08	7.87814E-001	-9.93708E-005	0.00000E+000	-7.82857E-005	-5.99601E-002	7.88070E-001	3.57900E+000	9	...........
	6	0.093333	7.76375E-001	-9.85728E-005	0.00000E+000	-7.65294E-005	-5.99601E-002	7.76646E-001	3.57900E+000	9	...........
	7	0.106667	7.65115E-001	-9.88311E-005	0.00000E+000	-7.56172E-005	-5.99601E-002	7.65377E-001	3.57900E+000	9	...........
	8	0.12	7.53960E-001	-9.88207E-005	0.00000E+000	-7.45069E-005	-5.99601E-002	7.54251E-001	3.57900E+000	9	...........
	9	0.133333	7.42921E-001	-9.86176E-005	0.00000E+000	-7.32651E-005	-5.99601E-002	7.43209E-001	3.57900E+000	9	...........
	10	0.146667	7.31948E-001	-9.87936E-005	0.00000E+000	-7.23118E-005	-5.99601E-002	7.32260E-001	3.57900E+000	9	...........
	11	0.16	7.21049E-001	-9.87040E-005	0.00000E+000	-7.11705E-005	-5.99601E-002	7.21343E-001	3.57900E+000	9	...........
	12	0.173333	7.10155E-001	-9.80195E-005	0.00000E+000	-6.96091E-005	-5.99601E-002	7.10460E-001	3.57900E+000	9	...........
	13	0.186667	6.99340E-001	-9.89958E-005	0.00000E+000	-6.92317E-005	-5.99601E-002	6.99623E-001	3.57900E+000	9	...........
	14	0.2	6.88513E-001	-9.93729E-005	0.00000E+000	-6.84196E-005	-5.99601E-002	6.88818E-001	3.57900E+000	9	...........
	15	0.213333	6.77744E-001	-9.92719E-005	0.00000E+000	-6.72809E-005	-5.99601E-002	6.78043E-001	3.57900E+000	9	...........
	16	0.226667	6.66997E-001	-9.83165E-005	0.00000E+000	-6.55768E-005	-5.99601E-002	6.67298E-001	3.57900E+000	9	...........
	17	0.24	6.56226E-001	-9.94511E-005	0.00000E+000	-6.52624E-005	-5.99601E-002	6.56534E-001	3.57900E+000	9	...........
	18	0.253333	6.45521E-001	-9.88468E-005	0.00000E+000	-6.38077E-005	-5.99601E-002	6.45776E-001	3.57900E+000	9	...........
	19	0.266667	6.34772E-001	-9.89780E-005	0.00000E+000	-6.28285E-005	-5.99601E-002	6.35041E-001	3.57900E+000	9	...........
	20	0.28	6.24097E-001	-9.93427E-005	0.00000E+000	-6.19995E-005	-5.99601E-002	6.24319E-001	3.57900E+000	9	...........
	21	0.293333	6.13387E-001	-9.95594E-005	0.00000E+000	-6.10684E-005	-5.99601E-002	6.13652E-001	3.57900E+000	9	...........
	22	0.306667	6.02707E-001	-9.83654E-005	0.00000E+000	-5.92855E-005	-5.99601E-002	6.02972E-001	3.57900E+000	9	...........
	23	0.32	5.92061E-001	-9.88509E-005	0.00000E+000	-5.85258E-005	-5.99601E-002	5.92343E-001	3.57900E+000	9	...........
	24	0.333333	5.81401E-001	-9.97397E-005	0.00000E+000	-5.79888E-005	-5.99601E-002	5.81683E-001	3.57900E+000	9	...........
	25	0.346667	5.70819E-001	-9.80195E-005	0.00000E+000	-5.59514E-005	-5.99601E-002	5.71077E-001	3.57900E+000	9	...........
	26	0.36	5.60193E-001	-9.92375E-005	0.00000E+000	-5.55922E-005	-5.99601E-002	5.60482E-001	3.57900E+000	9	...........
	27	0.373333	5.49642E-001	-9.96282E-005	0.00000E+000	-5.47598E-005	-5.99601E-002	5.49887E-001	3.57900E+000	9	...........
	28	0.386667	5.39119E-001	-9.89989E-005	0.00000E+000	-5.33722E-005	-5.99601E-002	5.39372E-001	3.57900E+000	9	...........
	29	0.4	5.28584E-001	-9.86301E-005	0.00000E+000	-5.21343E-005	-5.99601E-002	5.28865E-001	3.57900E+000	9	...........
	30	0.413333	5.18129E-001	-9.88478E-005	0.00000E+000	-5.12159E-005	-5.99601E-002	5.18370E-001	3.57900E+000	9	...........
	31	0.426667	5.07655E-001	-9.88791E-005	0.00000E+000	-5.01965E-005	-5.99601E-002	5.07899E-001	3.57900E+000	9	...........
	32	0.44	4.97274E-001	-9.81300E-005	0.00000E+000	-4.87975E-005	-5.99601E-002	4.97511E-001	3.57900E+000	9	...........
	33	0.453333	4.87022E-001	-9.96303E-005	0.00000E+000	-4.85221E-005	-5.99601E-002	4.87196E-001	3.57900E+000	9	...........
	34	0.466667	4.76993E-001	-9.90572E-005	0.00000E+000	-4.72496E-005	-5.99601E-002	4.77097E-001	3.57900E+000	9	...........
	35	0.48	4.66736E-001	-9.87374E-005	0.00000E+000	-4.60843E-005	-5.99601E-002	4.66836E-001	3.57900E+000	9	...........
	36	0.493333	4.56530E-001	-9.94031E-005	0.00000E+000	-4.53805E-005	-5.99601E-002	4.56627E-001	3.57900E+000	9	...........
	37	0.506667	4.46377E-001	-9.96188E-005	0.00000E+000	-4.44675E-005	-5.99601E-002	4.46473E-001	3.57900E+000	9	...........
	38	0.52	4.36277E-001	-9.82987E-005	0.00000E+000	-4.28855E-005	-5.99601E-002	4.36374E-001	3.57900E+000	9	...........
	39	0.533333	4.26241E-001	-9.87915E-005	0.00000E+000	-4.21090E-005	-5.99601E-002	4.26335E-001	3.57900E+000	9	...........
	40	0.546667	4.16251E-001	-9.91833E-005	0.00000E+000	-4.12852E-005	-5.99601E-002	4.16338E-001	3.57900E+000	9	...........
	41	0.56	4.06330E-001	-9.87665E-005	0.00000E+000	-4.01318E-005	-5.99601E-002	4.06410E-001	3.57895E+000	9	...........
	42	0.573333	3.96456E-001	-9.86436E-005	0.00000E+000	-3.91078E-005	-5.99601E-002	3.96536E-001	3.57860E+000	9	...........
	43	0.586667	3.86638E-001	-9.83175E-005	0.00000E+000	-3.80133E-005	-5.99601E-002	3.86715E-001	3.57860E+000	9	...........
	44	0.6	3.76873E-001	-9.88499E-005	0.00000E+000	-3.72539E-005	-5.99601E-002	3.76953E-001	3.57860E+000	9	...........
	45	0.613333	3.67166E-001	-9.96313E-005	0.00000E+000	-3.65813E-005	-5.99601E-002	3.67244E-001	3.57860E+000	9	...........
	46	0.626667	3.57520E-001	-9.90479E-005	0.00000E+000	-3.54115E-005	-5.99601E-002	3.57592E-001	3.57860E+000	9	...........
	47	0.64	3.47924E-001	-9.79778E-005	0.00000E+000	-3.40888E-005	-5.99601E-002	3.47993E-001	3.57860E+000	9	...........
	48	0.653333	3.38384E-001	-9.90812E-005	0.00000E+000	-3.35275E-005	-5.99601E-002	3.38445E-001	3.57860E+000	9	...........
	49	0.666667	3.28895E-001	-9.92125E-005	0.00000E+000	-3.26305E-005	-5.99601E-002	3.28953E-001	3.57860E+000	9	...........
	50	0.68	3.19454E-001	-9.82164E-005	0.00000E+000	-3.13756E-005	-5.99601E-002	3.19513E-001	3.57860E+000	9	...........
	51	0.693333	3.10056E-001	-9.80195E-005	0.00000E+000	-3.03915E-005	-5.99601E-002	3.10113E-001	3.57860E+000	9	...........
	52	0.706667	3.00703E-001	-9.95021E-005	0.00000E+000	-2.99206E-005	-5.99601E-002	3.00765E-001	3.57860E+000	9	...........
	53	0.72	2.91405E-001	-9.89718E-005	0.00000E+000	-2.88409E-005	-5.99601E-002	2.91452E-001	3.57860E+000	9	...........
	54	0.733333	2.82141E-001	-9.89926E-005	0.00000E+000	-2.79299E-005	-5.99601E-002	2.82194E-001	3.57860E+000	9	...........
	55	0.746667	2.72923E-001	-9.84759E-005	0.00000E+000	-2.68763E-005	-5.99601E-002	2.72972E-001	3.57860E+000	9	...........
	56	0.76	2.63746E-001	-9.89280E-005	0.00000E+000	-2.60918E-005	-5.99601E-002	2.63798E-001	3.57860E+000	9	...........
	57	0.773333	2.54618E-001	-9.82623E-005	0.00000E+000	-2.50193E-005	-5.99601E-002	2.54664E-001	3.57860E+000	9	...........
	58	0.786667	2.45533E-001	-9.93698E-005	0.00000E+000	-2.43986E-005	-5.99601E-002	2.45576E-001	3.57860E+000	9	...........
	59	0.8	2.36488E-001	-9.86509E-005	0.00000E+000	-2.33298E-005	-5.99601E-002	2.36532E-001	3.57860E+000	9	...........
	60	0.813333	2.27487E-001	-9.85540E-005	0.00000E+000	-2.24197E-005	-5.99601E-002	2.27528E-001	3.57860E+000	9	...........
	61	0.826667	2.18527E-001	-9.77205E-005	0.00000E+000	-2.13546E-005	-5.99601E-002	2.18566E-001	3.57860E+000	9	...........
	62	0.84	2.09620E-001	-9.90124E-005	0.00000E+000	-2.07549E-005	-5.99601E-002	2.09650E-001	3.57860E+000	9	...........
	63	0.853333	2.00751E-001	-9.85519E-005	0.00000E+000	-1.97844E-005	-5.99601E-002	2.00787E-001	3.57860E+000	9	...........
	64	0.866667	1.91934E-001	-9.82466E-005	0.00000E+000	-1.88568E-005	-5.99601E-002	1.91961E-001	3.57860E+000	9	...........
	65	0.88	1.83165E-001	-9.94615E-005	0.00000E+000	-1.82178E-005	-5.99601E-002	1.83186E-001	3.57860E+000	9	...........
	66	0.893333	1.74451E-001	-9.90228E-005	0.00000E+000	-1.72746E-005	-5.99601E-002	1.74473E-001	3.57860E+000	9	...........
	67	0.906667	1.65790E-001	-9.83790E-005	0.00000E+000	-1.63102E-005	-5.99601E-002	1.65813E-001	3.57860E+000	9	...........
	68	0.92	1.57189E-001	-9.88332E-005	0.00000E+000	-1.55355E-005	-5.99601E-002	1.57208E-001	3.57860E+000	9	...........
	69	0.933333	1.48644E-001	-9.88364E-005	0.00000E+000	-1.46914E-005	-5.99601E-002	1.48658E-001	3.57860E+000	9	...........
	70	0.946667	1.40162E-001	-9.97345E-005	0.00000E+000	-1.39790E-005	-5.99601E-002	1.40175E-001	3.57860E+000	9	...........
	71	0.96	1.31742E-001	-1.00032E-004	0.00000E+000	-1.31785E-005	-5.99601E-002	1.31758E-001	3.57860E+000	9	...........
	72	0.97333	1.23393E-001	-9.88499E-005	0.00000E+000	-1.21973E-005	-5.99601E-002	1.23402E-001	3.57860E+000	9	...........
	73	0.98667	1.15108E-001	-9.93187E-005	0.00000E+000	-1.14324E-005	-5.99601E-002	1.15121E-001	3.57860E+000	9	...........
	74	1	1.06895E-001	-9.88728E-005	0.00000E+000	-1.05690E-005	-5.99601E-002	1.06901E-001	3.57860E+000	9	...........
	75	1.01333	9.87485E-002	-9.82935E-005	0.00000E+000	-9.70634E-006	-5.99601E-002	9.87592E-002	3.57860E+000	9	...........
	76	1.02667	9.06726E-002	-9.89812E-005	0.00000E+000	-8.97488E-006	-5.99601E-002	9.06800E-002	3.57860E+000	9	...........
	77	1.04	8.26650E-002	-9.92250E-005	0.00000E+000	-8.20244E-006	-5.99601E-002	8.26686E-002	3.57860E+000	9	...........
	78	1.05333	7.47402E-002	-9.81737E-005	0.00000E+000	-7.33752E-006	-5.99601E-002	7.47361E-002	3.57860E+000	9	...........
	79	1.06667	6.68718E-002	-9.76226E-005	0.00000E+000	-6.52819E-006	-5.99601E-002	6.68707E-002	3.57860E+000	9	...........
	80	1.08	5.90736E-002	-9.92750E-005	0.00000E+000	-5.86453E-006	-5.99601E-002	5.90700E-002	3.57860E+000	9	...........
	81	1.09333	5.13424E-002	-9.96032E-005	0.00000E+000	-5.11387E-006	-5.99601E-002	5.13415E-002	3.57860E+000	9	...........
	82	1.10667	4.37214E-002	-9.97949E-005	0.00000E+000	-4.36317E-006	-5.99601E-002	4.37107E-002	3.57860E+000	9	...........
	83	1.12	3.61211E-002	-9.93469E-005	0.00000E+000	-3.58852E-006	-5.99601E-002	3.61113E-002	3.57860E+000	9	...........
	84	1.13333	2.85917E-002	-9.89072E-005	0.00000E+000	-2.82792E-006	-5.99601E-002	2.85735E-002	3.57860E+000	9	...........
	85	1.14667	2.11216E-002	-9.91041E-005	0.00000E+000	-2.09324E-006	-5.99601E-002	2.11017E-002	3.57860E+000	9	...........
	86	1.16	1.37114E-002	-9.86082E-005	0.00000E+000	-1.35206E-006	-5.99601E-002	1.36899E-002	3.57860E+000	9	...........
	87	1.17333	6.36952E-003	-9.97167E-005	0.00000E+000	-6.35148E-007	-5.99601E-002	6.34285E-003	3.57860E+000	9	...........
	88	1.18	9.06515E-004	-9.78768E-005	0.00000E+000	-8.87267E-008	-5.99601E-002	8.73038E-004	3.57860E+000	9	...........
STARTTIMEOFFSET	QUANT	918.8988	Start Time Offset (s)
