EXPLAIN
TAG	PWR800_DISCHARGE
TITLE	LABEL	PWR Cyclic Charge Discharge (Cell) - Discharge Step	Test &Identifier
DATE	LABEL	13-7-2017	Date
TIME	LABEL	15:26:25	Time
NOTES	NOTES	2	&Notes...
	supercap test cell
	6M KOH
PSTAT	PSTAT	IFC5000-01520	Potentiostat
CAPACITY	QUANT	1.00000E-003	Capacity (A-hr)
CELLTYPE	SELECTOR	1	&Cell Type
WORKINGCONNECTION	SELECTOR	0	&Working Lead
MAXDISCHARGETIME	VARIABLEANDUNITS	1.00000E+002	s	1.00000E+002	second(s)	Max &Discharge Time
DISCHARGEMODE	MULTIPARAM	0	1.00000E-004	&Discharge Mode	Constant Current	Amp(s)
SAMPLETIME	QUANT	1.00000E-002	Sa&mple Period (s)
DISCHARGESTOPAT1	MULTIPARAM	3	0.00000E+000	Discharge Stop At &1	Voltage < Limit	V
DISCHARGESTOPAT2	MULTIPARAM	0	0.00000E+000	Discharge Stop At &2	None	N/A
AESBHCSELECTOR	TOGGLE	F	Save Both Half Cells
IRCOMP	TOGGLE	F	IR &Measure
EOC	QUANT	0	Open Circuit (V)
SEQUENCER	TOGGLE	TRUE	Run as Sequence
PSTATMODEL	IQUANT	53	Pstat Model
PSTATSECTION	LABEL	IFC5000-01520	Pstat Section
PSTATSERIALNO	LABEL	01520	Pstat Serial Number
CTRLMODE	IQUANT	0	Control Mode
ELECTROMETER	IQUANT	1	RE=0 or CS=1
IESTAB	IQUANT	0	I/E Stability
CASPEED	IQUANT	4	Control Amp Speed
CONVENTION	IQUANT	1	Current Convention
ICHRANGE	IQUANT	2	Ich Range
ICHRANGEMODE	TOGGLE	T	Ich Auto Range
ICHOFFSETENABLE	TOGGLE	F	Ich Offset Enable
ICHOFFSET	QUANT	0	Ich Offset (V)
ICHFILTER	IQUANT	1	Ich Filter
VCHRANGE	IQUANT	2	Vch Range
VCHRANGEMODE	TOGGLE	T	Vch Auto Range
VCHOFFSETENABLE	TOGGLE	F	Vch Offset Enable
VCHOFFSET	QUANT	0	Vch Offset (V)
VCHFILTER	IQUANT	1	Vch Filter
IERANGELOWERLIMIT	IQUANT	9	I/E Range Lower Limit
IERANGEMODE	TOGGLE	F	I/E AutoRange
IERANGE	IQUANT	9	I/E Range
ACHSELECT	IQUANT	1	Ach Select
ACHRANGE	IQUANT	2	Ach Range
ACHOFFSETENABLE	TOGGLE	F	Ach Offset Enable
ACHOFFSET	QUANT	0	Ach Offset (V)
ACHFILTER	IQUANT	1	Ach Filter
CABLEID	IQUANT	14	Cable ID
DCCALDATE	LABEL	5-7-2017	DC Calibration Date
ACCALDATE	LABEL	12/3/2015	AC Calibration Date
FRAMEWORKVERSION	QUANT	7.01	Framework Version
INSTRUMENTVERSION	LABEL	4.00	Instrument Version
CURVE	TABLE	88
	Pt	T	Vf	Im	Vu	Pwr	Sig	Ach	Temp	IERange	Over
	#	s	V	A	V	W	V	V	deg C	#	bits
	0	0.013333	8.45913E-001	-9.85061E-005	0.00000E+000	-8.33276E-005	-5.99601E-002	8.46288E-001	3.57900E+000	9	...........
	1	0.026667	8.32060E-001	-9.82821E-005	0.00000E+000	-8.17766E-005	-5.99601E-002	8.32411E-001	3.57900E+000	9	...........
	2	0.04	8.19039E-001	-9.99012E-005	0.00000E+000	-8.18230E-005	-5.99601E-002	8.19408E-001	3.57900E+000	9	...........
	3	0.053333	8.06581E-001	-1.00123E-004	0.00000E+000	-8.07574E-005	-5.99601E-002	8.06937E-001	3.57900E+000	9	...........
	4	0.066667	7.94563E-001	-9.83133E-005	0.00000E+000	-7.81161E-005	-5.99601E-002	7.94894E-001	3.57900E+000	9	...........
	5	0.08	7.82816E-001	-9.87707E-005	0.00000E+000	-7.73193E-005	-5.99601E-002	7.83121E-001	3.57900E+000	9	...........
	6	0.093333	7.71283E-001	-9.94083E-005	0.00000E+000	-7.66719E-005	-5.99601E-002	7.71577E-001	3.57900E+000	9	...........
	7	0.106667	7.59914E-001	-9.77788E-005	0.00000E+000	-7.43035E-005	-5.99601E-002	7.60199E-001	3.57900E+000	9	...........
	8	0.12	7.48689E-001	-9.90812E-005	0.00000E+000	-7.41810E-005	-5.99601E-002	7.48955E-001	3.57900E+000	9	...........
	9	0.133333	7.37508E-001	-9.92239E-005	0.00000E+000	-7.31784E-005	-5.99601E-002	7.37813E-001	3.57900E+000	9	...........
	10	0.146667	7.26461E-001	-9.84936E-005	0.00000E+000	-7.15518E-005	-5.99601E-002	7.26744E-001	3.57900E+000	9	...........
	11	0.16	7.15416E-001	-9.77559E-005	0.00000E+000	-6.99361E-005	-5.99601E-002	7.15706E-001	3.57900E+000	9	...........
	12	0.173333	7.04433E-001	-9.82987E-005	0.00000E+000	-6.92449E-005	-5.99601E-002	7.04731E-001	3.57900E+000	9	...........
	13	0.186667	6.93503E-001	-9.85759E-005	0.00000E+000	-6.83626E-005	-5.99601E-002	6.93774E-001	3.57900E+000	9	...........
	14	0.2	6.82599E-001	-9.91760E-005	0.00000E+000	-6.76974E-005	-5.99601E-002	6.82863E-001	3.57900E+000	9	...........
	15	0.213333	6.71705E-001	-9.89874E-005	0.00000E+000	-6.64903E-005	-5.99601E-002	6.71965E-001	3.57900E+000	9	...........
	16	0.226667	6.60843E-001	-9.94427E-005	0.00000E+000	-6.57160E-005	-5.99601E-002	6.61099E-001	3.57900E+000	9	...........
	17	0.24	6.49975E-001	-9.88530E-005	0.00000E+000	-6.42520E-005	-5.99601E-002	6.50218E-001	3.57900E+000	9	...........
	18	0.253333	6.39140E-001	-9.90562E-005	0.00000E+000	-6.33108E-005	-5.99601E-002	6.39374E-001	3.57900E+000	9	...........
	19	0.266667	6.28316E-001	-9.89614E-005	0.00000E+000	-6.21790E-005	-5.99601E-002	6.28563E-001	3.57900E+000	9	...........
	20	0.28	6.17537E-001	-9.90426E-005	0.00000E+000	-6.11625E-005	-5.99601E-002	6.17772E-001	3.57900E+000	9	...........
	21	0.293333	6.06712E-001	-9.86332E-005	0.00000E+000	-5.98419E-005	-5.99601E-002	6.06983E-001	3.57900E+000	9	...........
	22	0.306667	5.95980E-001	-9.95261E-005	0.00000E+000	-5.93156E-005	-5.99601E-002	5.96245E-001	3.57900E+000	9	...........
	23	0.32	5.85244E-001	-9.88978E-005	0.00000E+000	-5.78794E-005	-5.99601E-002	5.85507E-001	3.57900E+000	9	...........
	24	0.333333	5.74534E-001	-9.89833E-005	0.00000E+000	-5.68692E-005	-5.99601E-002	5.74782E-001	3.57900E+000	9	...........
	25	0.346667	5.63841E-001	-9.87582E-005	0.00000E+000	-5.56839E-005	-5.99601E-002	5.64105E-001	3.57900E+000	9	...........
	26	0.36	5.53171E-001	-9.90656E-005	0.00000E+000	-5.48002E-005	-5.99601E-002	5.53424E-001	3.57900E+000	9	...........
	27	0.373333	5.42552E-001	-9.85207E-005	0.00000E+000	-5.34526E-005	-5.99601E-002	5.42815E-001	3.57900E+000	9	...........
	28	0.386667	5.31917E-001	-9.88207E-005	0.00000E+000	-5.25644E-005	-5.99601E-002	5.32189E-001	3.57900E+000	9	...........
	29	0.4	5.21373E-001	-9.79143E-005	0.00000E+000	-5.10499E-005	-5.99601E-002	5.21644E-001	3.57900E+000	9	...........
	30	0.413333	5.10869E-001	-9.89499E-005	0.00000E+000	-5.05504E-005	-5.99601E-002	5.11108E-001	3.57900E+000	9	...........
	31	0.426667	5.00359E-001	-9.95323E-005	0.00000E+000	-4.98019E-005	-5.99601E-002	5.00625E-001	3.57900E+000	9	...........
	32	0.44	4.89951E-001	-9.99772E-005	0.00000E+000	-4.89840E-005	-5.99601E-002	4.90204E-001	3.57900E+000	9	...........
	33	0.453333	4.79928E-001	-9.93031E-005	0.00000E+000	-4.76584E-005	-5.99601E-002	4.80003E-001	3.57900E+000	9	...........
	34	0.466667	4.69596E-001	-9.86613E-005	0.00000E+000	-4.63310E-005	-5.99601E-002	4.69698E-001	3.57900E+000	9	...........
	35	0.48	4.59321E-001	-9.90020E-005	0.00000E+000	-4.54737E-005	-5.99601E-002	4.59416E-001	3.57900E+000	9	...........
	36	0.493333	4.49096E-001	-1.00145E-004	0.00000E+000	-4.49747E-005	-5.99601E-002	4.49198E-001	3.57900E+000	9	...........
	37	0.506667	4.38931E-001	-9.79018E-005	0.00000E+000	-4.29721E-005	-5.99601E-002	4.39024E-001	3.57900E+000	9	...........
	38	0.52	4.28818E-001	-9.83560E-005	0.00000E+000	-4.21769E-005	-5.99601E-002	4.28910E-001	3.57900E+000	9	...........
	39	0.533333	4.18768E-001	-9.82435E-005	0.00000E+000	-4.11413E-005	-5.99601E-002	4.18855E-001	3.57900E+000	9	...........
	40	0.546667	4.08777E-001	-9.93208E-005	0.00000E+000	-4.06001E-005	-5.99601E-002	4.08859E-001	3.57900E+000	9	...........
	41	0.56	3.98839E-001	-9.92573E-005	0.00000E+000	-3.95877E-005	-5.99601E-002	3.98920E-001	3.57900E+000	9	...........
	42	0.573333	3.88970E-001	-9.97699E-005	0.00000E+000	-3.88075E-005	-5.99601E-002	3.89045E-001	3.57900E+000	9	...........
	43	0.586667	3.79151E-001	-9.84561E-005	0.00000E+000	-3.73298E-005	-5.99601E-002	3.79223E-001	3.57900E+000	9	...........
	44	0.6	3.69387E-001	-9.90593E-005	0.00000E+000	-3.65912E-005	-5.99601E-002	3.69465E-001	3.57935E+000	9	...........
	45	0.613333	3.59687E-001	-9.86019E-005	0.00000E+000	-3.54658E-005	-5.99601E-002	3.59756E-001	3.57970E+000	9	...........
	46	0.626667	3.50037E-001	-9.87082E-005	0.00000E+000	-3.45515E-005	-5.99601E-002	3.50106E-001	3.57970E+000	9	...........
	47	0.64	3.40442E-001	-9.92479E-005	0.00000E+000	-3.37881E-005	-5.99601E-002	3.40506E-001	3.57970E+000	9	...........
	48	0.653333	3.30893E-001	-9.88937E-005	0.00000E+000	-3.27232E-005	-5.99601E-002	3.30959E-001	3.57970E+000	9	...........
	49	0.666667	3.21408E-001	-9.88884E-005	0.00000E+000	-3.17836E-005	-5.99601E-002	3.21473E-001	3.57970E+000	9	...........
	50	0.68	3.11964E-001	-9.91104E-005	0.00000E+000	-3.09189E-005	-5.99601E-002	3.12025E-001	3.57970E+000	9	...........
	51	0.693333	3.02569E-001	-9.86853E-005	0.00000E+000	-2.98591E-005	-5.99601E-002	3.02633E-001	3.57970E+000	9	...........
	52	0.706667	2.93223E-001	-9.84602E-005	0.00000E+000	-2.88708E-005	-5.99601E-002	2.93286E-001	3.57970E+000	9	...........
	53	0.72	2.83929E-001	-9.88249E-005	0.00000E+000	-2.80593E-005	-5.99601E-002	2.83984E-001	3.57970E+000	9	...........
	54	0.733333	2.74675E-001	-9.79820E-005	0.00000E+000	-2.69132E-005	-5.99601E-002	2.74731E-001	3.57970E+000	9	...........
	55	0.746667	2.65475E-001	-9.78539E-005	0.00000E+000	-2.59777E-005	-5.99601E-002	2.65523E-001	3.57970E+000	9	...........
	56	0.76	2.56308E-001	-9.86655E-005	0.00000E+000	-2.52888E-005	-5.99601E-002	2.56360E-001	3.57970E+000	9	...........
	57	0.773333	2.47196E-001	-9.91854E-005	0.00000E+000	-2.45182E-005	-5.99601E-002	2.47243E-001	3.57970E+000	9	...........
	58	0.786667	2.38118E-001	-9.85728E-005	0.00000E+000	-2.34719E-005	-5.99601E-002	2.38164E-001	3.57970E+000	9	...........
	59	0.8	2.29091E-001	-9.90781E-005	0.00000E+000	-2.26979E-005	-5.99601E-002	2.29135E-001	3.57970E+000	9	...........
	60	0.813333	2.20103E-001	-9.95240E-005	0.00000E+000	-2.19055E-005	-5.99601E-002	2.20145E-001	3.57970E+000	9	...........
	61	0.826667	2.11166E-001	-9.92729E-005	0.00000E+000	-2.09631E-005	-5.99601E-002	2.11203E-001	3.57970E+000	9	...........
	62	0.84	2.02279E-001	-9.92510E-005	0.00000E+000	-2.00764E-005	-5.99601E-002	2.02310E-001	3.57970E+000	9	...........
	63	0.853333	1.93438E-001	-9.82414E-005	0.00000E+000	-1.90037E-005	-5.99601E-002	1.93473E-001	3.57970E+000	9	...........
	64	0.866667	1.84650E-001	-9.91052E-005	0.00000E+000	-1.82997E-005	-5.99601E-002	1.84680E-001	3.57970E+000	9	...........
	65	0.88	1.75917E-001	-9.87613E-005	0.00000E+000	-1.73738E-005	-5.99601E-002	1.75945E-001	3.57970E+000	9	...........
	66	0.893333	1.67240E-001	-9.82414E-005	0.00000E+000	-1.64299E-005	-5.99601E-002	1.67265E-001	3.57970E+000	9	...........
	67	0.906667	1.58621E-001	-9.85571E-005	0.00000E+000	-1.56333E-005	-5.99601E-002	1.58646E-001	3.57970E+000	9	...........
	68	0.92	1.50066E-001	-1.00255E-004	0.00000E+000	-1.50449E-005	-5.99601E-002	1.50084E-001	3.57970E+000	9	...........
	69	0.933333	1.41577E-001	-9.86155E-005	0.00000E+000	-1.39617E-005	-5.99601E-002	1.41590E-001	3.57970E+000	9	...........
	70	0.946667	1.33150E-001	-9.93479E-005	0.00000E+000	-1.32282E-005	-5.99601E-002	1.33164E-001	3.57970E+000	9	...........
	71	0.96	1.24790E-001	-9.87520E-005	0.00000E+000	-1.23232E-005	-5.99601E-002	1.24803E-001	3.57970E+000	9	...........
	72	0.97333	1.16505E-001	-9.86228E-005	0.00000E+000	-1.14901E-005	-5.99601E-002	1.16518E-001	3.57970E+000	9	...........
	73	0.98667	1.08286E-001	-9.83769E-005	0.00000E+000	-1.06529E-005	-5.99601E-002	1.08292E-001	3.57970E+000	9	...........
	74	1	1.00134E-001	-9.97407E-005	0.00000E+000	-9.98744E-006	-5.99601E-002	1.00149E-001	3.57970E+000	9	...........
	75	1.01333	9.20630E-002	-9.90103E-005	0.00000E+000	-9.11519E-006	-5.99601E-002	9.20722E-002	3.57970E+000	9	...........
	76	1.02667	8.40557E-002	-9.80070E-005	0.00000E+000	-8.23805E-006	-5.99601E-002	8.40658E-002	3.57970E+000	9	...........
	77	1.04	7.61271E-002	-9.94813E-005	0.00000E+000	-7.57322E-006	-5.99601E-002	7.61297E-002	3.57970E+000	9	...........
	78	1.05333	6.82618E-002	-9.80820E-005	0.00000E+000	-6.69526E-006	-5.99601E-002	6.82617E-002	3.57970E+000	9	...........
	79	1.06667	6.04661E-002	-9.91031E-005	0.00000E+000	-5.99237E-006	-5.99601E-002	6.04598E-002	3.57970E+000	9	...........
	80	1.08	5.27392E-002	-9.86811E-005	0.00000E+000	-5.20437E-006	-5.99601E-002	5.27339E-002	3.57970E+000	9	...........
	81	1.09333	4.51086E-002	-9.94698E-005	0.00000E+000	-4.48695E-006	-5.99601E-002	4.51087E-002	3.57970E+000	9	...........
	82	1.10667	3.75308E-002	-9.84800E-005	0.00000E+000	-3.69603E-006	-5.99601E-002	3.75192E-002	3.57970E+000	9	...........
	83	1.12	3.00003E-002	-9.84925E-005	0.00000E+000	-2.95480E-006	-5.99601E-002	2.99870E-002	3.57970E+000	9	...........
	84	1.13333	2.25342E-002	-9.88426E-005	0.00000E+000	-2.22734E-006	-5.99601E-002	2.25157E-002	3.57970E+000	9	...........
	85	1.14667	1.51395E-002	-9.85040E-005	0.00000E+000	-1.49130E-006	-5.99601E-002	1.51129E-002	3.57970E+000	9	...........
	86	1.16	7.80129E-003	-9.94469E-005	0.00000E+000	-7.75814E-007	-5.99601E-002	7.77190E-003	3.57970E+000	9	...........
	87	1.17	1.43308E-003	-9.96591E-005	0.00000E+000	-1.42819E-007	-5.99601E-002	1.40530E-003	3.57970E+000	9	...........
STARTTIMEOFFSET	QUANT	1104.527	Start Time Offset (s)
