EXPLAIN
TAG	PWR800_DISCHARGE
TITLE	LABEL	PWR Cyclic Charge Discharge (Cell) - Discharge Step	Test &Identifier
DATE	LABEL	13-7-2017	Date
TIME	LABEL	15:30:30	Time
NOTES	NOTES	2	&Notes...
	supercap test cell
	6M KOH
PSTAT	PSTAT	IFC5000-01520	Potentiostat
CAPACITY	QUANT	1.00000E-003	Capacity (A-hr)
CELLTYPE	SELECTOR	1	&Cell Type
WORKINGCONNECTION	SELECTOR	0	&Working Lead
MAXDISCHARGETIME	VARIABLEANDUNITS	1.00000E+002	s	1.00000E+002	second(s)	Max &Discharge Time
DISCHARGEMODE	MULTIPARAM	0	1.00000E-004	&Discharge Mode	Constant Current	Amp(s)
SAMPLETIME	QUANT	1.00000E-002	Sa&mple Period (s)
DISCHARGESTOPAT1	MULTIPARAM	3	0.00000E+000	Discharge Stop At &1	Voltage < Limit	V
DISCHARGESTOPAT2	MULTIPARAM	0	0.00000E+000	Discharge Stop At &2	None	N/A
AESBHCSELECTOR	TOGGLE	F	Save Both Half Cells
IRCOMP	TOGGLE	F	IR &Measure
EOC	QUANT	0	Open Circuit (V)
SEQUENCER	TOGGLE	TRUE	Run as Sequence
PSTATMODEL	IQUANT	53	Pstat Model
PSTATSECTION	LABEL	IFC5000-01520	Pstat Section
PSTATSERIALNO	LABEL	01520	Pstat Serial Number
CTRLMODE	IQUANT	0	Control Mode
ELECTROMETER	IQUANT	1	RE=0 or CS=1
IESTAB	IQUANT	0	I/E Stability
CASPEED	IQUANT	4	Control Amp Speed
CONVENTION	IQUANT	1	Current Convention
ICHRANGE	IQUANT	2	Ich Range
ICHRANGEMODE	TOGGLE	T	Ich Auto Range
ICHOFFSETENABLE	TOGGLE	F	Ich Offset Enable
ICHOFFSET	QUANT	0	Ich Offset (V)
ICHFILTER	IQUANT	1	Ich Filter
VCHRANGE	IQUANT	2	Vch Range
VCHRANGEMODE	TOGGLE	T	Vch Auto Range
VCHOFFSETENABLE	TOGGLE	F	Vch Offset Enable
VCHOFFSET	QUANT	0	Vch Offset (V)
VCHFILTER	IQUANT	1	Vch Filter
IERANGELOWERLIMIT	IQUANT	9	I/E Range Lower Limit
IERANGEMODE	TOGGLE	F	I/E AutoRange
IERANGE	IQUANT	9	I/E Range
ACHSELECT	IQUANT	1	Ach Select
ACHRANGE	IQUANT	2	Ach Range
ACHOFFSETENABLE	TOGGLE	F	Ach Offset Enable
ACHOFFSET	QUANT	0	Ach Offset (V)
ACHFILTER	IQUANT	1	Ach Filter
CABLEID	IQUANT	14	Cable ID
DCCALDATE	LABEL	5-7-2017	DC Calibration Date
ACCALDATE	LABEL	12/3/2015	AC Calibration Date
FRAMEWORKVERSION	QUANT	7.01	Framework Version
INSTRUMENTVERSION	LABEL	4.00	Instrument Version
CURVE	TABLE	88
	Pt	T	Vf	Im	Vu	Pwr	Sig	Ach	Temp	IERange	Over
	#	s	V	A	V	W	V	V	deg C	#	bits
	0	0.013333	8.49018E-001	-9.81393E-005	0.00000E+000	-8.33220E-005	-5.99601E-002	8.49326E-001	3.57870E+000	9	...........
	1	0.026667	8.35015E-001	-9.85801E-005	0.00000E+000	-8.23158E-005	-5.99601E-002	8.35290E-001	3.57870E+000	9	...........
	2	0.04	8.21839E-001	-9.89697E-005	0.00000E+000	-8.13372E-005	-5.99601E-002	8.22156E-001	3.57870E+000	9	...........
	3	0.053333	8.09269E-001	-9.85936E-005	0.00000E+000	-7.97888E-005	-5.99601E-002	8.09542E-001	3.57870E+000	9	...........
	4	0.066667	7.97114E-001	-9.87030E-005	0.00000E+000	-7.86775E-005	-5.99601E-002	7.97380E-001	3.57870E+000	9	...........
	5	0.08	7.85224E-001	-9.88436E-005	0.00000E+000	-7.76144E-005	-5.99601E-002	7.85504E-001	3.57870E+000	9	...........
	6	0.093333	7.73559E-001	-9.90874E-005	0.00000E+000	-7.66499E-005	-5.99601E-002	7.73852E-001	3.57870E+000	9	...........
	7	0.106667	7.62049E-001	-9.93094E-005	0.00000E+000	-7.56786E-005	-5.99601E-002	7.62325E-001	3.57870E+000	9	...........
	8	0.12	7.50673E-001	-9.95334E-005	0.00000E+000	-7.47170E-005	-5.99601E-002	7.50962E-001	3.57870E+000	9	...........
	9	0.133333	7.39383E-001	-9.87603E-005	0.00000E+000	-7.30217E-005	-5.99601E-002	7.39670E-001	3.57870E+000	9	...........
	10	0.146667	7.28193E-001	-9.89082E-005	0.00000E+000	-7.20243E-005	-5.99601E-002	7.28456E-001	3.57870E+000	9	...........
	11	0.16	7.17024E-001	-9.90176E-005	0.00000E+000	-7.09980E-005	-5.99601E-002	7.17279E-001	3.57870E+000	9	...........
	12	0.173333	7.05935E-001	-9.82748E-005	0.00000E+000	-6.93756E-005	-5.99601E-002	7.06168E-001	3.57870E+000	9	...........
	13	0.186667	6.94846E-001	-9.81539E-005	0.00000E+000	-6.82018E-005	-5.99601E-002	6.95110E-001	3.57870E+000	9	...........
	14	0.2	6.83815E-001	-9.90333E-005	0.00000E+000	-6.77205E-005	-5.99601E-002	6.84074E-001	3.57870E+000	9	...........
	15	0.213333	6.72816E-001	-9.87645E-005	0.00000E+000	-6.64503E-005	-5.99601E-002	6.73068E-001	3.57870E+000	9	...........
	16	0.226667	6.61801E-001	-9.90760E-005	0.00000E+000	-6.55686E-005	-5.99601E-002	6.62067E-001	3.57870E+000	9	...........
	17	0.24	6.50837E-001	-9.93646E-005	0.00000E+000	-6.46701E-005	-5.99601E-002	6.51091E-001	3.57870E+000	9	...........
	18	0.253333	6.39862E-001	-9.87624E-005	0.00000E+000	-6.31943E-005	-5.99601E-002	6.40132E-001	3.57870E+000	9	...........
	19	0.266667	6.28925E-001	-9.92698E-005	0.00000E+000	-6.24333E-005	-5.99601E-002	6.29182E-001	3.57870E+000	9	...........
	20	0.28	6.18029E-001	-9.95240E-005	0.00000E+000	-6.15087E-005	-5.99601E-002	6.18272E-001	3.57870E+000	9	...........
	21	0.293333	6.07031E-001	-9.90156E-005	0.00000E+000	-6.01055E-005	-5.99601E-002	6.07356E-001	3.57870E+000	9	...........
	22	0.306667	5.96204E-001	-9.82487E-005	0.00000E+000	-5.85763E-005	-5.99601E-002	5.96477E-001	3.57870E+000	9	...........
	23	0.32	5.85315E-001	-9.85696E-005	0.00000E+000	-5.76943E-005	-5.99601E-002	5.85613E-001	3.57870E+000	9	...........
	24	0.333333	5.74514E-001	-9.89885E-005	0.00000E+000	-5.68702E-005	-5.99601E-002	5.74767E-001	3.57870E+000	9	...........
	25	0.346667	5.63700E-001	-9.96334E-005	0.00000E+000	-5.61633E-005	-5.99601E-002	5.63959E-001	3.57870E+000	9	...........
	26	0.36	5.52910E-001	-9.90760E-005	0.00000E+000	-5.47801E-005	-5.99601E-002	5.53171E-001	3.57870E+000	9	...........
	27	0.373333	5.42178E-001	-9.85957E-005	0.00000E+000	-5.34564E-005	-5.99601E-002	5.42432E-001	3.57870E+000	9	...........
	28	0.386667	5.31445E-001	-9.88447E-005	0.00000E+000	-5.25305E-005	-5.99601E-002	5.31714E-001	3.57870E+000	9	...........
	29	0.4	5.20799E-001	-9.94292E-005	0.00000E+000	-5.17826E-005	-5.99601E-002	5.21044E-001	3.57870E+000	9	...........
	30	0.413333	5.10156E-001	-9.80153E-005	0.00000E+000	-5.00031E-005	-5.99601E-002	5.10395E-001	3.57870E+000	9	...........
	31	0.426667	4.99574E-001	-9.89197E-005	0.00000E+000	-4.94177E-005	-5.99601E-002	4.99811E-001	3.57870E+000	9	...........
	32	0.44	4.89045E-001	-9.90114E-005	0.00000E+000	-4.84210E-005	-5.99601E-002	4.89299E-001	3.57870E+000	9	...........
	33	0.453333	4.78940E-001	-9.86582E-005	0.00000E+000	-4.72513E-005	-5.99601E-002	4.79040E-001	3.57870E+000	9	...........
	34	0.466667	4.68517E-001	-9.89593E-005	0.00000E+000	-4.63641E-005	-5.99601E-002	4.68614E-001	3.57870E+000	9	...........
	35	0.48	4.58152E-001	-9.90385E-005	0.00000E+000	-4.53747E-005	-5.99601E-002	4.58243E-001	3.57870E+000	9	...........
	36	0.493333	4.47840E-001	-9.95365E-005	0.00000E+000	-4.45764E-005	-5.99601E-002	4.47935E-001	3.57870E+000	9	...........
	37	0.506667	4.37597E-001	-9.95719E-005	0.00000E+000	-4.35723E-005	-5.99601E-002	4.37686E-001	3.57870E+000	9	...........
	38	0.52	4.27406E-001	-9.91802E-005	0.00000E+000	-4.23902E-005	-5.99601E-002	4.27498E-001	3.57870E+000	9	...........
	39	0.533333	4.17286E-001	-9.86947E-005	0.00000E+000	-4.11839E-005	-5.99601E-002	4.17373E-001	3.57870E+000	9	...........
	40	0.546667	4.07224E-001	-9.94136E-005	0.00000E+000	-4.04835E-005	-5.99601E-002	4.07310E-001	3.57870E+000	9	...........
	41	0.56	3.97226E-001	-9.91916E-005	0.00000E+000	-3.94015E-005	-5.99601E-002	3.97306E-001	3.57870E+000	9	...........
	42	0.573333	3.87284E-001	-9.91687E-005	0.00000E+000	-3.84065E-005	-5.99601E-002	3.87364E-001	3.57870E+000	9	...........
	43	0.586667	3.77412E-001	-9.86749E-005	0.00000E+000	-3.72411E-005	-5.99601E-002	3.77485E-001	3.57870E+000	9	...........
	44	0.6	3.67588E-001	-9.85936E-005	0.00000E+000	-3.62418E-005	-5.99601E-002	3.67666E-001	3.57870E+000	9	...........
	45	0.613333	3.57830E-001	-9.91479E-005	0.00000E+000	-3.54781E-005	-5.99601E-002	3.57901E-001	3.57870E+000	9	...........
	46	0.626667	3.48128E-001	-9.86540E-005	0.00000E+000	-3.43442E-005	-5.99601E-002	3.48192E-001	3.57870E+000	9	...........
	47	0.64	3.38471E-001	-9.94031E-005	0.00000E+000	-3.36451E-005	-5.99601E-002	3.38538E-001	3.57870E+000	9	...........
	48	0.653333	3.28875E-001	-9.94302E-005	0.00000E+000	-3.27002E-005	-5.99601E-002	3.28938E-001	3.57870E+000	9	...........
	49	0.666667	3.19330E-001	-9.93719E-005	0.00000E+000	-3.17325E-005	-5.99601E-002	3.19398E-001	3.57870E+000	9	...........
	50	0.68	3.09839E-001	-9.91875E-005	0.00000E+000	-3.07321E-005	-5.99601E-002	3.09900E-001	3.57870E+000	9	...........
	51	0.693333	3.00397E-001	-9.96959E-005	0.00000E+000	-2.99483E-005	-5.99601E-002	3.00454E-001	3.57870E+000	9	...........
	52	0.706667	2.91005E-001	-9.82550E-005	0.00000E+000	-2.85927E-005	-5.99601E-002	2.91059E-001	3.57870E+000	9	...........
	53	0.72	2.81660E-001	-9.91656E-005	0.00000E+000	-2.79310E-005	-5.99601E-002	2.81709E-001	3.57870E+000	9	...........
	54	0.733333	2.72365E-001	-9.86978E-005	0.00000E+000	-2.68818E-005	-5.99601E-002	2.72411E-001	3.57870E+000	9	...........
	55	0.746667	2.63109E-001	-9.82185E-005	0.00000E+000	-2.58421E-005	-5.99601E-002	2.63162E-001	3.57870E+000	9	...........
	56	0.76	2.53913E-001	-9.88489E-005	0.00000E+000	-2.50990E-005	-5.99601E-002	2.53959E-001	3.57870E+000	9	...........
	57	0.773333	2.44756E-001	-9.92760E-005	0.00000E+000	-2.42984E-005	-5.99601E-002	2.44796E-001	3.57870E+000	9	...........
	58	0.786667	2.35647E-001	-9.85394E-005	0.00000E+000	-2.32206E-005	-5.99601E-002	2.35685E-001	3.57870E+000	9	...........
	59	0.8	2.26576E-001	-9.94490E-005	0.00000E+000	-2.25328E-005	-5.99601E-002	2.26619E-001	3.57870E+000	9	...........
	60	0.813333	2.17559E-001	-9.87103E-005	0.00000E+000	-2.14753E-005	-5.99601E-002	2.17594E-001	3.57870E+000	9	...........
	61	0.826667	2.08593E-001	-9.86415E-005	0.00000E+000	-2.05759E-005	-5.99601E-002	2.08628E-001	3.57870E+000	9	...........
	62	0.84	1.99675E-001	-9.89374E-005	0.00000E+000	-1.97553E-005	-5.99601E-002	1.99711E-001	3.57870E+000	9	...........
	63	0.853333	1.90805E-001	-9.85946E-005	0.00000E+000	-1.88123E-005	-5.99601E-002	1.90837E-001	3.57870E+000	9	...........
	64	0.866667	1.81995E-001	-9.85113E-005	0.00000E+000	-1.79285E-005	-5.99601E-002	1.82024E-001	3.57870E+000	9	...........
	65	0.88	1.73240E-001	-9.86394E-005	0.00000E+000	-1.70883E-005	-5.99601E-002	1.73259E-001	3.57870E+000	9	...........
	66	0.893333	1.64538E-001	-9.86613E-005	0.00000E+000	-1.62336E-005	-5.99601E-002	1.64561E-001	3.57870E+000	9	...........
	67	0.906667	1.55901E-001	-9.91604E-005	0.00000E+000	-1.54592E-005	-5.99601E-002	1.55916E-001	3.57870E+000	9	...........
	68	0.92	1.47327E-001	-9.89364E-005	0.00000E+000	-1.45760E-005	-5.99601E-002	1.47342E-001	3.57870E+000	9	...........
	69	0.933333	1.38818E-001	-9.84529E-005	0.00000E+000	-1.36670E-005	-5.99601E-002	1.38838E-001	3.57870E+000	9	...........
	70	0.946667	1.30382E-001	-9.87686E-005	0.00000E+000	-1.28777E-005	-5.99601E-002	1.30397E-001	3.57870E+000	9	...........
	71	0.96	1.22013E-001	-9.88874E-005	0.00000E+000	-1.20656E-005	-5.99601E-002	1.22026E-001	3.57877E+000	9	...........
	72	0.97333	1.13721E-001	-9.85811E-005	0.00000E+000	-1.12107E-005	-5.99601E-002	1.13732E-001	3.57930E+000	9	...........
	73	0.98667	1.05507E-001	-9.78664E-005	0.00000E+000	-1.03256E-005	-5.99601E-002	1.05510E-001	3.57930E+000	9	...........
	74	1	9.73528E-002	-9.89291E-005	0.00000E+000	-9.63102E-006	-5.99601E-002	9.73654E-002	3.57930E+000	9	...........
	75	1.01333	8.92784E-002	-9.83852E-005	0.00000E+000	-8.78367E-006	-5.99601E-002	8.92906E-002	3.57930E+000	9	...........
	76	1.02667	8.12762E-002	-9.80081E-005	0.00000E+000	-7.96572E-006	-5.99601E-002	8.12821E-002	3.57930E+000	9	...........
	77	1.04	7.33456E-002	-9.88791E-005	0.00000E+000	-7.25235E-006	-5.99601E-002	7.33409E-002	3.57930E+000	9	...........
	78	1.05333	6.54737E-002	-9.90916E-005	0.00000E+000	-6.48789E-006	-5.99601E-002	6.54757E-002	3.57930E+000	9	...........
	79	1.06667	5.76838E-002	-9.82664E-005	0.00000E+000	-5.66838E-006	-5.99601E-002	5.76830E-002	3.57930E+000	9	...........
	80	1.08	4.99663E-002	-9.93510E-005	0.00000E+000	-4.96421E-006	-5.99601E-002	4.99630E-002	3.57930E+000	9	...........
	81	1.09333	4.23393E-002	-9.89760E-005	0.00000E+000	-4.19058E-006	-5.99601E-002	4.23338E-002	3.57930E+000	9	...........
	82	1.10667	3.47544E-002	-9.80414E-005	0.00000E+000	-3.40737E-006	-5.99601E-002	3.47411E-002	3.57930E+000	9	...........
	83	1.12	2.72350E-002	-9.86280E-005	0.00000E+000	-2.68613E-006	-5.99601E-002	2.72175E-002	3.57930E+000	9	...........
	84	1.13333	1.97829E-002	-9.98063E-005	0.00000E+000	-1.97445E-006	-5.99601E-002	1.97596E-002	3.57930E+000	9	...........
	85	1.14667	1.23903E-002	-9.91875E-005	0.00000E+000	-1.22896E-006	-5.99601E-002	1.23679E-002	3.57930E+000	9	...........
	86	1.16	5.07055E-003	-9.86509E-005	0.00000E+000	-5.00215E-007	-5.99601E-002	5.04126E-003	3.57930E+000	9	...........
	87	1.165	6.67392E-005	-1.00080E-004	0.00000E+000	-6.67926E-009	-5.99601E-002	3.60454E-005	3.57930E+000	9	...........
STARTTIMEOFFSET	QUANT	1288.731	Start Time Offset (s)
