EXPLAIN
TAG	PWR800_DISCHARGE
TITLE	LABEL	PWR Cyclic Charge Discharge (Cell) - Discharge Step	Test &Identifier
DATE	LABEL	13-7-2017	Date
TIME	LABEL	15:24:01	Time
NOTES	NOTES	2	&Notes...
	supercap test cell
	6M KOH
PSTAT	PSTAT	IFC5000-01520	Potentiostat
CAPACITY	QUANT	1.00000E-003	Capacity (A-hr)
CELLTYPE	SELECTOR	1	&Cell Type
WORKINGCONNECTION	SELECTOR	0	&Working Lead
MAXDISCHARGETIME	VARIABLEANDUNITS	1.00000E+002	s	1.00000E+002	second(s)	Max &Discharge Time
DISCHARGEMODE	MULTIPARAM	0	1.00000E-004	&Discharge Mode	Constant Current	Amp(s)
SAMPLETIME	QUANT	1.00000E-002	Sa&mple Period (s)
DISCHARGESTOPAT1	MULTIPARAM	3	0.00000E+000	Discharge Stop At &1	Voltage < Limit	V
DISCHARGESTOPAT2	MULTIPARAM	0	0.00000E+000	Discharge Stop At &2	None	N/A
AESBHCSELECTOR	TOGGLE	F	Save Both Half Cells
IRCOMP	TOGGLE	F	IR &Measure
EOC	QUANT	0	Open Circuit (V)
SEQUENCER	TOGGLE	TRUE	Run as Sequence
PSTATMODEL	IQUANT	53	Pstat Model
PSTATSECTION	LABEL	IFC5000-01520	Pstat Section
PSTATSERIALNO	LABEL	01520	Pstat Serial Number
CTRLMODE	IQUANT	0	Control Mode
ELECTROMETER	IQUANT	1	RE=0 or CS=1
IESTAB	IQUANT	0	I/E Stability
CASPEED	IQUANT	4	Control Amp Speed
CONVENTION	IQUANT	1	Current Convention
ICHRANGE	IQUANT	2	Ich Range
ICHRANGEMODE	TOGGLE	T	Ich Auto Range
ICHOFFSETENABLE	TOGGLE	F	Ich Offset Enable
ICHOFFSET	QUANT	0	Ich Offset (V)
ICHFILTER	IQUANT	1	Ich Filter
VCHRANGE	IQUANT	2	Vch Range
VCHRANGEMODE	TOGGLE	T	Vch Auto Range
VCHOFFSETENABLE	TOGGLE	F	Vch Offset Enable
VCHOFFSET	QUANT	0	Vch Offset (V)
VCHFILTER	IQUANT	1	Vch Filter
IERANGELOWERLIMIT	IQUANT	9	I/E Range Lower Limit
IERANGEMODE	TOGGLE	F	I/E AutoRange
IERANGE	IQUANT	9	I/E Range
ACHSELECT	IQUANT	1	Ach Select
ACHRANGE	IQUANT	2	Ach Range
ACHOFFSETENABLE	TOGGLE	F	Ach Offset Enable
ACHOFFSET	QUANT	0	Ach Offset (V)
ACHFILTER	IQUANT	1	Ach Filter
CABLEID	IQUANT	14	Cable ID
DCCALDATE	LABEL	5-7-2017	DC Calibration Date
ACCALDATE	LABEL	12/3/2015	AC Calibration Date
FRAMEWORKVERSION	QUANT	7.01	Framework Version
INSTRUMENTVERSION	LABEL	4.00	Instrument Version
CURVE	TABLE	89
	Pt	T	Vf	Im	Vu	Pwr	Sig	Ach	Temp	IERange	Over
	#	s	V	A	V	W	V	V	deg C	#	bits
	0	0.013333	8.51028E-001	-9.91312E-005	0.00000E+000	-8.43635E-005	-5.99601E-002	8.51378E-001	3.57890E+000	9	...........
	1	0.026667	8.37211E-001	-9.77872E-005	0.00000E+000	-8.18685E-005	-5.99601E-002	8.37560E-001	3.57890E+000	9	...........
	2	0.04	8.24271E-001	-9.86769E-005	0.00000E+000	-8.13366E-005	-5.99601E-002	8.24601E-001	3.57890E+000	9	...........
	3	0.053333	8.11849E-001	-9.82039E-005	0.00000E+000	-7.97268E-005	-5.99601E-002	8.12193E-001	3.57890E+000	9	...........
	4	0.066667	7.99907E-001	-9.87530E-005	0.00000E+000	-7.89932E-005	-5.99601E-002	8.00193E-001	3.57890E+000	9	...........
	5	0.08	7.88171E-001	-9.96386E-005	0.00000E+000	-7.85323E-005	-5.99601E-002	7.88489E-001	3.57890E+000	9	...........
	6	0.093333	7.76668E-001	-9.84790E-005	0.00000E+000	-7.64855E-005	-5.99601E-002	7.76995E-001	3.57890E+000	9	...........
	7	0.106667	7.65339E-001	-9.86842E-005	0.00000E+000	-7.55269E-005	-5.99601E-002	7.65669E-001	3.57890E+000	9	...........
	8	0.12	7.54154E-001	-9.86040E-005	0.00000E+000	-7.43626E-005	-5.99601E-002	7.54462E-001	3.57890E+000	9	...........
	9	0.133333	7.43045E-001	-9.92229E-005	0.00000E+000	-7.37271E-005	-5.99601E-002	7.43340E-001	3.57890E+000	9	...........
	10	0.146667	7.32014E-001	-9.84832E-005	0.00000E+000	-7.20911E-005	-5.99601E-002	7.32338E-001	3.57890E+000	9	...........
	11	0.16	7.21058E-001	-9.94094E-005	0.00000E+000	-7.16799E-005	-5.99601E-002	7.21364E-001	3.57890E+000	9	...........
	12	0.173333	7.10103E-001	-9.87801E-005	0.00000E+000	-7.01440E-005	-5.99601E-002	7.10426E-001	3.57890E+000	9	...........
	13	0.186667	6.99230E-001	-9.85478E-005	0.00000E+000	-6.89075E-005	-5.99601E-002	6.99538E-001	3.57890E+000	9	...........
	14	0.2	6.88357E-001	-9.86644E-005	0.00000E+000	-6.79164E-005	-5.99601E-002	6.88672E-001	3.57890E+000	9	...........
	15	0.213333	6.77552E-001	-9.81164E-005	0.00000E+000	-6.64790E-005	-5.99601E-002	6.77848E-001	3.57890E+000	9	...........
	16	0.226667	6.66724E-001	-9.93062E-005	0.00000E+000	-6.62099E-005	-5.99601E-002	6.67024E-001	3.57890E+000	9	...........
	17	0.24	6.55921E-001	-9.98074E-005	0.00000E+000	-6.54658E-005	-5.99601E-002	6.56213E-001	3.57890E+000	9	...........
	18	0.253333	6.45139E-001	-9.92969E-005	0.00000E+000	-6.40602E-005	-5.99601E-002	6.45431E-001	3.57890E+000	9	...........
	19	0.266667	6.34351E-001	-9.84717E-005	0.00000E+000	-6.24656E-005	-5.99601E-002	6.34652E-001	3.57890E+000	9	...........
	20	0.28	6.23616E-001	-9.87520E-005	0.00000E+000	-6.15833E-005	-5.99601E-002	6.23891E-001	3.57890E+000	9	...........
	21	0.293333	6.12868E-001	-9.81070E-005	0.00000E+000	-6.01267E-005	-5.99601E-002	6.13157E-001	3.57890E+000	9	...........
	22	0.306667	6.02120E-001	-9.87540E-005	0.00000E+000	-5.94618E-005	-5.99601E-002	6.02388E-001	3.57890E+000	9	...........
	23	0.32	5.91440E-001	-9.89978E-005	0.00000E+000	-5.85513E-005	-5.99601E-002	5.91703E-001	3.57890E+000	9	...........
	24	0.333333	5.80720E-001	-9.79393E-005	0.00000E+000	-5.68753E-005	-5.99601E-002	5.80990E-001	3.57890E+000	9	...........
	25	0.346667	5.70082E-001	-9.91416E-005	0.00000E+000	-5.65189E-005	-5.99601E-002	5.70310E-001	3.57890E+000	9	...........
	26	0.36	5.59396E-001	-9.85790E-005	0.00000E+000	-5.51447E-005	-5.99601E-002	5.59659E-001	3.57890E+000	9	...........
	27	0.373333	5.48802E-001	-9.89916E-005	0.00000E+000	-5.43268E-005	-5.99601E-002	5.49035E-001	3.57890E+000	9	...........
	28	0.386667	5.38199E-001	-9.86634E-005	0.00000E+000	-5.31005E-005	-5.99601E-002	5.38470E-001	3.57890E+000	9	...........
	29	0.4	5.27651E-001	-9.86353E-005	0.00000E+000	-5.20450E-005	-5.99601E-002	5.27867E-001	3.57890E+000	9	...........
	30	0.413333	5.17126E-001	-9.80737E-005	0.00000E+000	-5.07165E-005	-5.99601E-002	5.17354E-001	3.57890E+000	9	...........
	31	0.426667	5.06627E-001	-9.87197E-005	0.00000E+000	-5.00141E-005	-5.99601E-002	5.06884E-001	3.57890E+000	9	...........
	32	0.44	4.96211E-001	-9.80237E-005	0.00000E+000	-4.86404E-005	-5.99601E-002	4.96464E-001	3.57890E+000	9	...........
	33	0.453333	4.85969E-001	-9.93979E-005	0.00000E+000	-4.83043E-005	-5.99601E-002	4.86135E-001	3.57874E+000	9	...........
	34	0.466667	4.75852E-001	-9.90843E-005	0.00000E+000	-4.71495E-005	-5.99601E-002	4.75958E-001	3.57860E+000	9	...........
	35	0.48	4.65557E-001	-9.87822E-005	0.00000E+000	-4.59888E-005	-5.99601E-002	4.65651E-001	3.57860E+000	9	...........
	36	0.493333	4.55315E-001	-9.90927E-005	0.00000E+000	-4.51184E-005	-5.99601E-002	4.55412E-001	3.57860E+000	9	...........
	37	0.506667	4.45132E-001	-9.89259E-005	0.00000E+000	-4.40351E-005	-5.99601E-002	4.45225E-001	3.57860E+000	9	...........
	38	0.52	4.35003E-001	-9.91771E-005	0.00000E+000	-4.31423E-005	-5.99601E-002	4.35097E-001	3.57860E+000	9	...........
	39	0.533333	4.24937E-001	-9.81758E-005	0.00000E+000	-4.17186E-005	-5.99601E-002	4.25024E-001	3.57860E+000	9	...........
	40	0.546667	4.14926E-001	-9.79216E-005	0.00000E+000	-4.06302E-005	-5.99601E-002	4.15013E-001	3.57860E+000	9	...........
	41	0.56	4.04968E-001	-9.97334E-005	0.00000E+000	-4.03888E-005	-5.99601E-002	4.05045E-001	3.57860E+000	9	...........
	42	0.573333	3.95067E-001	-9.92427E-005	0.00000E+000	-3.92075E-005	-5.99601E-002	3.95143E-001	3.57860E+000	9	...........
	43	0.586667	3.85225E-001	-9.80070E-005	0.00000E+000	-3.77547E-005	-5.99601E-002	3.85301E-001	3.57860E+000	9	...........
	44	0.6	3.75436E-001	-9.86530E-005	0.00000E+000	-3.70379E-005	-5.99601E-002	3.75507E-001	3.57860E+000	9	...........
	45	0.613333	3.65702E-001	-9.96501E-005	0.00000E+000	-3.64422E-005	-5.99601E-002	3.65775E-001	3.57860E+000	9	...........
	46	0.626667	3.56029E-001	-9.88457E-005	0.00000E+000	-3.51919E-005	-5.99601E-002	3.56098E-001	3.57860E+000	9	...........
	47	0.64	3.46402E-001	-9.97063E-005	0.00000E+000	-3.45385E-005	-5.99601E-002	3.46472E-001	3.57860E+000	9	...........
	48	0.653333	3.36834E-001	-9.96709E-005	0.00000E+000	-3.35725E-005	-5.99601E-002	3.36896E-001	3.57860E+000	9	...........
	49	0.666667	3.27317E-001	-9.93010E-005	0.00000E+000	-3.25029E-005	-5.99601E-002	3.27383E-001	3.57860E+000	9	...........
	50	0.68	3.17853E-001	-9.89322E-005	0.00000E+000	-3.14459E-005	-5.99601E-002	3.17915E-001	3.57860E+000	9	...........
	51	0.693333	3.08428E-001	-9.84363E-005	0.00000E+000	-3.03605E-005	-5.99601E-002	3.08491E-001	3.57860E+000	9	...........
	52	0.706667	2.99059E-001	-9.80529E-005	0.00000E+000	-2.93236E-005	-5.99601E-002	2.99120E-001	3.57860E+000	9	...........
	53	0.72	2.89732E-001	-9.84967E-005	0.00000E+000	-2.85377E-005	-5.99601E-002	2.89786E-001	3.57860E+000	9	...........
	54	0.733333	2.80455E-001	-9.93146E-005	0.00000E+000	-2.78532E-005	-5.99601E-002	2.80505E-001	3.57860E+000	9	...........
	55	0.746667	2.71218E-001	-9.82914E-005	0.00000E+000	-2.66584E-005	-5.99601E-002	2.71269E-001	3.57860E+000	9	...........
	56	0.76	2.62023E-001	-9.89770E-005	0.00000E+000	-2.59343E-005	-5.99601E-002	2.62070E-001	3.57860E+000	9	...........
	57	0.773333	2.52869E-001	-9.82810E-005	0.00000E+000	-2.48523E-005	-5.99601E-002	2.52918E-001	3.57860E+000	9	...........
	58	0.786667	2.43768E-001	-9.90374E-005	0.00000E+000	-2.41422E-005	-5.99601E-002	2.43807E-001	3.57860E+000	9	...........
	59	0.8	2.34711E-001	-9.84748E-005	0.00000E+000	-2.31131E-005	-5.99601E-002	2.34751E-001	3.57860E+000	9	...........
	60	0.813333	2.25689E-001	-9.83758E-005	0.00000E+000	-2.22024E-005	-5.99601E-002	2.25727E-001	3.57860E+000	9	...........
	61	0.826667	2.16720E-001	-9.96334E-005	0.00000E+000	-2.15925E-005	-5.99601E-002	2.16753E-001	3.57860E+000	9	...........
	62	0.84	2.07790E-001	-9.94136E-005	0.00000E+000	-2.06572E-005	-5.99601E-002	2.07825E-001	3.57860E+000	9	...........
	63	0.853333	1.98910E-001	-9.86228E-005	0.00000E+000	-1.96170E-005	-5.99601E-002	1.98940E-001	3.57860E+000	9	...........
	64	0.866667	1.90079E-001	-9.85842E-005	0.00000E+000	-1.87388E-005	-5.99601E-002	1.90112E-001	3.57860E+000	9	...........
	65	0.88	1.81299E-001	-9.83675E-005	0.00000E+000	-1.78340E-005	-5.99601E-002	1.81330E-001	3.57860E+000	9	...........
	66	0.893333	1.72575E-001	-9.87947E-005	0.00000E+000	-1.70494E-005	-5.99601E-002	1.72599E-001	3.57860E+000	9	...........
	67	0.906667	1.63905E-001	-9.85488E-005	0.00000E+000	-1.61526E-005	-5.99601E-002	1.63929E-001	3.57860E+000	9	...........
	68	0.92	1.55293E-001	-9.87676E-005	0.00000E+000	-1.53379E-005	-5.99601E-002	1.55319E-001	3.57860E+000	9	...........
	69	0.933333	1.46745E-001	-9.85478E-005	0.00000E+000	-1.44614E-005	-5.99601E-002	1.46763E-001	3.57860E+000	9	...........
	70	0.946667	1.38259E-001	-9.92166E-005	0.00000E+000	-1.37176E-005	-5.99601E-002	1.38278E-001	3.57860E+000	9	...........
	71	0.96	1.29842E-001	-9.85696E-005	0.00000E+000	-1.27985E-005	-5.99601E-002	1.29859E-001	3.57860E+000	9	...........
	72	0.97333	1.21486E-001	-9.89885E-005	0.00000E+000	-1.20257E-005	-5.99601E-002	1.21496E-001	3.57860E+000	9	...........
	73	0.98667	1.13206E-001	-9.86676E-005	0.00000E+000	-1.11697E-005	-5.99601E-002	1.13220E-001	3.57860E+000	9	...........
	74	1	1.04992E-001	-9.90510E-005	0.00000E+000	-1.03996E-005	-5.99601E-002	1.05004E-001	3.57860E+000	9	...........
	75	1.01333	9.68526E-002	-9.84842E-005	0.00000E+000	-9.53845E-006	-5.99601E-002	9.68551E-002	3.57860E+000	9	...........
	76	1.02667	8.87795E-002	-9.90364E-005	0.00000E+000	-8.79240E-006	-5.99601E-002	8.87812E-002	3.57860E+000	9	...........
	77	1.04	8.07840E-002	-9.98084E-005	0.00000E+000	-8.06293E-006	-5.99601E-002	8.07793E-002	3.57860E+000	9	...........
	78	1.05333	7.28557E-002	-9.96824E-005	0.00000E+000	-7.26243E-006	-5.99601E-002	7.28482E-002	3.57860E+000	9	...........
	79	1.06667	6.49911E-002	-9.92093E-005	0.00000E+000	-6.44773E-006	-5.99601E-002	6.49810E-002	3.57860E+000	9	...........
	80	1.08	5.72039E-002	-9.86582E-005	0.00000E+000	-5.64363E-006	-5.99601E-002	5.71903E-002	3.57860E+000	9	...........
	81	1.09333	4.94834E-002	-9.91041E-005	0.00000E+000	-4.90400E-006	-5.99601E-002	4.94754E-002	3.57860E+000	9	...........
	82	1.10667	4.18598E-002	-9.90145E-005	0.00000E+000	-4.14473E-006	-5.99601E-002	4.18494E-002	3.57860E+000	9	...........
	83	1.12	3.42675E-002	-9.81258E-005	0.00000E+000	-3.36253E-006	-5.99601E-002	3.42578E-002	3.57860E+000	9	...........
	84	1.13333	2.67465E-002	-9.75038E-005	0.00000E+000	-2.60789E-006	-5.99601E-002	2.67277E-002	3.57860E+000	9	...........
	85	1.14667	1.92821E-002	-9.90426E-005	0.00000E+000	-1.90975E-006	-5.99601E-002	1.92622E-002	3.57860E+000	9	...........
	86	1.16	1.18852E-002	-9.87520E-005	0.00000E+000	-1.17368E-006	-5.99601E-002	1.18595E-002	3.57860E+000	9	...........
	87	1.17333	4.54999E-003	-9.86603E-005	0.00000E+000	-4.48904E-007	-5.99601E-002	4.52030E-003	3.57860E+000	9	...........
	88	1.17667	-1.63614E-006	-9.79101E-005	0.00000E+000	1.60195E-010	-5.99601E-002	-3.55331E-005	3.57860E+000	9	...........
STARTTIMEOFFSET	QUANT	996.264	Start Time Offset (s)
