EXPLAIN
TAG	PWR800_DISCHARGE
TITLE	LABEL	PWR Cyclic Charge Discharge (Cell) - Discharge Step	Test &Identifier
DATE	LABEL	13-7-2017	Date
TIME	LABEL	15:47:05	Time
NOTES	NOTES	2	&Notes...
	supercap test cell
	6M KOH
PSTAT	PSTAT	IFC5000-01520	Potentiostat
CAPACITY	QUANT	1.00000E-003	Capacity (A-hr)
CELLTYPE	SELECTOR	1	&Cell Type
WORKINGCONNECTION	SELECTOR	0	&Working Lead
MAXDISCHARGETIME	VARIABLEANDUNITS	1.00000E+002	s	1.00000E+002	second(s)	Max &Discharge Time
DISCHARGEMODE	MULTIPARAM	0	1.00000E-004	&Discharge Mode	Constant Current	Amp(s)
SAMPLETIME	QUANT	1.00000E-002	Sa&mple Period (s)
DISCHARGESTOPAT1	MULTIPARAM	3	0.00000E+000	Discharge Stop At &1	Voltage < Limit	V
DISCHARGESTOPAT2	MULTIPARAM	0	0.00000E+000	Discharge Stop At &2	None	N/A
AESBHCSELECTOR	TOGGLE	F	Save Both Half Cells
IRCOMP	TOGGLE	F	IR &Measure
EOC	QUANT	0	Open Circuit (V)
SEQUENCER	TOGGLE	TRUE	Run as Sequence
PSTATMODEL	IQUANT	53	Pstat Model
PSTATSECTION	LABEL	IFC5000-01520	Pstat Section
PSTATSERIALNO	LABEL	01520	Pstat Serial Number
CTRLMODE	IQUANT	0	Control Mode
ELECTROMETER	IQUANT	1	RE=0 or CS=1
IESTAB	IQUANT	0	I/E Stability
CASPEED	IQUANT	4	Control Amp Speed
CONVENTION	IQUANT	1	Current Convention
ICHRANGE	IQUANT	2	Ich Range
ICHRANGEMODE	TOGGLE	T	Ich Auto Range
ICHOFFSETENABLE	TOGGLE	F	Ich Offset Enable
ICHOFFSET	QUANT	0	Ich Offset (V)
ICHFILTER	IQUANT	1	Ich Filter
VCHRANGE	IQUANT	2	Vch Range
VCHRANGEMODE	TOGGLE	T	Vch Auto Range
VCHOFFSETENABLE	TOGGLE	F	Vch Offset Enable
VCHOFFSET	QUANT	0	Vch Offset (V)
VCHFILTER	IQUANT	1	Vch Filter
IERANGELOWERLIMIT	IQUANT	9	I/E Range Lower Limit
IERANGEMODE	TOGGLE	F	I/E AutoRange
IERANGE	IQUANT	9	I/E Range
ACHSELECT	IQUANT	1	Ach Select
ACHRANGE	IQUANT	2	Ach Range
ACHOFFSETENABLE	TOGGLE	F	Ach Offset Enable
ACHOFFSET	QUANT	0	Ach Offset (V)
ACHFILTER	IQUANT	1	Ach Filter
CABLEID	IQUANT	14	Cable ID
DCCALDATE	LABEL	5-7-2017	DC Calibration Date
ACCALDATE	LABEL	12/3/2015	AC Calibration Date
FRAMEWORKVERSION	QUANT	7.01	Framework Version
INSTRUMENTVERSION	LABEL	4.00	Instrument Version
CURVE	TABLE	86
	Pt	T	Vf	Im	Vu	Pwr	Sig	Ach	Temp	IERange	Over
	#	s	V	A	V	W	V	V	deg C	#	bits
	0	0.013333	8.45843E-001	-9.88093E-005	0.00000E+000	-8.35771E-005	-5.99601E-002	8.46184E-001	3.57900E+000	9	...........
	1	0.026667	8.31740E-001	-1.00317E-004	0.00000E+000	-8.34376E-005	-5.99601E-002	8.32072E-001	3.57900E+000	9	...........
	2	0.04	8.18469E-001	-9.83425E-005	0.00000E+000	-8.04903E-005	-5.99601E-002	8.18782E-001	3.57900E+000	9	...........
	3	0.053333	8.05700E-001	-9.88853E-005	0.00000E+000	-7.96719E-005	-5.99601E-002	8.06007E-001	3.57900E+000	9	...........
	4	0.066667	7.93306E-001	-9.77695E-005	0.00000E+000	-7.75611E-005	-5.99601E-002	7.93616E-001	3.57900E+000	9	...........
	5	0.08	7.81175E-001	-9.83571E-005	0.00000E+000	-7.68341E-005	-5.99601E-002	7.81462E-001	3.57900E+000	9	...........
	6	0.093333	7.69242E-001	-9.94615E-005	0.00000E+000	-7.65099E-005	-5.99601E-002	7.69542E-001	3.57900E+000	9	...........
	7	0.106667	7.57460E-001	-9.85915E-005	0.00000E+000	-7.46791E-005	-5.99601E-002	7.57767E-001	3.57900E+000	9	...........
	8	0.12	7.45808E-001	-9.82185E-005	0.00000E+000	-7.32522E-005	-5.99601E-002	7.46099E-001	3.57900E+000	9	...........
	9	0.133333	7.34212E-001	-9.76476E-005	0.00000E+000	-7.16940E-005	-5.99601E-002	7.34498E-001	3.57900E+000	9	...........
	10	0.146667	7.22730E-001	-9.88186E-005	0.00000E+000	-7.14192E-005	-5.99601E-002	7.22983E-001	3.57900E+000	9	...........
	11	0.16	7.11222E-001	-9.89801E-005	0.00000E+000	-7.03968E-005	-5.99601E-002	7.11526E-001	3.57900E+000	9	...........
	12	0.173333	6.99821E-001	-9.95803E-005	0.00000E+000	-6.96884E-005	-5.99601E-002	7.00112E-001	3.57900E+000	9	...........
	13	0.186667	6.88418E-001	-9.90833E-005	0.00000E+000	-6.82107E-005	-5.99601E-002	6.88699E-001	3.57900E+000	9	...........
	14	0.2	6.77089E-001	-9.75361E-005	0.00000E+000	-6.60406E-005	-5.99601E-002	6.77357E-001	3.57900E+000	9	...........
	15	0.213333	6.65737E-001	-9.80487E-005	0.00000E+000	-6.52747E-005	-5.99601E-002	6.66012E-001	3.57900E+000	9	...........
	16	0.226667	6.54435E-001	-9.84217E-005	0.00000E+000	-6.44106E-005	-5.99601E-002	6.54679E-001	3.57900E+000	9	...........
	17	0.24	6.43133E-001	-9.92833E-005	0.00000E+000	-6.38524E-005	-5.99601E-002	6.43409E-001	3.57900E+000	9	...........
	18	0.253333	6.31866E-001	-9.86113E-005	0.00000E+000	-6.23092E-005	-5.99601E-002	6.32116E-001	3.57900E+000	9	...........
	19	0.266667	6.20637E-001	-9.88072E-005	0.00000E+000	-6.13234E-005	-5.99601E-002	6.20886E-001	3.57900E+000	9	...........
	20	0.28	6.09349E-001	-9.96886E-005	0.00000E+000	-6.07452E-005	-5.99601E-002	6.09672E-001	3.57900E+000	9	...........
	21	0.293333	5.98186E-001	-9.88291E-005	0.00000E+000	-5.91182E-005	-5.99601E-002	5.98468E-001	3.57900E+000	9	...........
	22	0.306667	5.87006E-001	-9.89655E-005	0.00000E+000	-5.80934E-005	-5.99601E-002	5.87325E-001	3.57900E+000	9	...........
	23	0.32	5.75907E-001	-9.89280E-005	0.00000E+000	-5.69733E-005	-5.99601E-002	5.76171E-001	3.57900E+000	9	...........
	24	0.333333	5.64806E-001	-9.89322E-005	0.00000E+000	-5.58775E-005	-5.99601E-002	5.65061E-001	3.57900E+000	9	...........
	25	0.346667	5.53732E-001	-9.82685E-005	0.00000E+000	-5.44145E-005	-5.99601E-002	5.54001E-001	3.57900E+000	9	...........
	26	0.36	5.42735E-001	-9.94365E-005	0.00000E+000	-5.39676E-005	-5.99601E-002	5.42994E-001	3.57900E+000	9	...........
	27	0.373333	5.31719E-001	-9.80716E-005	0.00000E+000	-5.21466E-005	-5.99601E-002	5.32005E-001	3.57900E+000	9	...........
	28	0.386667	5.20824E-001	-9.89051E-005	0.00000E+000	-5.15122E-005	-5.99601E-002	5.21078E-001	3.57900E+000	9	...........
	29	0.4	5.09936E-001	-9.86217E-005	0.00000E+000	-5.02908E-005	-5.99601E-002	5.10195E-001	3.57900E+000	9	...........
	30	0.413333	4.99107E-001	-9.80226E-005	0.00000E+000	-4.89238E-005	-5.99601E-002	4.99386E-001	3.57900E+000	9	...........
	31	0.426667	4.88420E-001	-9.86446E-005	0.00000E+000	-4.81801E-005	-5.99601E-002	4.88615E-001	3.57900E+000	9	...........
	32	0.44	4.78043E-001	-9.91666E-005	0.00000E+000	-4.74059E-005	-5.99601E-002	4.78136E-001	3.57900E+000	9	...........
	33	0.453333	4.67415E-001	-9.95021E-005	0.00000E+000	-4.65088E-005	-5.99601E-002	4.67508E-001	3.57900E+000	9	...........
	34	0.466667	4.56848E-001	-9.94771E-005	0.00000E+000	-4.54459E-005	-5.99601E-002	4.56940E-001	3.57900E+000	9	...........
	35	0.48	4.46350E-001	-9.88166E-005	0.00000E+000	-4.41067E-005	-5.99601E-002	4.46438E-001	3.57900E+000	9	...........
	36	0.493333	4.35929E-001	-9.84040E-005	0.00000E+000	-4.28971E-005	-5.99601E-002	4.36017E-001	3.57900E+000	9	...........
	37	0.506667	4.25575E-001	-9.90489E-005	0.00000E+000	-4.21528E-005	-5.99601E-002	4.25659E-001	3.57900E+000	9	...........
	38	0.52	4.15292E-001	-9.91520E-005	0.00000E+000	-4.11770E-005	-5.99601E-002	4.15380E-001	3.57900E+000	9	...........
	39	0.533333	4.05079E-001	-9.85311E-005	0.00000E+000	-3.99128E-005	-5.99601E-002	4.05156E-001	3.57900E+000	9	...........
	40	0.546667	3.94932E-001	-9.96428E-005	0.00000E+000	-3.93521E-005	-5.99601E-002	3.95008E-001	3.57900E+000	9	...........
	41	0.56	3.84853E-001	-9.98793E-005	0.00000E+000	-3.84388E-005	-5.99601E-002	3.84924E-001	3.57900E+000	9	...........
	42	0.573333	3.74847E-001	-9.93052E-005	0.00000E+000	-3.72243E-005	-5.99601E-002	3.74915E-001	3.57900E+000	9	...........
	43	0.586667	3.64903E-001	-9.85384E-005	0.00000E+000	-3.59570E-005	-5.99601E-002	3.64971E-001	3.57900E+000	9	...........
	44	0.6	3.55034E-001	-9.85748E-005	0.00000E+000	-3.49974E-005	-5.99601E-002	3.55095E-001	3.57900E+000	9	...........
	45	0.613333	3.45222E-001	-9.81581E-005	0.00000E+000	-3.38864E-005	-5.99601E-002	3.45277E-001	3.57900E+000	9	...........
	46	0.626667	3.35466E-001	-9.93187E-005	0.00000E+000	-3.33181E-005	-5.99601E-002	3.35521E-001	3.57900E+000	9	...........
	47	0.64	3.25777E-001	-9.82352E-005	0.00000E+000	-3.20028E-005	-5.99601E-002	3.25835E-001	3.57900E+000	9	...........
	48	0.653333	3.16150E-001	-9.88780E-005	0.00000E+000	-3.12603E-005	-5.99601E-002	3.16204E-001	3.57900E+000	9	...........
	49	0.666667	3.06574E-001	-9.88020E-005	0.00000E+000	-3.02901E-005	-5.99601E-002	3.06630E-001	3.57900E+000	9	...........
	50	0.68	2.97060E-001	-9.84831E-005	0.00000E+000	-2.92554E-005	-5.99601E-002	2.97106E-001	3.57900E+000	9	...........
	51	0.693333	2.87597E-001	-9.90968E-005	0.00000E+000	-2.85000E-005	-5.99601E-002	2.87640E-001	3.57900E+000	9	...........
	52	0.706667	2.78187E-001	-9.87582E-005	0.00000E+000	-2.74732E-005	-5.99601E-002	2.78231E-001	3.57900E+000	9	...........
	53	0.72	2.68833E-001	-9.90864E-005	0.00000E+000	-2.66377E-005	-5.99601E-002	2.68875E-001	3.57900E+000	9	...........
	54	0.733333	2.59525E-001	-9.92708E-005	0.00000E+000	-2.57633E-005	-5.99601E-002	2.59568E-001	3.57900E+000	9	...........
	55	0.746667	2.50273E-001	-9.87749E-005	0.00000E+000	-2.47207E-005	-5.99601E-002	2.50309E-001	3.57900E+000	9	...........
	56	0.76	2.41082E-001	-9.89228E-005	0.00000E+000	-2.38485E-005	-5.99601E-002	2.41109E-001	3.57900E+000	9	...........
	57	0.773333	2.31928E-001	-1.00153E-004	0.00000E+000	-2.32283E-005	-5.99601E-002	2.31963E-001	3.57900E+000	9	...........
	58	0.786667	2.22837E-001	-9.87280E-005	0.00000E+000	-2.20002E-005	-5.99601E-002	2.22866E-001	3.57900E+000	9	...........
	59	0.8	2.13792E-001	-9.93677E-005	0.00000E+000	-2.12440E-005	-5.99601E-002	2.13827E-001	3.57900E+000	9	...........
	60	0.813333	2.04813E-001	-9.94073E-005	0.00000E+000	-2.03599E-005	-5.99601E-002	2.04841E-001	3.57900E+000	9	...........
	61	0.826667	1.95887E-001	-9.85894E-005	0.00000E+000	-1.93124E-005	-5.99601E-002	1.95921E-001	3.57900E+000	9	...........
	62	0.84	1.87028E-001	-9.89114E-005	0.00000E+000	-1.84992E-005	-5.99601E-002	1.87054E-001	3.57900E+000	9	...........
	63	0.853333	1.78223E-001	-9.80977E-005	0.00000E+000	-1.74832E-005	-5.99601E-002	1.78253E-001	3.57900E+000	9	...........
	64	0.866667	1.69494E-001	-9.94229E-005	0.00000E+000	-1.68516E-005	-5.99601E-002	1.69519E-001	3.57900E+000	9	...........
	65	0.88	1.60826E-001	-9.88176E-005	0.00000E+000	-1.58925E-005	-5.99601E-002	1.60848E-001	3.57900E+000	9	...........
	66	0.893333	1.52231E-001	-9.87634E-005	0.00000E+000	-1.50348E-005	-5.99601E-002	1.52251E-001	3.57943E+000	9	...........
	67	0.906667	1.43707E-001	-9.96157E-005	0.00000E+000	-1.43155E-005	-5.99601E-002	1.43727E-001	3.58000E+000	9	...........
	68	0.92	1.35258E-001	-9.91114E-005	0.00000E+000	-1.34056E-005	-5.99601E-002	1.35269E-001	3.58000E+000	9	...........
	69	0.933333	1.26886E-001	-9.93104E-005	0.00000E+000	-1.26011E-005	-5.99601E-002	1.26895E-001	3.58000E+000	9	...........
	70	0.946667	1.18583E-001	-9.94979E-005	0.00000E+000	-1.17988E-005	-5.99601E-002	1.18594E-001	3.58000E+000	9	...........
	71	0.96	1.10362E-001	-9.87874E-005	0.00000E+000	-1.09024E-005	-5.99601E-002	1.10370E-001	3.58000E+000	9	...........
	72	0.97333	1.02213E-001	-9.91052E-005	0.00000E+000	-1.01299E-005	-5.99601E-002	1.02220E-001	3.58000E+000	9	...........
	73	0.98667	9.41353E-002	-9.89635E-005	0.00000E+000	-9.31595E-006	-5.99601E-002	9.41418E-002	3.58000E+000	9	...........
	74	1	8.61346E-002	-9.89853E-005	0.00000E+000	-8.52606E-006	-5.99601E-002	8.61357E-002	3.58000E+000	9	...........
	75	1.01333	7.82145E-002	-9.84654E-005	0.00000E+000	-7.70143E-006	-5.99601E-002	7.82123E-002	3.58000E+000	9	...........
	76	1.02667	7.03546E-002	-9.90343E-005	0.00000E+000	-6.96752E-006	-5.99601E-002	7.03543E-002	3.58000E+000	9	...........
	77	1.04	6.25727E-002	-9.86644E-005	0.00000E+000	-6.17370E-006	-5.99601E-002	6.25597E-002	3.58000E+000	9	...........
	78	1.05333	5.48509E-002	-9.77278E-005	0.00000E+000	-5.36046E-006	-5.99601E-002	5.48402E-002	3.58000E+000	9	...........
	79	1.06667	4.72240E-002	-9.93646E-005	0.00000E+000	-4.69239E-006	-5.99601E-002	4.72116E-002	3.58000E+000	9	...........
	80	1.08	3.96616E-002	-9.90249E-005	0.00000E+000	-3.92749E-006	-5.99601E-002	3.96516E-002	3.58000E+000	9	...........
	81	1.09333	3.21475E-002	-9.85561E-005	0.00000E+000	-3.16833E-006	-5.99601E-002	3.21338E-002	3.58000E+000	9	...........
	82	1.10667	2.47039E-002	-9.90479E-005	0.00000E+000	-2.44687E-006	-5.99601E-002	2.46812E-002	3.58000E+000	9	...........
	83	1.12	1.73240E-002	-9.86165E-005	0.00000E+000	-1.70843E-006	-5.99601E-002	1.72950E-002	3.58000E+000	9	...........
	84	1.13333	1.00012E-002	-9.86134E-005	0.00000E+000	-9.86252E-007	-5.99601E-002	9.97104E-003	3.58000E+000	9	...........
	85	1.14667	2.74602E-003	-9.86144E-005	0.00000E+000	-2.70797E-007	-5.99601E-002	2.70960E-003	3.58000E+000	9	...........
STARTTIMEOFFSET	QUANT	2035.386	Start Time Offset (s)
