EXPLAIN
TAG	PWR800_DISCHARGE
TITLE	LABEL	PWR Cyclic Charge Discharge (Cell) - Discharge Step	Test &Identifier
DATE	LABEL	13-7-2017	Date
TIME	LABEL	15:16:12	Time
NOTES	NOTES	2	&Notes...
	supercap test cell
	6M KOH
PSTAT	PSTAT	IFC5000-01520	Potentiostat
CAPACITY	QUANT	1.00000E-003	Capacity (A-hr)
CELLTYPE	SELECTOR	1	&Cell Type
WORKINGCONNECTION	SELECTOR	0	&Working Lead
MAXDISCHARGETIME	VARIABLEANDUNITS	1.00000E+002	s	1.00000E+002	second(s)	Max &Discharge Time
DISCHARGEMODE	MULTIPARAM	0	1.00000E-004	&Discharge Mode	Constant Current	Amp(s)
SAMPLETIME	QUANT	1.00000E-002	Sa&mple Period (s)
DISCHARGESTOPAT1	MULTIPARAM	3	0.00000E+000	Discharge Stop At &1	Voltage < Limit	V
DISCHARGESTOPAT2	MULTIPARAM	0	0.00000E+000	Discharge Stop At &2	None	N/A
AESBHCSELECTOR	TOGGLE	F	Save Both Half Cells
IRCOMP	TOGGLE	F	IR &Measure
EOC	QUANT	0	Open Circuit (V)
SEQUENCER	TOGGLE	TRUE	Run as Sequence
PSTATMODEL	IQUANT	53	Pstat Model
PSTATSECTION	LABEL	IFC5000-01520	Pstat Section
PSTATSERIALNO	LABEL	01520	Pstat Serial Number
CTRLMODE	IQUANT	0	Control Mode
ELECTROMETER	IQUANT	1	RE=0 or CS=1
IESTAB	IQUANT	0	I/E Stability
CASPEED	IQUANT	4	Control Amp Speed
CONVENTION	IQUANT	1	Current Convention
ICHRANGE	IQUANT	2	Ich Range
ICHRANGEMODE	TOGGLE	T	Ich Auto Range
ICHOFFSETENABLE	TOGGLE	F	Ich Offset Enable
ICHOFFSET	QUANT	0	Ich Offset (V)
ICHFILTER	IQUANT	1	Ich Filter
VCHRANGE	IQUANT	2	Vch Range
VCHRANGEMODE	TOGGLE	T	Vch Auto Range
VCHOFFSETENABLE	TOGGLE	F	Vch Offset Enable
VCHOFFSET	QUANT	0	Vch Offset (V)
VCHFILTER	IQUANT	1	Vch Filter
IERANGELOWERLIMIT	IQUANT	9	I/E Range Lower Limit
IERANGEMODE	TOGGLE	F	I/E AutoRange
IERANGE	IQUANT	9	I/E Range
ACHSELECT	IQUANT	1	Ach Select
ACHRANGE	IQUANT	2	Ach Range
ACHOFFSETENABLE	TOGGLE	F	Ach Offset Enable
ACHOFFSET	QUANT	0	Ach Offset (V)
ACHFILTER	IQUANT	1	Ach Filter
CABLEID	IQUANT	14	Cable ID
DCCALDATE	LABEL	5-7-2017	DC Calibration Date
ACCALDATE	LABEL	12/3/2015	AC Calibration Date
FRAMEWORKVERSION	QUANT	7.01	Framework Version
INSTRUMENTVERSION	LABEL	4.00	Instrument Version
CURVE	TABLE	90
	Pt	T	Vf	Im	Vu	Pwr	Sig	Ach	Temp	IERange	Over
	#	s	V	A	V	W	V	V	deg C	#	bits
	0	0.013333	8.52509E-001	-9.89853E-005	0.00000E+000	-8.43859E-005	-5.99601E-002	8.52842E-001	3.58010E+000	9	...........
	1	0.026667	8.38982E-001	-9.95855E-005	0.00000E+000	-8.35504E-005	-5.99601E-002	8.39311E-001	3.58010E+000	9	...........
	2	0.04	8.26314E-001	-9.90676E-005	0.00000E+000	-8.18610E-005	-5.99601E-002	8.26640E-001	3.58010E+000	9	...........
	3	0.053333	8.14186E-001	-9.86113E-005	0.00000E+000	-8.02880E-005	-5.99601E-002	8.14531E-001	3.58010E+000	9	...........
	4	0.066667	8.02478E-001	-9.84217E-005	0.00000E+000	-7.89812E-005	-5.99601E-002	8.02807E-001	3.58010E+000	9	...........
	5	0.08	7.91056E-001	-9.81466E-005	0.00000E+000	-7.76395E-005	-5.99601E-002	7.91367E-001	3.58010E+000	9	...........
	6	0.093333	7.79856E-001	-9.95938E-005	0.00000E+000	-7.76688E-005	-5.99601E-002	7.80122E-001	3.58010E+000	9	...........
	7	0.106667	7.68799E-001	-9.90874E-005	0.00000E+000	-7.61784E-005	-5.99601E-002	7.69092E-001	3.58010E+000	9	...........
	8	0.12	7.57898E-001	-9.91593E-005	0.00000E+000	-7.51526E-005	-5.99601E-002	7.58137E-001	3.58010E+000	9	...........
	9	0.133333	7.47084E-001	-9.81748E-005	0.00000E+000	-7.33448E-005	-5.99601E-002	7.47301E-001	3.58010E+000	9	...........
	10	0.146667	7.36332E-001	-9.90843E-005	0.00000E+000	-7.29590E-005	-5.99601E-002	7.36559E-001	3.57905E+000	9	...........
	11	0.16	7.25662E-001	-9.84342E-005	0.00000E+000	-7.14300E-005	-5.99601E-002	7.25895E-001	3.57870E+000	9	...........
	12	0.173333	7.15016E-001	-9.80112E-005	0.00000E+000	-7.00795E-005	-5.99601E-002	7.15278E-001	3.57870E+000	9	...........
	13	0.186667	7.04389E-001	-9.87457E-005	0.00000E+000	-6.95554E-005	-5.99601E-002	7.04655E-001	3.57870E+000	9	...........
	14	0.2	6.93820E-001	-9.82716E-005	0.00000E+000	-6.81829E-005	-5.99601E-002	6.94104E-001	3.57870E+000	9	...........
	15	0.213333	6.83280E-001	-9.87353E-005	0.00000E+000	-6.74639E-005	-5.99601E-002	6.83563E-001	3.57870E+000	9	...........
	16	0.226667	6.72759E-001	-9.98230E-005	0.00000E+000	-6.71568E-005	-5.99601E-002	6.73043E-001	3.57870E+000	9	...........
	17	0.24	6.62239E-001	-9.93823E-005	0.00000E+000	-6.58148E-005	-5.99601E-002	6.62509E-001	3.57870E+000	9	...........
	18	0.253333	6.51731E-001	-9.82644E-005	0.00000E+000	-6.40419E-005	-5.99601E-002	6.52009E-001	3.57870E+000	9	...........
	19	0.266667	6.41250E-001	-9.84040E-005	0.00000E+000	-6.31015E-005	-5.99601E-002	6.41528E-001	3.57870E+000	9	...........
	20	0.28	6.30740E-001	-9.78924E-005	0.00000E+000	-6.17446E-005	-5.99601E-002	6.31018E-001	3.57870E+000	9	...........
	21	0.293333	6.20291E-001	-9.90322E-005	0.00000E+000	-6.14288E-005	-5.99601E-002	6.20558E-001	3.57870E+000	9	...........
	22	0.306667	6.09768E-001	-9.82675E-005	0.00000E+000	-5.99204E-005	-5.99601E-002	6.10075E-001	3.57870E+000	9	...........
	23	0.32	5.99327E-001	-9.83727E-005	0.00000E+000	-5.89574E-005	-5.99601E-002	5.99630E-001	3.57870E+000	9	...........
	24	0.333333	5.88904E-001	-9.88186E-005	0.00000E+000	-5.81947E-005	-5.99601E-002	5.89190E-001	3.57870E+000	9	...........
	25	0.346667	5.78456E-001	-9.87999E-005	0.00000E+000	-5.71514E-005	-5.99601E-002	5.78723E-001	3.57870E+000	9	...........
	26	0.36	5.68079E-001	-9.92812E-005	0.00000E+000	-5.63996E-005	-5.99601E-002	5.68337E-001	3.57870E+000	9	...........
	27	0.373333	5.57641E-001	-9.80987E-005	0.00000E+000	-5.47039E-005	-5.99601E-002	5.57934E-001	3.57870E+000	9	...........
	28	0.386667	5.47301E-001	-9.87009E-005	0.00000E+000	-5.40191E-005	-5.99601E-002	5.47552E-001	3.57870E+000	9	...........
	29	0.4	5.36941E-001	-9.80612E-005	0.00000E+000	-5.26531E-005	-5.99601E-002	5.37189E-001	3.57870E+000	9	...........
	30	0.413333	5.26640E-001	-9.92927E-005	0.00000E+000	-5.22915E-005	-5.99601E-002	5.26867E-001	3.57870E+000	9	...........
	31	0.426667	5.16379E-001	-9.93302E-005	0.00000E+000	-5.12920E-005	-5.99601E-002	5.16577E-001	3.57870E+000	9	...........
	32	0.44	5.06060E-001	-9.79987E-005	0.00000E+000	-4.95932E-005	-5.99601E-002	5.06323E-001	3.57870E+000	9	...........
	33	0.453333	4.95878E-001	-9.85217E-005	0.00000E+000	-4.88548E-005	-5.99601E-002	4.96114E-001	3.57870E+000	9	...........
	34	0.466667	4.85864E-001	-9.84561E-005	0.00000E+000	-4.78362E-005	-5.99601E-002	4.86020E-001	3.57870E+000	9	...........
	35	0.48	4.75963E-001	-9.93740E-005	0.00000E+000	-4.72983E-005	-5.99601E-002	4.76064E-001	3.57870E+000	9	...........
	36	0.493333	4.65883E-001	-9.85832E-005	0.00000E+000	-4.59283E-005	-5.99601E-002	4.65982E-001	3.57870E+000	9	...........
	37	0.506667	4.55840E-001	-9.93135E-005	0.00000E+000	-4.52711E-005	-5.99601E-002	4.55938E-001	3.57870E+000	9	...........
	38	0.52	4.45851E-001	-9.89635E-005	0.00000E+000	-4.41230E-005	-5.99601E-002	4.45944E-001	3.57870E+000	9	...........
	39	0.533333	4.35902E-001	-9.93802E-005	0.00000E+000	-4.33201E-005	-5.99601E-002	4.36001E-001	3.57870E+000	9	...........
	40	0.546667	4.26012E-001	-9.86269E-005	0.00000E+000	-4.20163E-005	-5.99601E-002	4.26105E-001	3.57870E+000	9	...........
	41	0.56	4.16173E-001	-9.97699E-005	0.00000E+000	-4.15216E-005	-5.99601E-002	4.16259E-001	3.57870E+000	9	...........
	42	0.573333	4.06387E-001	-9.81185E-005	0.00000E+000	-3.98741E-005	-5.99601E-002	4.06467E-001	3.57870E+000	9	...........
	43	0.586667	3.96652E-001	-9.77424E-005	0.00000E+000	-3.87697E-005	-5.99601E-002	3.96726E-001	3.57870E+000	9	...........
	44	0.6	3.86965E-001	-9.97595E-005	0.00000E+000	-3.86034E-005	-5.99601E-002	3.87037E-001	3.57870E+000	9	...........
	45	0.613333	3.77324E-001	-9.95063E-005	0.00000E+000	-3.75461E-005	-5.99601E-002	3.77398E-001	3.57870E+000	9	...........
	46	0.626667	3.67736E-001	-9.97688E-005	0.00000E+000	-3.66886E-005	-5.99601E-002	3.67806E-001	3.57870E+000	9	...........
	47	0.64	3.58193E-001	-9.87103E-005	0.00000E+000	-3.53574E-005	-5.99601E-002	3.58269E-001	3.57870E+000	9	...........
	48	0.653333	3.48707E-001	-9.83467E-005	0.00000E+000	-3.42941E-005	-5.99601E-002	3.48781E-001	3.57870E+000	9	...........
	49	0.666667	3.39265E-001	-9.90354E-005	0.00000E+000	-3.35993E-005	-5.99601E-002	3.39335E-001	3.57870E+000	9	...........
	50	0.68	3.29873E-001	-9.81727E-005	0.00000E+000	-3.23846E-005	-5.99601E-002	3.29939E-001	3.57870E+000	9	...........
	51	0.693333	3.20530E-001	-9.90614E-005	0.00000E+000	-3.17521E-005	-5.99601E-002	3.20593E-001	3.57870E+000	9	...........
	52	0.706667	3.11222E-001	-9.98595E-005	0.00000E+000	-3.10785E-005	-5.99601E-002	3.11289E-001	3.57870E+000	9	...........
	53	0.72	3.01964E-001	-9.96355E-005	0.00000E+000	-3.00863E-005	-5.99601E-002	3.02027E-001	3.57870E+000	9	...........
	54	0.733333	2.92748E-001	-9.90979E-005	0.00000E+000	-2.90107E-005	-5.99601E-002	2.92809E-001	3.57870E+000	9	...........
	55	0.746667	2.83576E-001	-9.90520E-005	0.00000E+000	-2.80888E-005	-5.99601E-002	2.83633E-001	3.57870E+000	9	...........
	56	0.76	2.74443E-001	-9.90822E-005	0.00000E+000	-2.71924E-005	-5.99601E-002	2.74504E-001	3.57870E+000	9	...........
	57	0.773333	2.65355E-001	-9.81300E-005	0.00000E+000	-2.60392E-005	-5.99601E-002	2.65412E-001	3.57870E+000	9	...........
	58	0.786667	2.56299E-001	-9.95698E-005	0.00000E+000	-2.55196E-005	-5.99601E-002	2.56354E-001	3.57870E+000	9	...........
	59	0.8	2.47290E-001	-9.86051E-005	0.00000E+000	-2.43841E-005	-5.99601E-002	2.47341E-001	3.57870E+000	9	...........
	60	0.813333	2.38324E-001	-9.92698E-005	0.00000E+000	-2.36584E-005	-5.99601E-002	2.38369E-001	3.57870E+000	9	...........
	61	0.826667	2.29392E-001	-9.75694E-005	0.00000E+000	-2.23816E-005	-5.99601E-002	2.29438E-001	3.57870E+000	9	...........
	62	0.84	2.20499E-001	-9.93396E-005	0.00000E+000	-2.19043E-005	-5.99601E-002	2.20542E-001	3.57870E+000	9	...........
	63	0.853333	2.11654E-001	-9.88999E-005	0.00000E+000	-2.09326E-005	-5.99601E-002	2.11691E-001	3.57870E+000	9	...........
	64	0.866667	2.02847E-001	-9.90958E-005	0.00000E+000	-2.01013E-005	-5.99601E-002	2.02885E-001	3.57870E+000	9	...........
	65	0.88	1.94085E-001	-9.84925E-005	0.00000E+000	-1.91160E-005	-5.99601E-002	1.94120E-001	3.57870E+000	9	...........
	66	0.893333	1.85369E-001	-1.00410E-004	0.00000E+000	-1.86129E-005	-5.99601E-002	1.85399E-001	3.57870E+000	9	...........
	67	0.906667	1.76692E-001	-9.87822E-005	0.00000E+000	-1.74540E-005	-5.99601E-002	1.76720E-001	3.57870E+000	9	...........
	68	0.92	1.68080E-001	-9.77924E-005	0.00000E+000	-1.64370E-005	-5.99601E-002	1.68104E-001	3.57870E+000	9	...........
	69	0.933333	1.59518E-001	-9.93792E-005	0.00000E+000	-1.58528E-005	-5.99601E-002	1.59544E-001	3.57870E+000	9	...........
	70	0.946667	1.51012E-001	-9.91625E-005	0.00000E+000	-1.49747E-005	-5.99601E-002	1.51032E-001	3.57870E+000	9	...........
	71	0.96	1.42562E-001	-9.87040E-005	0.00000E+000	-1.40715E-005	-5.99601E-002	1.42582E-001	3.57870E+000	9	...........
	72	0.97333	1.34173E-001	-9.88072E-005	0.00000E+000	-1.32573E-005	-5.99601E-002	1.34190E-001	3.57870E+000	9	...........
	73	0.98667	1.25843E-001	-9.87926E-005	0.00000E+000	-1.24324E-005	-5.99601E-002	1.25859E-001	3.57870E+000	9	...........
	74	1	1.17579E-001	-9.92489E-005	0.00000E+000	-1.16696E-005	-5.99601E-002	1.17593E-001	3.57870E+000	9	...........
	75	1.01333	1.09374E-001	-9.91896E-005	0.00000E+000	-1.08488E-005	-5.99601E-002	1.09389E-001	3.57870E+000	9	...........
	76	1.02667	1.01244E-001	-9.87530E-005	0.00000E+000	-9.99818E-006	-5.99601E-002	1.01261E-001	3.57870E+000	9	...........
	77	1.04	9.31799E-002	-9.90697E-005	0.00000E+000	-9.23130E-006	-5.99601E-002	9.31912E-002	3.57870E+000	9	...........
	78	1.05333	8.51836E-002	-9.85123E-005	0.00000E+000	-8.39163E-006	-5.99601E-002	8.51933E-002	3.57870E+000	9	...........
	79	1.06667	7.72536E-002	-9.94177E-005	0.00000E+000	-7.68038E-006	-5.99601E-002	7.72602E-002	3.57870E+000	9	...........
	80	1.08	6.93870E-002	-9.93458E-005	0.00000E+000	-6.89330E-006	-5.99601E-002	6.93886E-002	3.57870E+000	9	...........
	81	1.09333	6.15875E-002	-9.87311E-005	0.00000E+000	-6.08060E-006	-5.99601E-002	6.15872E-002	3.57870E+000	9	...........
	82	1.10667	5.38491E-002	-9.83727E-005	0.00000E+000	-5.29728E-006	-5.99601E-002	5.38486E-002	3.57870E+000	9	...........
	83	1.12	4.62091E-002	-9.83800E-005	0.00000E+000	-4.54605E-006	-5.99601E-002	4.62019E-002	3.57870E+000	9	...........
	84	1.13333	3.86123E-002	-9.86530E-005	0.00000E+000	-3.80922E-006	-5.99601E-002	3.86027E-002	3.57870E+000	9	...........
	85	1.14667	3.10718E-002	-9.91791E-005	0.00000E+000	-3.08168E-006	-5.99601E-002	3.10557E-002	3.57862E+000	9	...........
	86	1.16	2.35909E-002	-9.89374E-005	0.00000E+000	-2.33403E-006	-5.99601E-002	2.35728E-002	3.57860E+000	9	...........
	87	1.17333	1.61745E-002	-9.87207E-005	0.00000E+000	-1.59676E-006	-5.99601E-002	1.61508E-002	3.57860E+000	9	...........
	88	1.18667	8.82009E-003	-9.91187E-005	0.00000E+000	-8.74236E-007	-5.99601E-002	8.79295E-003	3.57860E+000	9	...........
	89	1.19833	1.97823E-003	-9.86865E-005	0.00000E+000	-1.95225E-007	-5.99601E-002	1.94462E-003	3.57860E+000	9	...........
STARTTIMEOFFSET	QUANT	640.7426	Start Time Offset (s)
