EXPLAIN
TAG	PWR800_DISCHARGE
TITLE	LABEL	PWR Cyclic Charge Discharge (Cell) - Discharge Step	Test &Identifier
DATE	LABEL	13-7-2017	Date
TIME	LABEL	15:48:10	Time
NOTES	NOTES	2	&Notes...
	supercap test cell
	6M KOH
PSTAT	PSTAT	IFC5000-01520	Potentiostat
CAPACITY	QUANT	1.00000E-003	Capacity (A-hr)
CELLTYPE	SELECTOR	1	&Cell Type
WORKINGCONNECTION	SELECTOR	0	&Working Lead
MAXDISCHARGETIME	VARIABLEANDUNITS	1.00000E+002	s	1.00000E+002	second(s)	Max &Discharge Time
DISCHARGEMODE	MULTIPARAM	0	1.00000E-004	&Discharge Mode	Constant Current	Amp(s)
SAMPLETIME	QUANT	1.00000E-002	Sa&mple Period (s)
DISCHARGESTOPAT1	MULTIPARAM	3	0.00000E+000	Discharge Stop At &1	Voltage < Limit	V
DISCHARGESTOPAT2	MULTIPARAM	0	0.00000E+000	Discharge Stop At &2	None	N/A
AESBHCSELECTOR	TOGGLE	F	Save Both Half Cells
IRCOMP	TOGGLE	F	IR &Measure
EOC	QUANT	0	Open Circuit (V)
SEQUENCER	TOGGLE	TRUE	Run as Sequence
PSTATMODEL	IQUANT	53	Pstat Model
PSTATSECTION	LABEL	IFC5000-01520	Pstat Section
PSTATSERIALNO	LABEL	01520	Pstat Serial Number
CTRLMODE	IQUANT	0	Control Mode
ELECTROMETER	IQUANT	1	RE=0 or CS=1
IESTAB	IQUANT	0	I/E Stability
CASPEED	IQUANT	4	Control Amp Speed
CONVENTION	IQUANT	1	Current Convention
ICHRANGE	IQUANT	2	Ich Range
ICHRANGEMODE	TOGGLE	T	Ich Auto Range
ICHOFFSETENABLE	TOGGLE	F	Ich Offset Enable
ICHOFFSET	QUANT	0	Ich Offset (V)
ICHFILTER	IQUANT	1	Ich Filter
VCHRANGE	IQUANT	2	Vch Range
VCHRANGEMODE	TOGGLE	T	Vch Auto Range
VCHOFFSETENABLE	TOGGLE	F	Vch Offset Enable
VCHOFFSET	QUANT	0	Vch Offset (V)
VCHFILTER	IQUANT	1	Vch Filter
IERANGELOWERLIMIT	IQUANT	9	I/E Range Lower Limit
IERANGEMODE	TOGGLE	F	I/E AutoRange
IERANGE	IQUANT	9	I/E Range
ACHSELECT	IQUANT	1	Ach Select
ACHRANGE	IQUANT	2	Ach Range
ACHOFFSETENABLE	TOGGLE	F	Ach Offset Enable
ACHOFFSET	QUANT	0	Ach Offset (V)
ACHFILTER	IQUANT	1	Ach Filter
CABLEID	IQUANT	14	Cable ID
DCCALDATE	LABEL	5-7-2017	DC Calibration Date
ACCALDATE	LABEL	12/3/2015	AC Calibration Date
FRAMEWORKVERSION	QUANT	7.01	Framework Version
INSTRUMENTVERSION	LABEL	4.00	Instrument Version
CURVE	TABLE	86
	Pt	T	Vf	Im	Vu	Pwr	Sig	Ach	Temp	IERange	Over
	#	s	V	A	V	W	V	V	deg C	#	bits
	0	0.013333	8.46448E-001	-9.98511E-005	0.00000E+000	-8.45188E-005	-5.99601E-002	8.46751E-001	3.57900E+000	9	...........
	1	0.026667	8.32250E-001	-9.88989E-005	0.00000E+000	-8.23086E-005	-5.99601E-002	8.32551E-001	3.57900E+000	9	...........
	2	0.04	8.18875E-001	-9.93354E-005	0.00000E+000	-8.13433E-005	-5.99601E-002	8.19195E-001	3.57900E+000	9	...........
	3	0.053333	8.06078E-001	-9.89270E-005	0.00000E+000	-7.97429E-005	-5.99601E-002	8.06367E-001	3.57900E+000	9	...........
	4	0.066667	7.93637E-001	-9.84832E-005	0.00000E+000	-7.81599E-005	-5.99601E-002	7.93930E-001	3.57900E+000	9	...........
	5	0.08	7.81482E-001	-9.93948E-005	0.00000E+000	-7.76752E-005	-5.99601E-002	7.81752E-001	3.57900E+000	9	...........
	6	0.093333	7.69513E-001	-9.86561E-005	0.00000E+000	-7.59172E-005	-5.99601E-002	7.69799E-001	3.57900E+000	9	...........
	7	0.106667	7.57713E-001	-9.94625E-005	0.00000E+000	-7.53640E-005	-5.99601E-002	7.57977E-001	3.57900E+000	9	...........
	8	0.12	7.46010E-001	-9.87447E-005	0.00000E+000	-7.36645E-005	-5.99601E-002	7.46279E-001	3.57900E+000	9	...........
	9	0.133333	7.34393E-001	-9.91333E-005	0.00000E+000	-7.28028E-005	-5.99601E-002	7.34650E-001	3.57900E+000	9	...........
	10	0.146667	7.22867E-001	-9.90354E-005	0.00000E+000	-7.15894E-005	-5.99601E-002	7.23124E-001	3.57900E+000	9	...........
	11	0.16	7.11358E-001	-9.95427E-005	0.00000E+000	-7.08105E-005	-5.99601E-002	7.11624E-001	3.57900E+000	9	...........
	12	0.173333	6.99916E-001	-9.89207E-005	0.00000E+000	-6.92362E-005	-5.99601E-002	7.00193E-001	3.57900E+000	9	...........
	13	0.186667	6.88491E-001	-9.97813E-005	0.00000E+000	-6.86985E-005	-5.99601E-002	6.88769E-001	3.57900E+000	9	...........
	14	0.2	6.77132E-001	-9.92854E-005	0.00000E+000	-6.72293E-005	-5.99601E-002	6.77384E-001	3.57900E+000	9	...........
	15	0.213333	6.65739E-001	-9.91010E-005	0.00000E+000	-6.59754E-005	-5.99601E-002	6.66022E-001	3.57900E+000	9	...........
	16	0.226667	6.54418E-001	-9.89114E-005	0.00000E+000	-6.47294E-005	-5.99601E-002	6.54658E-001	3.57900E+000	9	...........
	17	0.24	6.43085E-001	-9.93969E-005	0.00000E+000	-6.39207E-005	-5.99601E-002	6.43341E-001	3.57900E+000	9	...........
	18	0.253333	6.31769E-001	-9.82039E-005	0.00000E+000	-6.20422E-005	-5.99601E-002	6.32032E-001	3.57900E+000	9	...........
	19	0.266667	6.20521E-001	-9.94542E-005	0.00000E+000	-6.17134E-005	-5.99601E-002	6.20751E-001	3.57900E+000	9	...........
	20	0.28	6.09213E-001	-9.98366E-005	0.00000E+000	-6.08217E-005	-5.99601E-002	6.09493E-001	3.57900E+000	9	...........
	21	0.293333	5.97989E-001	-9.90572E-005	0.00000E+000	-5.92351E-005	-5.99601E-002	5.98276E-001	3.57900E+000	9	...........
	22	0.306667	5.86781E-001	-9.83988E-005	0.00000E+000	-5.77385E-005	-5.99601E-002	5.87060E-001	3.57900E+000	9	...........
	23	0.32	5.75612E-001	-9.79268E-005	0.00000E+000	-5.63678E-005	-5.99601E-002	5.75861E-001	3.57900E+000	9	...........
	24	0.333333	5.64500E-001	-9.83779E-005	0.00000E+000	-5.55343E-005	-5.99601E-002	5.64720E-001	3.57900E+000	9	...........
	25	0.346667	5.53366E-001	-9.91072E-005	0.00000E+000	-5.48426E-005	-5.99601E-002	5.53622E-001	3.57900E+000	9	...........
	26	0.36	5.42326E-001	-9.93437E-005	0.00000E+000	-5.38767E-005	-5.99601E-002	5.42554E-001	3.57900E+000	9	...........
	27	0.373333	5.31295E-001	-9.84019E-005	0.00000E+000	-5.22805E-005	-5.99601E-002	5.31526E-001	3.57900E+000	9	...........
	28	0.386667	5.20335E-001	-9.84488E-005	0.00000E+000	-5.12263E-005	-5.99601E-002	5.20574E-001	3.57900E+000	9	...........
	29	0.4	5.09400E-001	-9.89207E-005	0.00000E+000	-5.03902E-005	-5.99601E-002	5.09670E-001	3.57900E+000	9	...........
	30	0.413333	4.98548E-001	-9.91656E-005	0.00000E+000	-4.94388E-005	-5.99601E-002	4.98826E-001	3.57900E+000	9	...........
	31	0.426667	4.87810E-001	-9.81727E-005	0.00000E+000	-4.78896E-005	-5.99601E-002	4.88043E-001	3.57900E+000	9	...........
	32	0.44	4.77397E-001	-9.90999E-005	0.00000E+000	-4.73100E-005	-5.99601E-002	4.77491E-001	3.57900E+000	9	...........
	33	0.453333	4.66728E-001	-9.92510E-005	0.00000E+000	-4.63232E-005	-5.99601E-002	4.66820E-001	3.57900E+000	9	...........
	34	0.466667	4.56115E-001	-9.81893E-005	0.00000E+000	-4.47857E-005	-5.99601E-002	4.56205E-001	3.57900E+000	9	...........
	35	0.48	4.45581E-001	-9.88562E-005	0.00000E+000	-4.40484E-005	-5.99601E-002	4.45667E-001	3.57900E+000	9	...........
	36	0.493333	4.35112E-001	-9.89364E-005	0.00000E+000	-4.30484E-005	-5.99601E-002	4.35197E-001	3.57900E+000	9	...........
	37	0.506667	4.24710E-001	-9.92802E-005	0.00000E+000	-4.21653E-005	-5.99601E-002	4.24792E-001	3.57900E+000	9	...........
	38	0.52	4.14383E-001	-9.95365E-005	0.00000E+000	-4.12463E-005	-5.99601E-002	4.14457E-001	3.57900E+000	9	...........
	39	0.533333	4.04128E-001	-9.82529E-005	0.00000E+000	-3.97067E-005	-5.99601E-002	4.04198E-001	3.57900E+000	9	...........
	40	0.546667	3.93935E-001	-9.80476E-005	0.00000E+000	-3.86244E-005	-5.99601E-002	3.94002E-001	3.57900E+000	9	...........
	41	0.56	3.83812E-001	-9.87978E-005	0.00000E+000	-3.79198E-005	-5.99601E-002	3.83879E-001	3.57900E+000	9	...........
	42	0.573333	3.73759E-001	-9.89614E-005	0.00000E+000	-3.69877E-005	-5.99601E-002	3.73823E-001	3.57900E+000	9	...........
	43	0.586667	3.63775E-001	-9.95521E-005	0.00000E+000	-3.62146E-005	-5.99601E-002	3.63842E-001	3.57869E+000	9	...........
	44	0.6	3.53851E-001	-9.92114E-005	0.00000E+000	-3.51060E-005	-5.99601E-002	3.53919E-001	3.57850E+000	9	...........
	45	0.613333	3.43988E-001	-9.85175E-005	0.00000E+000	-3.38888E-005	-5.99601E-002	3.44053E-001	3.57850E+000	9	...........
	46	0.626667	3.34190E-001	-9.90510E-005	0.00000E+000	-3.31018E-005	-5.99601E-002	3.34249E-001	3.57850E+000	9	...........
	47	0.64	3.24456E-001	-9.93604E-005	0.00000E+000	-3.22381E-005	-5.99601E-002	3.24518E-001	3.57850E+000	9	...........
	48	0.653333	3.14783E-001	-9.91937E-005	0.00000E+000	-3.12245E-005	-5.99601E-002	3.14843E-001	3.57850E+000	9	...........
	49	0.666667	3.05163E-001	-9.95625E-005	0.00000E+000	-3.03828E-005	-5.99601E-002	3.05219E-001	3.57850E+000	9	...........
	50	0.68	2.95600E-001	-9.88926E-005	0.00000E+000	-2.92326E-005	-5.99601E-002	2.95651E-001	3.57850E+000	9	...........
	51	0.693333	2.86083E-001	-9.85780E-005	0.00000E+000	-2.82015E-005	-5.99601E-002	2.86138E-001	3.57850E+000	9	...........
	52	0.706667	2.76624E-001	-9.84186E-005	0.00000E+000	-2.72249E-005	-5.99601E-002	2.76677E-001	3.57850E+000	9	...........
	53	0.72	2.67215E-001	-9.85800E-005	0.00000E+000	-2.63421E-005	-5.99601E-002	2.67267E-001	3.57850E+000	9	...........
	54	0.733333	2.57859E-001	-9.93417E-005	0.00000E+000	-2.56162E-005	-5.99601E-002	2.57908E-001	3.57850E+000	9	...........
	55	0.746667	2.48562E-001	-9.92260E-005	0.00000E+000	-2.46639E-005	-5.99601E-002	2.48601E-001	3.57850E+000	9	...........
	56	0.76	2.39313E-001	-9.92385E-005	0.00000E+000	-2.37490E-005	-5.99601E-002	2.39346E-001	3.57850E+000	9	...........
	57	0.773333	2.30114E-001	-9.91552E-005	0.00000E+000	-2.28170E-005	-5.99601E-002	2.30153E-001	3.57850E+000	9	...........
	58	0.786667	2.20977E-001	-9.88259E-005	0.00000E+000	-2.18382E-005	-5.99601E-002	2.21009E-001	3.57850E+000	9	...........
	59	0.8	2.11887E-001	-9.89145E-005	0.00000E+000	-2.09587E-005	-5.99601E-002	2.11917E-001	3.57850E+000	9	...........
	60	0.813333	2.02852E-001	-9.83185E-005	0.00000E+000	-1.99441E-005	-5.99601E-002	2.02882E-001	3.57850E+000	9	...........
	61	0.826667	1.93878E-001	-9.86676E-005	0.00000E+000	-1.91294E-005	-5.99601E-002	1.93900E-001	3.57850E+000	9	...........
	62	0.84	1.84958E-001	-9.86811E-005	0.00000E+000	-1.82518E-005	-5.99601E-002	1.84982E-001	3.57850E+000	9	...........
	63	0.853333	1.76109E-001	-9.83498E-005	0.00000E+000	-1.73203E-005	-5.99601E-002	1.76127E-001	3.57850E+000	9	...........
	64	0.866667	1.67320E-001	-9.89687E-005	0.00000E+000	-1.65594E-005	-5.99601E-002	1.67342E-001	3.57850E+000	9	...........
	65	0.88	1.58605E-001	-9.96324E-005	0.00000E+000	-1.58022E-005	-5.99601E-002	1.58625E-001	3.57850E+000	9	...........
	66	0.893333	1.49960E-001	-9.87270E-005	0.00000E+000	-1.48051E-005	-5.99601E-002	1.49973E-001	3.57850E+000	9	...........
	67	0.906667	1.41382E-001	-9.89926E-005	0.00000E+000	-1.39958E-005	-5.99601E-002	1.41395E-001	3.57850E+000	9	...........
	68	0.92	1.32876E-001	-9.87884E-005	0.00000E+000	-1.31266E-005	-5.99601E-002	1.32885E-001	3.57850E+000	9	...........
	69	0.933333	1.24447E-001	-9.80164E-005	0.00000E+000	-1.21978E-005	-5.99601E-002	1.24455E-001	3.57850E+000	9	...........
	70	0.946667	1.16090E-001	-9.86842E-005	0.00000E+000	-1.14562E-005	-5.99601E-002	1.16097E-001	3.57850E+000	9	...........
	71	0.96	1.07806E-001	-9.92416E-005	0.00000E+000	-1.06988E-005	-5.99601E-002	1.07818E-001	3.57850E+000	9	...........
	72	0.97333	9.96075E-002	-9.82508E-005	0.00000E+000	-9.78651E-006	-5.99601E-002	9.96146E-002	3.57850E+000	9	...........
	73	0.98667	9.14793E-002	-9.91229E-005	0.00000E+000	-9.06770E-006	-5.99601E-002	9.14887E-002	3.57850E+000	9	...........
	74	1	8.34352E-002	-9.92291E-005	0.00000E+000	-8.27920E-006	-5.99601E-002	8.34353E-002	3.57850E+000	9	...........
	75	1.01333	7.54609E-002	-9.93344E-005	0.00000E+000	-7.49586E-006	-5.99601E-002	7.54601E-002	3.57850E+000	9	...........
	76	1.02667	6.75546E-002	-9.96469E-005	0.00000E+000	-6.73161E-006	-5.99601E-002	6.75556E-002	3.57850E+000	9	...........
	77	1.04	5.97178E-002	-9.89218E-005	0.00000E+000	-5.90739E-006	-5.99601E-002	5.97141E-002	3.57850E+000	9	...........
	78	1.05333	5.19575E-002	-9.84300E-005	0.00000E+000	-5.11417E-006	-5.99601E-002	5.19497E-002	3.57850E+000	9	...........
	79	1.06667	4.43002E-002	-9.92031E-005	0.00000E+000	-4.39471E-006	-5.99601E-002	4.42891E-002	3.57850E+000	9	...........
	80	1.08	3.66774E-002	-9.90572E-005	0.00000E+000	-3.63316E-006	-5.99601E-002	3.66658E-002	3.57850E+000	9	...........
	81	1.09333	2.91210E-002	-9.91948E-005	0.00000E+000	-2.88865E-006	-5.99601E-002	2.91025E-002	3.57850E+000	9	...........
	82	1.10667	2.16341E-002	-9.88061E-005	0.00000E+000	-2.13758E-006	-5.99601E-002	2.16121E-002	3.57850E+000	9	...........
	83	1.12	1.42154E-002	-9.83165E-005	0.00000E+000	-1.39760E-006	-5.99601E-002	1.41845E-002	3.57850E+000	9	...........
	84	1.13333	6.85940E-003	-9.75798E-005	0.00000E+000	-6.69339E-007	-5.99601E-002	6.82679E-003	3.57850E+000	9	...........
	85	1.14167	9.31232E-004	-9.92921E-005	0.00000E+000	-9.24639E-008	-5.99601E-002	8.94607E-004	3.57850E+000	9	...........
STARTTIMEOFFSET	QUANT	2084.462	Start Time Offset (s)
