EXPLAIN
TAG	PWR800_DISCHARGE
TITLE	LABEL	PWR Cyclic Charge Discharge (Cell) - Discharge Step	Test &Identifier
DATE	LABEL	13-7-2017	Date
TIME	LABEL	15:31:17	Time
NOTES	NOTES	2	&Notes...
	supercap test cell
	6M KOH
PSTAT	PSTAT	IFC5000-01520	Potentiostat
CAPACITY	QUANT	1.00000E-003	Capacity (A-hr)
CELLTYPE	SELECTOR	1	&Cell Type
WORKINGCONNECTION	SELECTOR	0	&Working Lead
MAXDISCHARGETIME	VARIABLEANDUNITS	1.00000E+002	s	1.00000E+002	second(s)	Max &Discharge Time
DISCHARGEMODE	MULTIPARAM	0	1.00000E-004	&Discharge Mode	Constant Current	Amp(s)
SAMPLETIME	QUANT	1.00000E-002	Sa&mple Period (s)
DISCHARGESTOPAT1	MULTIPARAM	3	0.00000E+000	Discharge Stop At &1	Voltage < Limit	V
DISCHARGESTOPAT2	MULTIPARAM	0	0.00000E+000	Discharge Stop At &2	None	N/A
AESBHCSELECTOR	TOGGLE	F	Save Both Half Cells
IRCOMP	TOGGLE	F	IR &Measure
EOC	QUANT	0	Open Circuit (V)
SEQUENCER	TOGGLE	TRUE	Run as Sequence
PSTATMODEL	IQUANT	53	Pstat Model
PSTATSECTION	LABEL	IFC5000-01520	Pstat Section
PSTATSERIALNO	LABEL	01520	Pstat Serial Number
CTRLMODE	IQUANT	0	Control Mode
ELECTROMETER	IQUANT	1	RE=0 or CS=1
IESTAB	IQUANT	0	I/E Stability
CASPEED	IQUANT	4	Control Amp Speed
CONVENTION	IQUANT	1	Current Convention
ICHRANGE	IQUANT	2	Ich Range
ICHRANGEMODE	TOGGLE	T	Ich Auto Range
ICHOFFSETENABLE	TOGGLE	F	Ich Offset Enable
ICHOFFSET	QUANT	0	Ich Offset (V)
ICHFILTER	IQUANT	1	Ich Filter
VCHRANGE	IQUANT	2	Vch Range
VCHRANGEMODE	TOGGLE	T	Vch Auto Range
VCHOFFSETENABLE	TOGGLE	F	Vch Offset Enable
VCHOFFSET	QUANT	0	Vch Offset (V)
VCHFILTER	IQUANT	1	Vch Filter
IERANGELOWERLIMIT	IQUANT	9	I/E Range Lower Limit
IERANGEMODE	TOGGLE	F	I/E AutoRange
IERANGE	IQUANT	9	I/E Range
ACHSELECT	IQUANT	1	Ach Select
ACHRANGE	IQUANT	2	Ach Range
ACHOFFSETENABLE	TOGGLE	F	Ach Offset Enable
ACHOFFSET	QUANT	0	Ach Offset (V)
ACHFILTER	IQUANT	1	Ach Filter
CABLEID	IQUANT	14	Cable ID
DCCALDATE	LABEL	5-7-2017	DC Calibration Date
ACCALDATE	LABEL	12/3/2015	AC Calibration Date
FRAMEWORKVERSION	QUANT	7.01	Framework Version
INSTRUMENTVERSION	LABEL	4.00	Instrument Version
CURVE	TABLE	88
	Pt	T	Vf	Im	Vu	Pwr	Sig	Ach	Temp	IERange	Over
	#	s	V	A	V	W	V	V	deg C	#	bits
	0	0.013333	8.48463E-001	-9.78705E-005	0.00000E+000	-8.30395E-005	-5.99601E-002	8.48828E-001	3.57910E+000	9	...........
	1	0.026667	8.34449E-001	-9.90926E-005	0.00000E+000	-8.26877E-005	-5.99601E-002	8.34788E-001	3.57910E+000	9	...........
	2	0.04	8.21290E-001	-9.88634E-005	0.00000E+000	-8.11955E-005	-5.99601E-002	8.21600E-001	3.57910E+000	9	...........
	3	0.053333	8.08669E-001	-9.90103E-005	0.00000E+000	-8.00666E-005	-5.99601E-002	8.08986E-001	3.57910E+000	9	...........
	4	0.066667	7.96501E-001	-9.88030E-005	0.00000E+000	-7.86967E-005	-5.99601E-002	7.96795E-001	3.57910E+000	9	...........
	5	0.08	7.84585E-001	-9.86353E-005	0.00000E+000	-7.73878E-005	-5.99601E-002	7.84886E-001	3.57910E+000	9	...........
	6	0.093333	7.72915E-001	-9.84217E-005	0.00000E+000	-7.60716E-005	-5.99601E-002	7.73212E-001	3.57910E+000	9	...........
	7	0.106667	7.61394E-001	-9.84748E-005	0.00000E+000	-7.49781E-005	-5.99601E-002	7.61661E-001	3.57910E+000	9	...........
	8	0.12	7.49984E-001	-9.85811E-005	0.00000E+000	-7.39342E-005	-5.99601E-002	7.50262E-001	3.57910E+000	9	...........
	9	0.133333	7.38682E-001	-9.91072E-005	0.00000E+000	-7.32087E-005	-5.99601E-002	7.38950E-001	3.57910E+000	9	...........
	10	0.146667	7.27469E-001	-9.94115E-005	0.00000E+000	-7.23188E-005	-5.99601E-002	7.27724E-001	3.57910E+000	9	...........
	11	0.16	7.16279E-001	-9.93698E-005	0.00000E+000	-7.11765E-005	-5.99601E-002	7.16550E-001	3.57910E+000	9	...........
	12	0.173333	7.05152E-001	-9.96490E-005	0.00000E+000	-7.02677E-005	-5.99601E-002	7.05430E-001	3.57910E+000	9	...........
	13	0.186667	6.94082E-001	-9.90197E-005	0.00000E+000	-6.87278E-005	-5.99601E-002	6.94354E-001	3.57910E+000	9	...........
	14	0.2	6.83041E-001	-9.90114E-005	0.00000E+000	-6.76289E-005	-5.99601E-002	6.83305E-001	3.57910E+000	9	...........
	15	0.213333	6.72025E-001	-9.96365E-005	0.00000E+000	-6.69582E-005	-5.99601E-002	6.72295E-001	3.57910E+000	9	...........
	16	0.226667	6.61011E-001	-9.89239E-005	0.00000E+000	-6.53897E-005	-5.99601E-002	6.61277E-001	3.57910E+000	9	...........
	17	0.24	6.50015E-001	-9.92562E-005	0.00000E+000	-6.45181E-005	-5.99601E-002	6.50282E-001	3.57910E+000	9	...........
	18	0.253333	6.39031E-001	-9.87426E-005	0.00000E+000	-6.30996E-005	-5.99601E-002	6.39306E-001	3.57910E+000	9	...........
	19	0.266667	6.28077E-001	-9.91937E-005	0.00000E+000	-6.23013E-005	-5.99601E-002	6.28346E-001	3.57910E+000	9	...........
	20	0.28	6.17140E-001	-9.93198E-005	0.00000E+000	-6.12942E-005	-5.99601E-002	6.17402E-001	3.57910E+000	9	...........
	21	0.293333	6.06179E-001	-9.89582E-005	0.00000E+000	-5.99864E-005	-5.99601E-002	6.06486E-001	3.57910E+000	9	...........
	22	0.306667	5.95308E-001	-9.87332E-005	0.00000E+000	-5.87766E-005	-5.99601E-002	5.95611E-001	3.57910E+000	9	...........
	23	0.32	5.84402E-001	-9.93062E-005	0.00000E+000	-5.80348E-005	-5.99601E-002	5.84728E-001	3.57910E+000	9	...........
	24	0.333333	5.73601E-001	-9.85061E-005	0.00000E+000	-5.65032E-005	-5.99601E-002	5.73877E-001	3.57910E+000	9	...........
	25	0.346667	5.62762E-001	-9.81685E-005	0.00000E+000	-5.52455E-005	-5.99601E-002	5.63045E-001	3.57910E+000	9	...........
	26	0.36	5.51979E-001	-9.87936E-005	0.00000E+000	-5.45320E-005	-5.99601E-002	5.52230E-001	3.57910E+000	9	...........
	27	0.373333	5.41225E-001	-9.94594E-005	0.00000E+000	-5.38299E-005	-5.99601E-002	5.41489E-001	3.57910E+000	9	...........
	28	0.386667	5.30494E-001	-9.92864E-005	0.00000E+000	-5.26708E-005	-5.99601E-002	5.30752E-001	3.57910E+000	9	...........
	29	0.4	5.19844E-001	-9.90458E-005	0.00000E+000	-5.14883E-005	-5.99601E-002	5.20066E-001	3.57910E+000	9	...........
	30	0.413333	5.09170E-001	-9.92781E-005	0.00000E+000	-5.05494E-005	-5.99601E-002	5.09438E-001	3.57910E+000	9	...........
	31	0.426667	4.98578E-001	-9.82998E-005	0.00000E+000	-4.90101E-005	-5.99601E-002	4.98835E-001	3.57910E+000	9	...........
	32	0.44	4.88121E-001	-9.93062E-005	0.00000E+000	-4.84735E-005	-5.99601E-002	4.88349E-001	3.57910E+000	9	...........
	33	0.453333	4.77957E-001	-9.95844E-005	0.00000E+000	-4.75970E-005	-5.99601E-002	4.78058E-001	3.57910E+000	9	...........
	34	0.466667	4.67534E-001	-9.94677E-005	0.00000E+000	-4.65045E-005	-5.99601E-002	4.67629E-001	3.57910E+000	9	...........
	35	0.48	4.57165E-001	-9.87176E-005	0.00000E+000	-4.51302E-005	-5.99601E-002	4.57261E-001	3.57910E+000	9	...........
	36	0.493333	4.46852E-001	-9.89228E-005	0.00000E+000	-4.42039E-005	-5.99601E-002	4.46949E-001	3.57910E+000	9	...........
	37	0.506667	4.36599E-001	-9.90447E-005	0.00000E+000	-4.32428E-005	-5.99601E-002	4.36692E-001	3.57910E+000	9	...........
	38	0.52	4.26411E-001	-9.94281E-005	0.00000E+000	-4.23972E-005	-5.99601E-002	4.26499E-001	3.57910E+000	9	...........
	39	0.533333	4.16284E-001	-9.89020E-005	0.00000E+000	-4.11713E-005	-5.99601E-002	4.16371E-001	3.57910E+000	9	...........
	40	0.546667	4.06221E-001	-9.89207E-005	0.00000E+000	-4.01837E-005	-5.99601E-002	4.06303E-001	3.57910E+000	9	...........
	41	0.56	3.96220E-001	-9.95063E-005	0.00000E+000	-3.94264E-005	-5.99601E-002	3.96299E-001	3.57910E+000	9	...........
	42	0.573333	3.86278E-001	-9.91812E-005	0.00000E+000	-3.83115E-005	-5.99601E-002	3.86353E-001	3.57910E+000	9	...........
	43	0.586667	3.76405E-001	-9.86238E-005	0.00000E+000	-3.71225E-005	-5.99601E-002	3.76480E-001	3.57910E+000	9	...........
	44	0.6	3.66581E-001	-9.97470E-005	0.00000E+000	-3.65654E-005	-5.99601E-002	3.66651E-001	3.57910E+000	9	...........
	45	0.613333	3.56818E-001	-9.94229E-005	0.00000E+000	-3.54759E-005	-5.99601E-002	3.56889E-001	3.57895E+000	9	...........
	46	0.626667	3.47110E-001	-9.93427E-005	0.00000E+000	-3.44829E-005	-5.99601E-002	3.47174E-001	3.57850E+000	9	...........
	47	0.64	3.37458E-001	-9.96178E-005	0.00000E+000	-3.36168E-005	-5.99601E-002	3.37522E-001	3.57850E+000	9	...........
	48	0.653333	3.27868E-001	-9.89572E-005	0.00000E+000	-3.24449E-005	-5.99601E-002	3.27928E-001	3.57850E+000	9	...........
	49	0.666667	3.18322E-001	-9.96667E-005	0.00000E+000	-3.17261E-005	-5.99601E-002	3.18387E-001	3.57850E+000	9	...........
	50	0.68	3.08825E-001	-9.90176E-005	0.00000E+000	-3.05791E-005	-5.99601E-002	3.08891E-001	3.57850E+000	9	...........
	51	0.693333	2.99387E-001	-9.87707E-005	0.00000E+000	-2.95707E-005	-5.99601E-002	2.99445E-001	3.57850E+000	9	...........
	52	0.706667	2.89991E-001	-9.90729E-005	0.00000E+000	-2.87303E-005	-5.99601E-002	2.90050E-001	3.57850E+000	9	...........
	53	0.72	2.80655E-001	-9.84613E-005	0.00000E+000	-2.76337E-005	-5.99601E-002	2.80707E-001	3.57850E+000	9	...........
	54	0.733333	2.71358E-001	-9.94875E-005	0.00000E+000	-2.69967E-005	-5.99601E-002	2.71413E-001	3.57850E+000	9	...........
	55	0.746667	2.62109E-001	-9.91093E-005	0.00000E+000	-2.59774E-005	-5.99601E-002	2.62162E-001	3.57850E+000	9	...........
	56	0.76	2.52905E-001	-9.99730E-005	0.00000E+000	-2.52836E-005	-5.99601E-002	2.52957E-001	3.57850E+000	9	...........
	57	0.773333	2.43752E-001	-9.91750E-005	0.00000E+000	-2.41741E-005	-5.99601E-002	2.43797E-001	3.57850E+000	9	...........
	58	0.786667	2.34641E-001	-9.85905E-005	0.00000E+000	-2.31334E-005	-5.99601E-002	2.34677E-001	3.57850E+000	9	...........
	59	0.8	2.25581E-001	-9.91364E-005	0.00000E+000	-2.23633E-005	-5.99601E-002	2.25617E-001	3.57850E+000	9	...........
	60	0.813333	2.16565E-001	-9.89166E-005	0.00000E+000	-2.14218E-005	-5.99601E-002	2.16601E-001	3.57850E+000	9	...........
	61	0.826667	2.07599E-001	-9.89999E-005	0.00000E+000	-2.05523E-005	-5.99601E-002	2.07630E-001	3.57850E+000	9	...........
	62	0.84	1.98676E-001	-9.88582E-005	0.00000E+000	-1.96408E-005	-5.99601E-002	1.98712E-001	3.57850E+000	9	...........
	63	0.853333	1.89810E-001	-9.85540E-005	0.00000E+000	-1.87066E-005	-5.99601E-002	1.89844E-001	3.57850E+000	9	...........
	64	0.866667	1.80996E-001	-9.85603E-005	0.00000E+000	-1.78390E-005	-5.99601E-002	1.81033E-001	3.57850E+000	9	...........
	65	0.88	1.72250E-001	-9.86259E-005	0.00000E+000	-1.69884E-005	-5.99601E-002	1.72277E-001	3.57850E+000	9	...........
	66	0.893333	1.63559E-001	-9.85884E-005	0.00000E+000	-1.61251E-005	-5.99601E-002	1.63589E-001	3.57850E+000	9	...........
	67	0.906667	1.54932E-001	-9.89426E-005	0.00000E+000	-1.53294E-005	-5.99601E-002	1.54953E-001	3.57850E+000	9	...........
	68	0.92	1.46373E-001	-9.92979E-005	0.00000E+000	-1.45346E-005	-5.99601E-002	1.46393E-001	3.57850E+000	9	...........
	69	0.933333	1.37877E-001	-9.85300E-005	0.00000E+000	-1.35850E-005	-5.99601E-002	1.37893E-001	3.57850E+000	9	...........
	70	0.946667	1.29449E-001	-9.82164E-005	0.00000E+000	-1.27140E-005	-5.99601E-002	1.29467E-001	3.57850E+000	9	...........
	71	0.96	1.21093E-001	-9.97595E-005	0.00000E+000	-1.20802E-005	-5.99601E-002	1.21113E-001	3.57850E+000	9	...........
	72	0.97333	1.12811E-001	-9.80383E-005	0.00000E+000	-1.10598E-005	-5.99601E-002	1.12830E-001	3.57850E+000	9	...........
	73	0.98667	1.04601E-001	-9.99970E-005	0.00000E+000	-1.04598E-005	-5.99601E-002	1.04612E-001	3.57850E+000	9	...........
	74	1	9.64665E-002	-9.82831E-005	0.00000E+000	-9.48102E-006	-5.99601E-002	9.64736E-002	3.57850E+000	9	...........
	75	1.01333	8.83985E-002	-9.81623E-005	0.00000E+000	-8.67740E-006	-5.99601E-002	8.84080E-002	3.57850E+000	9	...........
	76	1.02667	8.04086E-002	-9.92864E-005	0.00000E+000	-7.98349E-006	-5.99601E-002	8.04122E-002	3.57850E+000	9	...........
	77	1.04	7.24877E-002	-9.88166E-005	0.00000E+000	-7.16298E-006	-5.99601E-002	7.24861E-002	3.57850E+000	9	...........
	78	1.05333	6.46383E-002	-9.89009E-005	0.00000E+000	-6.39279E-006	-5.99601E-002	6.46320E-002	3.57850E+000	9	...........
	79	1.06667	5.68586E-002	-9.79633E-005	0.00000E+000	-5.57006E-006	-5.99601E-002	5.68514E-002	3.57850E+000	9	...........
	80	1.08	4.91593E-002	-9.89728E-005	0.00000E+000	-4.86543E-006	-5.99601E-002	4.91483E-002	3.57850E+000	9	...........
	81	1.09333	4.15384E-002	-9.82727E-005	0.00000E+000	-4.08209E-006	-5.99601E-002	4.15313E-002	3.57850E+000	9	...........
	82	1.10667	3.39583E-002	-9.87124E-005	0.00000E+000	-3.35210E-006	-5.99601E-002	3.39484E-002	3.57850E+000	9	...........
	83	1.12	2.64487E-002	-9.83956E-005	0.00000E+000	-2.60243E-006	-5.99601E-002	2.64293E-002	3.57850E+000	9	...........
	84	1.13333	1.90033E-002	-9.91395E-005	0.00000E+000	-1.88398E-006	-5.99601E-002	1.89832E-002	3.57850E+000	9	...........
	85	1.14667	1.16247E-002	-9.86144E-005	0.00000E+000	-1.14637E-006	-5.99601E-002	1.15969E-002	3.57850E+000	9	...........
	86	1.16	4.30610E-003	-9.87749E-005	0.00000E+000	-4.25334E-007	-5.99601E-002	4.27342E-003	3.57850E+000	9	...........
	87	1.16333	-2.32140E-004	-9.86561E-005	0.00000E+000	2.29020E-008	-5.99601E-002	-2.68839E-004	3.57850E+000	9	...........
STARTTIMEOFFSET	QUANT	1324.479	Start Time Offset (s)
