EXPLAIN
TAG	PWR800_DISCHARGE
TITLE	LABEL	PWR Cyclic Charge Discharge (Cell) - Discharge Step	Test &Identifier
DATE	LABEL	13-7-2017	Date
TIME	LABEL	15:10:38	Time
NOTES	NOTES	2	&Notes...
	supercap test cell
	6M KOH
PSTAT	PSTAT	IFC5000-01520	Potentiostat
CAPACITY	QUANT	1.00000E-003	Capacity (A-hr)
CELLTYPE	SELECTOR	1	&Cell Type
WORKINGCONNECTION	SELECTOR	0	&Working Lead
MAXDISCHARGETIME	VARIABLEANDUNITS	1.00000E+002	s	1.00000E+002	second(s)	Max &Discharge Time
DISCHARGEMODE	MULTIPARAM	0	1.00000E-004	&Discharge Mode	Constant Current	Amp(s)
SAMPLETIME	QUANT	1.00000E-002	Sa&mple Period (s)
DISCHARGESTOPAT1	MULTIPARAM	3	0.00000E+000	Discharge Stop At &1	Voltage < Limit	V
DISCHARGESTOPAT2	MULTIPARAM	0	0.00000E+000	Discharge Stop At &2	None	N/A
AESBHCSELECTOR	TOGGLE	F	Save Both Half Cells
IRCOMP	TOGGLE	F	IR &Measure
EOC	QUANT	0	Open Circuit (V)
SEQUENCER	TOGGLE	TRUE	Run as Sequence
PSTATMODEL	IQUANT	53	Pstat Model
PSTATSECTION	LABEL	IFC5000-01520	Pstat Section
PSTATSERIALNO	LABEL	01520	Pstat Serial Number
CTRLMODE	IQUANT	0	Control Mode
ELECTROMETER	IQUANT	1	RE=0 or CS=1
IESTAB	IQUANT	0	I/E Stability
CASPEED	IQUANT	4	Control Amp Speed
CONVENTION	IQUANT	1	Current Convention
ICHRANGE	IQUANT	2	Ich Range
ICHRANGEMODE	TOGGLE	T	Ich Auto Range
ICHOFFSETENABLE	TOGGLE	F	Ich Offset Enable
ICHOFFSET	QUANT	0	Ich Offset (V)
ICHFILTER	IQUANT	1	Ich Filter
VCHRANGE	IQUANT	2	Vch Range
VCHRANGEMODE	TOGGLE	T	Vch Auto Range
VCHOFFSETENABLE	TOGGLE	F	Vch Offset Enable
VCHOFFSET	QUANT	0	Vch Offset (V)
VCHFILTER	IQUANT	1	Vch Filter
IERANGELOWERLIMIT	IQUANT	9	I/E Range Lower Limit
IERANGEMODE	TOGGLE	F	I/E AutoRange
IERANGE	IQUANT	9	I/E Range
ACHSELECT	IQUANT	1	Ach Select
ACHRANGE	IQUANT	2	Ach Range
ACHOFFSETENABLE	TOGGLE	F	Ach Offset Enable
ACHOFFSET	QUANT	0	Ach Offset (V)
ACHFILTER	IQUANT	1	Ach Filter
CABLEID	IQUANT	14	Cable ID
DCCALDATE	LABEL	5-7-2017	DC Calibration Date
ACCALDATE	LABEL	12/3/2015	AC Calibration Date
FRAMEWORKVERSION	QUANT	7.01	Framework Version
INSTRUMENTVERSION	LABEL	4.00	Instrument Version
CURVE	TABLE	92
	Pt	T	Vf	Im	Vu	Pwr	Sig	Ach	Temp	IERange	Over
	#	s	V	A	V	W	V	V	deg C	#	bits
	0	0.013333	8.54417E-001	-9.89718E-005	0.00000E+000	-8.45632E-005	-5.99601E-002	8.54727E-001	3.57870E+000	9	...........
	1	0.026667	8.41177E-001	-9.80549E-005	0.00000E+000	-8.24816E-005	-5.99601E-002	8.41476E-001	3.57870E+000	9	...........
	2	0.04	8.28764E-001	-9.78226E-005	0.00000E+000	-8.10718E-005	-5.99601E-002	8.29076E-001	3.57870E+000	9	...........
	3	0.053333	8.16910E-001	-9.94719E-005	0.00000E+000	-8.12596E-005	-5.99601E-002	8.17217E-001	3.57870E+000	9	...........
	4	0.066667	8.05463E-001	-9.84477E-005	0.00000E+000	-7.92960E-005	-5.99601E-002	8.05723E-001	3.57870E+000	9	...........
	5	0.08	7.94293E-001	-9.80956E-005	0.00000E+000	-7.79166E-005	-5.99601E-002	7.94570E-001	3.57870E+000	9	...........
	6	0.093333	7.83332E-001	-9.94511E-005	0.00000E+000	-7.79032E-005	-5.99601E-002	7.83626E-001	3.57870E+000	9	...........
	7	0.106667	7.72577E-001	-9.82519E-005	0.00000E+000	-7.59071E-005	-5.99601E-002	7.72857E-001	3.57870E+000	9	...........
	8	0.12	7.61936E-001	-9.74319E-005	0.00000E+000	-7.42368E-005	-5.99601E-002	7.62191E-001	3.57870E+000	9	...........
	9	0.133333	7.51412E-001	-9.84831E-005	0.00000E+000	-7.40014E-005	-5.99601E-002	7.51694E-001	3.57870E+000	9	...........
	10	0.146667	7.40929E-001	-9.91593E-005	0.00000E+000	-7.34700E-005	-5.99601E-002	7.41225E-001	3.57870E+000	9	...........
	11	0.16	7.30518E-001	-9.84467E-005	0.00000E+000	-7.19170E-005	-5.99601E-002	7.30811E-001	3.57870E+000	9	...........
	12	0.173333	7.20184E-001	-9.90604E-005	0.00000E+000	-7.13417E-005	-5.99601E-002	7.20488E-001	3.57870E+000	9	...........
	13	0.186667	7.09856E-001	-9.86947E-005	0.00000E+000	-7.00590E-005	-5.99601E-002	7.10149E-001	3.57870E+000	9	...........
	14	0.2	6.99576E-001	-9.83279E-005	0.00000E+000	-6.87879E-005	-5.99601E-002	6.99882E-001	3.57870E+000	9	...........
	15	0.213333	6.89300E-001	-9.82341E-005	0.00000E+000	-6.77128E-005	-5.99601E-002	6.89602E-001	3.57870E+000	9	...........
	16	0.226667	6.79090E-001	-9.98022E-005	0.00000E+000	-6.77747E-005	-5.99601E-002	6.79393E-001	3.57870E+000	9	...........
	17	0.24	6.68851E-001	-9.95917E-005	0.00000E+000	-6.66120E-005	-5.99601E-002	6.69148E-001	3.57870E+000	9	...........
	18	0.253333	6.58621E-001	-9.90010E-005	0.00000E+000	-6.52041E-005	-5.99601E-002	6.58912E-001	3.57870E+000	9	...........
	19	0.266667	6.48394E-001	-9.92625E-005	0.00000E+000	-6.43612E-005	-5.99601E-002	6.48699E-001	3.57870E+000	9	...........
	20	0.28	6.38192E-001	-9.88416E-005	0.00000E+000	-6.30799E-005	-5.99601E-002	6.38487E-001	3.57870E+000	9	...........
	21	0.293333	6.27981E-001	-9.84019E-005	0.00000E+000	-6.17945E-005	-5.99601E-002	6.28267E-001	3.57870E+000	9	...........
	22	0.306667	6.17821E-001	-9.88134E-005	0.00000E+000	-6.10490E-005	-5.99601E-002	6.18079E-001	3.57870E+000	9	...........
	23	0.32	6.07566E-001	-9.89457E-005	0.00000E+000	-6.01161E-005	-5.99601E-002	6.07851E-001	3.57870E+000	9	...........
	24	0.333333	5.97402E-001	-9.96303E-005	0.00000E+000	-5.95193E-005	-5.99601E-002	5.97658E-001	3.57870E+000	9	...........
	25	0.346667	5.87217E-001	-9.80497E-005	0.00000E+000	-5.75765E-005	-5.99601E-002	5.87465E-001	3.57870E+000	9	...........
	26	0.36	5.77061E-001	-9.94886E-005	0.00000E+000	-5.74110E-005	-5.99601E-002	5.77287E-001	3.57870E+000	9	...........
	27	0.373333	5.66932E-001	-9.90322E-005	0.00000E+000	-5.61446E-005	-5.99601E-002	5.67147E-001	3.57870E+000	9	...........
	28	0.386667	5.56767E-001	-9.97001E-005	0.00000E+000	-5.55097E-005	-5.99601E-002	5.56982E-001	3.57870E+000	9	...........
	29	0.4	5.46676E-001	-9.73527E-005	0.00000E+000	-5.32204E-005	-5.99601E-002	5.46865E-001	3.57870E+000	9	...........
	30	0.413333	5.36548E-001	-9.86165E-005	0.00000E+000	-5.29125E-005	-5.99601E-002	5.36765E-001	3.57870E+000	9	...........
	31	0.426667	5.26480E-001	-9.91208E-005	0.00000E+000	-5.21851E-005	-5.99601E-002	5.26697E-001	3.57870E+000	9	...........
	32	0.44	5.16452E-001	-9.93979E-005	0.00000E+000	-5.13343E-005	-5.99601E-002	5.16659E-001	3.57870E+000	9	...........
	33	0.453333	5.06367E-001	-9.85436E-005	0.00000E+000	-4.98993E-005	-5.99601E-002	5.06651E-001	3.57870E+000	9	...........
	34	0.466667	4.96400E-001	-9.96251E-005	0.00000E+000	-4.94539E-005	-5.99601E-002	4.96669E-001	3.57870E+000	9	...........
	35	0.48	4.86555E-001	-9.85061E-005	0.00000E+000	-4.79286E-005	-5.99601E-002	4.86751E-001	3.57870E+000	9	...........
	36	0.493333	4.76900E-001	-9.84050E-005	0.00000E+000	-4.69294E-005	-5.99601E-002	4.77003E-001	3.57870E+000	9	...........
	37	0.506667	4.67008E-001	-9.89051E-005	0.00000E+000	-4.61895E-005	-5.99601E-002	4.67115E-001	3.57870E+000	9	...........
	38	0.52	4.57159E-001	-9.90583E-005	0.00000E+000	-4.52854E-005	-5.99601E-002	4.57258E-001	3.57870E+000	9	...........
	39	0.533333	4.47351E-001	-9.89437E-005	0.00000E+000	-4.42626E-005	-5.99601E-002	4.47445E-001	3.57870E+000	9	...........
	40	0.546667	4.37579E-001	-9.88353E-005	0.00000E+000	-4.32483E-005	-5.99601E-002	4.37674E-001	3.57870E+000	9	...........
	41	0.56	4.27856E-001	-9.87613E-005	0.00000E+000	-4.22556E-005	-5.99601E-002	4.27950E-001	3.57870E+000	9	...........
	42	0.573333	4.18173E-001	-9.93792E-005	0.00000E+000	-4.15577E-005	-5.99601E-002	4.18264E-001	3.57870E+000	9	...........
	43	0.586667	4.08539E-001	-1.00021E-004	0.00000E+000	-4.08625E-005	-5.99601E-002	4.08625E-001	3.57870E+000	9	...........
	44	0.6	3.98948E-001	-9.87311E-005	0.00000E+000	-3.93886E-005	-5.99601E-002	3.99031E-001	3.57870E+000	9	...........
	45	0.613333	3.89399E-001	-9.90614E-005	0.00000E+000	-3.85744E-005	-5.99601E-002	3.89479E-001	3.57870E+000	9	...........
	46	0.626667	3.79902E-001	-1.00136E-004	0.00000E+000	-3.80418E-005	-5.99601E-002	3.79976E-001	3.57870E+000	9	...........
	47	0.64	3.70446E-001	-9.91010E-005	0.00000E+000	-3.67115E-005	-5.99601E-002	3.70519E-001	3.57870E+000	9	...........
	48	0.653333	3.61030E-001	-9.91802E-005	0.00000E+000	-3.58070E-005	-5.99601E-002	3.61104E-001	3.57870E+000	9	...........
	49	0.666667	3.51659E-001	-9.81154E-005	0.00000E+000	-3.45032E-005	-5.99601E-002	3.51728E-001	3.57870E+000	9	...........
	50	0.68	3.42334E-001	-9.78132E-005	0.00000E+000	-3.34848E-005	-5.99601E-002	3.42404E-001	3.57870E+000	9	...........
	51	0.693333	3.33049E-001	-9.86551E-005	0.00000E+000	-3.28570E-005	-5.99601E-002	3.33123E-001	3.57870E+000	9	...........
	52	0.706667	3.23815E-001	-9.80924E-005	0.00000E+000	-3.17638E-005	-5.99601E-002	3.23883E-001	3.57870E+000	9	...........
	53	0.72	3.14614E-001	-9.93156E-005	0.00000E+000	-3.12461E-005	-5.99601E-002	3.14677E-001	3.57870E+000	9	...........
	54	0.733333	3.05449E-001	-9.95834E-005	0.00000E+000	-3.04177E-005	-5.99601E-002	3.05517E-001	3.57870E+000	9	...........
	55	0.746667	2.96323E-001	-9.88551E-005	0.00000E+000	-2.92930E-005	-5.99601E-002	2.96386E-001	3.57870E+000	9	...........
	56	0.76	2.87245E-001	-9.84706E-005	0.00000E+000	-2.82852E-005	-5.99601E-002	2.87301E-001	3.57870E+000	9	...........
	57	0.773333	2.78198E-001	-9.89666E-005	0.00000E+000	-2.75323E-005	-5.99601E-002	2.78261E-001	3.57870E+000	9	...........
	58	0.786667	2.69186E-001	-9.86009E-005	0.00000E+000	-2.65419E-005	-5.99601E-002	2.69243E-001	3.57870E+000	9	...........
	59	0.8	2.60216E-001	-9.77695E-005	0.00000E+000	-2.54412E-005	-5.99601E-002	2.60267E-001	3.57870E+000	9	...........
	60	0.813333	2.51279E-001	-9.93969E-005	0.00000E+000	-2.49764E-005	-5.99601E-002	2.51329E-001	3.57870E+000	9	...........
	61	0.826667	2.42385E-001	-9.91739E-005	0.00000E+000	-2.40383E-005	-5.99601E-002	2.42430E-001	3.57870E+000	9	...........
	62	0.84	2.33521E-001	-9.95136E-005	0.00000E+000	-2.32385E-005	-5.99601E-002	2.33563E-001	3.57870E+000	9	...........
	63	0.853333	2.24698E-001	-9.86123E-005	0.00000E+000	-2.21580E-005	-5.99601E-002	2.24741E-001	3.57870E+000	9	...........
	64	0.866667	2.15907E-001	-9.84498E-005	0.00000E+000	-2.12560E-005	-5.99601E-002	2.15946E-001	3.57870E+000	9	...........
	65	0.88	2.07149E-001	-9.90416E-005	0.00000E+000	-2.05164E-005	-5.99601E-002	2.07192E-001	3.57870E+000	9	...........
	66	0.893333	1.98437E-001	-9.77413E-005	0.00000E+000	-1.93955E-005	-5.99601E-002	1.98480E-001	3.57870E+000	9	...........
	67	0.906667	1.89770E-001	-9.88916E-005	0.00000E+000	-1.87666E-005	-5.99601E-002	1.89805E-001	3.57870E+000	9	...........
	68	0.92	1.81149E-001	-9.83529E-005	0.00000E+000	-1.78165E-005	-5.99601E-002	1.81175E-001	3.57945E+000	9	...........
	69	0.933333	1.72560E-001	-1.00001E-004	0.00000E+000	-1.72562E-005	-5.99601E-002	1.72588E-001	3.58020E+000	9	...........
	70	0.946667	1.64030E-001	-9.85436E-005	0.00000E+000	-1.61641E-005	-5.99601E-002	1.64051E-001	3.58020E+000	9	...........
	71	0.96	1.55542E-001	-9.89978E-005	0.00000E+000	-1.53983E-005	-5.99601E-002	1.55566E-001	3.58020E+000	9	...........
	72	0.97333	1.47113E-001	-9.87686E-005	0.00000E+000	-1.45302E-005	-5.99601E-002	1.47133E-001	3.58020E+000	9	...........
	73	0.98667	1.38736E-001	-9.96636E-005	0.00000E+000	-1.38269E-005	-5.99601E-002	1.38750E-001	3.58020E+000	9	...........
	74	1	1.30416E-001	-9.86603E-005	0.00000E+000	-1.28669E-005	-5.99601E-002	1.30430E-001	3.58020E+000	9	...........
	75	1.01333	1.22154E-001	-9.80424E-005	0.00000E+000	-1.19763E-005	-5.99601E-002	1.22171E-001	3.58020E+000	9	...........
	76	1.02667	1.13951E-001	-9.88739E-005	0.00000E+000	-1.12668E-005	-5.99601E-002	1.13966E-001	3.58020E+000	9	...........
	77	1.04	1.05811E-001	-9.91573E-005	0.00000E+000	-1.04919E-005	-5.99601E-002	1.05826E-001	3.58020E+000	9	...........
	78	1.05333	9.77431E-002	-9.85915E-005	0.00000E+000	-9.63664E-006	-5.99601E-002	9.77509E-002	3.58020E+000	9	...........
	79	1.06667	8.97282E-002	-9.89155E-005	0.00000E+000	-8.87551E-006	-5.99601E-002	8.97374E-002	3.58020E+000	9	...........
	80	1.08	8.17846E-002	-9.83123E-005	0.00000E+000	-8.04043E-006	-5.99601E-002	8.17897E-002	3.58020E+000	9	...........
	81	1.09333	7.39029E-002	-9.88541E-005	0.00000E+000	-7.30560E-006	-5.99601E-002	7.38983E-002	3.58020E+000	9	...........
	82	1.10667	6.60765E-002	-9.82852E-005	0.00000E+000	-6.49434E-006	-5.99601E-002	6.60754E-002	3.58020E+000	9	...........
	83	1.12	5.83185E-002	-9.89947E-005	0.00000E+000	-5.77322E-006	-5.99601E-002	5.83180E-002	3.58020E+000	9	...........
	84	1.13333	5.06343E-002	-9.82581E-005	0.00000E+000	-4.97523E-006	-5.99601E-002	5.06329E-002	3.58020E+000	9	...........
	85	1.14667	4.30361E-002	-9.86196E-005	0.00000E+000	-4.24420E-006	-5.99601E-002	4.30356E-002	3.58020E+000	9	...........
	86	1.16	3.54677E-002	-9.99137E-005	0.00000E+000	-3.54371E-006	-5.99601E-002	3.54555E-002	3.58020E+000	9	...........
	87	1.17333	2.79581E-002	-9.83863E-005	0.00000E+000	-2.75069E-006	-5.99601E-002	2.79396E-002	3.58020E+000	9	...........
	88	1.18667	2.05050E-002	-9.82321E-005	0.00000E+000	-2.01425E-006	-5.99601E-002	2.04837E-002	3.58020E+000	9	...........
	89	1.2	1.31117E-002	-9.93042E-005	0.00000E+000	-1.30205E-006	-5.99601E-002	1.30861E-002	3.58020E+000	9	...........
	90	1.21333	5.77175E-003	-9.87801E-005	0.00000E+000	-5.70134E-007	-5.99601E-002	5.74678E-003	3.58020E+000	9	...........
	91	1.21833	7.68446E-004	-9.84491E-005	0.00000E+000	-7.56528E-008	-5.99601E-002	7.28972E-004	3.58020E+000	9	...........
STARTTIMEOFFSET	QUANT	387.5516	Start Time Offset (s)
