EXPLAIN
TAG	PWR800_DISCHARGE
TITLE	LABEL	PWR Cyclic Charge Discharge (Cell) - Discharge Step	Test &Identifier
DATE	LABEL	13-7-2017	Date
TIME	LABEL	15:36:55	Time
NOTES	NOTES	2	&Notes...
	supercap test cell
	6M KOH
PSTAT	PSTAT	IFC5000-01520	Potentiostat
CAPACITY	QUANT	1.00000E-003	Capacity (A-hr)
CELLTYPE	SELECTOR	1	&Cell Type
WORKINGCONNECTION	SELECTOR	0	&Working Lead
MAXDISCHARGETIME	VARIABLEANDUNITS	1.00000E+002	s	1.00000E+002	second(s)	Max &Discharge Time
DISCHARGEMODE	MULTIPARAM	0	1.00000E-004	&Discharge Mode	Constant Current	Amp(s)
SAMPLETIME	QUANT	1.00000E-002	Sa&mple Period (s)
DISCHARGESTOPAT1	MULTIPARAM	3	0.00000E+000	Discharge Stop At &1	Voltage < Limit	V
DISCHARGESTOPAT2	MULTIPARAM	0	0.00000E+000	Discharge Stop At &2	None	N/A
AESBHCSELECTOR	TOGGLE	F	Save Both Half Cells
IRCOMP	TOGGLE	F	IR &Measure
EOC	QUANT	0	Open Circuit (V)
SEQUENCER	TOGGLE	TRUE	Run as Sequence
PSTATMODEL	IQUANT	53	Pstat Model
PSTATSECTION	LABEL	IFC5000-01520	Pstat Section
PSTATSERIALNO	LABEL	01520	Pstat Serial Number
CTRLMODE	IQUANT	0	Control Mode
ELECTROMETER	IQUANT	1	RE=0 or CS=1
IESTAB	IQUANT	0	I/E Stability
CASPEED	IQUANT	4	Control Amp Speed
CONVENTION	IQUANT	1	Current Convention
ICHRANGE	IQUANT	2	Ich Range
ICHRANGEMODE	TOGGLE	T	Ich Auto Range
ICHOFFSETENABLE	TOGGLE	F	Ich Offset Enable
ICHOFFSET	QUANT	0	Ich Offset (V)
ICHFILTER	IQUANT	1	Ich Filter
VCHRANGE	IQUANT	2	Vch Range
VCHRANGEMODE	TOGGLE	T	Vch Auto Range
VCHOFFSETENABLE	TOGGLE	F	Vch Offset Enable
VCHOFFSET	QUANT	0	Vch Offset (V)
VCHFILTER	IQUANT	1	Vch Filter
IERANGELOWERLIMIT	IQUANT	9	I/E Range Lower Limit
IERANGEMODE	TOGGLE	F	I/E AutoRange
IERANGE	IQUANT	9	I/E Range
ACHSELECT	IQUANT	1	Ach Select
ACHRANGE	IQUANT	2	Ach Range
ACHOFFSETENABLE	TOGGLE	F	Ach Offset Enable
ACHOFFSET	QUANT	0	Ach Offset (V)
ACHFILTER	IQUANT	1	Ach Filter
CABLEID	IQUANT	14	Cable ID
DCCALDATE	LABEL	5-7-2017	DC Calibration Date
ACCALDATE	LABEL	12/3/2015	AC Calibration Date
FRAMEWORKVERSION	QUANT	7.01	Framework Version
INSTRUMENTVERSION	LABEL	4.00	Instrument Version
CURVE	TABLE	87
	Pt	T	Vf	Im	Vu	Pwr	Sig	Ach	Temp	IERange	Over
	#	s	V	A	V	W	V	V	deg C	#	bits
	0	0.013333	8.44426E-001	-9.89562E-005	0.00000E+000	-8.35612E-005	-5.99601E-002	8.44767E-001	3.57990E+000	9	...........
	1	0.026667	8.30300E-001	-9.88468E-005	0.00000E+000	-8.20724E-005	-5.99601E-002	8.30627E-001	3.57990E+000	9	...........
	2	0.04	8.17007E-001	-9.88447E-005	0.00000E+000	-8.07568E-005	-5.99601E-002	8.17340E-001	3.57990E+000	9	...........
	3	0.053333	8.04297E-001	-9.92635E-005	0.00000E+000	-7.98374E-005	-5.99601E-002	8.04612E-001	3.57990E+000	9	...........
	4	0.066667	7.91979E-001	-9.83883E-005	0.00000E+000	-7.79215E-005	-5.99601E-002	7.92292E-001	3.57990E+000	9	...........
	5	0.08	7.79953E-001	-9.91020E-005	0.00000E+000	-7.72950E-005	-5.99601E-002	7.80266E-001	3.57990E+000	9	...........
	6	0.093333	7.68133E-001	-9.93437E-005	0.00000E+000	-7.63092E-005	-5.99601E-002	7.68452E-001	3.57990E+000	9	...........
	7	0.106667	7.56480E-001	-9.87426E-005	0.00000E+000	-7.46968E-005	-5.99601E-002	7.56786E-001	3.57990E+000	9	...........
	8	0.12	7.44958E-001	-9.87665E-005	0.00000E+000	-7.35769E-005	-5.99601E-002	7.45254E-001	3.57971E+000	9	...........
	9	0.133333	7.33513E-001	-9.86103E-005	0.00000E+000	-7.23319E-005	-5.99601E-002	7.33814E-001	3.57900E+000	9	...........
	10	0.146667	7.22191E-001	-9.90791E-005	0.00000E+000	-7.15540E-005	-5.99601E-002	7.22454E-001	3.57900E+000	9	...........
	11	0.16	7.10844E-001	-9.91531E-005	0.00000E+000	-7.04824E-005	-5.99601E-002	7.11153E-001	3.57900E+000	9	...........
	12	0.173333	6.99621E-001	-9.92093E-005	0.00000E+000	-6.94090E-005	-5.99601E-002	6.99895E-001	3.57900E+000	9	...........
	13	0.186667	6.88381E-001	-9.85165E-005	0.00000E+000	-6.78169E-005	-5.99601E-002	6.88680E-001	3.57900E+000	9	...........
	14	0.2	6.77209E-001	-9.83477E-005	0.00000E+000	-6.66020E-005	-5.99601E-002	6.77479E-001	3.57900E+000	9	...........
	15	0.213333	6.66036E-001	-9.87186E-005	0.00000E+000	-6.57502E-005	-5.99601E-002	6.66298E-001	3.57900E+000	9	...........
	16	0.226667	6.54903E-001	-9.93229E-005	0.00000E+000	-6.50469E-005	-5.99601E-002	6.55158E-001	3.57900E+000	9	...........
	17	0.24	6.43772E-001	-9.86374E-005	0.00000E+000	-6.35000E-005	-5.99601E-002	6.44063E-001	3.57900E+000	9	...........
	18	0.253333	6.32689E-001	-9.86988E-005	0.00000E+000	-6.24457E-005	-5.99601E-002	6.32929E-001	3.57900E+000	9	...........
	19	0.266667	6.21641E-001	-9.87040E-005	0.00000E+000	-6.13585E-005	-5.99601E-002	6.21868E-001	3.57900E+000	9	...........
	20	0.28	6.10548E-001	-9.83883E-005	0.00000E+000	-6.00708E-005	-5.99601E-002	6.10817E-001	3.57900E+000	9	...........
	21	0.293333	5.99532E-001	-9.93333E-005	0.00000E+000	-5.95535E-005	-5.99601E-002	5.99793E-001	3.57900E+000	9	...........
	22	0.306667	5.88528E-001	-9.95928E-005	0.00000E+000	-5.86131E-005	-5.99601E-002	5.88787E-001	3.57900E+000	9	...........
	23	0.32	5.77572E-001	-9.96897E-005	0.00000E+000	-5.75780E-005	-5.99601E-002	5.77826E-001	3.57900E+000	9	...........
	24	0.333333	5.66655E-001	-9.96563E-005	0.00000E+000	-5.64707E-005	-5.99601E-002	5.66876E-001	3.57900E+000	9	...........
	25	0.346667	5.55691E-001	-9.84071E-005	0.00000E+000	-5.46839E-005	-5.99601E-002	5.55961E-001	3.57900E+000	9	...........
	26	0.36	5.44859E-001	-9.85300E-005	0.00000E+000	-5.36850E-005	-5.99601E-002	5.45104E-001	3.57900E+000	9	...........
	27	0.373333	5.34003E-001	-9.87051E-005	0.00000E+000	-5.27088E-005	-5.99601E-002	5.34255E-001	3.57900E+000	9	...........
	28	0.386667	5.23216E-001	-9.92885E-005	0.00000E+000	-5.19494E-005	-5.99601E-002	5.23452E-001	3.57900E+000	9	...........
	29	0.4	5.12461E-001	-9.92354E-005	0.00000E+000	-5.08543E-005	-5.99601E-002	5.12719E-001	3.57900E+000	9	...........
	30	0.413333	5.01737E-001	-9.85978E-005	0.00000E+000	-4.94701E-005	-5.99601E-002	5.01994E-001	3.57900E+000	9	...........
	31	0.426667	4.91108E-001	-9.86676E-005	0.00000E+000	-4.84564E-005	-5.99601E-002	4.91360E-001	3.57900E+000	9	...........
	32	0.44	4.80836E-001	-9.91739E-005	0.00000E+000	-4.76864E-005	-5.99601E-002	4.80942E-001	3.57900E+000	9	...........
	33	0.453333	4.70363E-001	-9.85707E-005	0.00000E+000	-4.63640E-005	-5.99601E-002	4.70459E-001	3.57900E+000	9	...........
	34	0.466667	4.59894E-001	-9.92448E-005	0.00000E+000	-4.56421E-005	-5.99601E-002	4.59991E-001	3.57900E+000	9	...........
	35	0.48	4.49484E-001	-9.86967E-005	0.00000E+000	-4.43626E-005	-5.99601E-002	4.49581E-001	3.57900E+000	9	...........
	36	0.493333	4.39138E-001	-9.94334E-005	0.00000E+000	-4.36650E-005	-5.99601E-002	4.39230E-001	3.57900E+000	9	...........
	37	0.506667	4.28853E-001	-9.96344E-005	0.00000E+000	-4.27286E-005	-5.99601E-002	4.28942E-001	3.57900E+000	9	...........
	38	0.52	4.18638E-001	-9.87874E-005	0.00000E+000	-4.13561E-005	-5.99601E-002	4.18723E-001	3.57900E+000	9	...........
	39	0.533333	4.08483E-001	-9.95542E-005	0.00000E+000	-4.06662E-005	-5.99601E-002	4.08563E-001	3.57900E+000	9	...........
	40	0.546667	3.98397E-001	-9.94938E-005	0.00000E+000	-3.96380E-005	-5.99601E-002	3.98476E-001	3.57900E+000	9	...........
	41	0.56	3.88370E-001	-9.93156E-005	0.00000E+000	-3.85712E-005	-5.99601E-002	3.88443E-001	3.57900E+000	9	...........
	42	0.573333	3.78407E-001	-9.88999E-005	0.00000E+000	-3.74244E-005	-5.99601E-002	3.78485E-001	3.57900E+000	9	...........
	43	0.586667	3.68513E-001	-9.88166E-005	0.00000E+000	-3.64152E-005	-5.99601E-002	3.68587E-001	3.57900E+000	9	...........
	44	0.6	3.58684E-001	-9.90624E-005	0.00000E+000	-3.55321E-005	-5.99601E-002	3.58751E-001	3.57900E+000	9	...........
	45	0.613333	3.48901E-001	-9.86644E-005	0.00000E+000	-3.44241E-005	-5.99601E-002	3.48972E-001	3.57900E+000	9	...........
	46	0.626667	3.39186E-001	-9.92958E-005	0.00000E+000	-3.36798E-005	-5.99601E-002	3.39255E-001	3.57900E+000	9	...........
	47	0.64	3.29532E-001	-9.88228E-005	0.00000E+000	-3.25653E-005	-5.99601E-002	3.29593E-001	3.57900E+000	9	...........
	48	0.653333	3.19930E-001	-9.87770E-005	0.00000E+000	-3.16017E-005	-5.99601E-002	3.19990E-001	3.57900E+000	9	...........
	49	0.666667	3.10380E-001	-9.84977E-005	0.00000E+000	-3.05717E-005	-5.99601E-002	3.10435E-001	3.57900E+000	9	...........
	50	0.68	3.00875E-001	-9.96626E-005	0.00000E+000	-2.99860E-005	-5.99601E-002	3.00933E-001	3.57900E+000	9	...........
	51	0.693333	2.91426E-001	-9.86780E-005	0.00000E+000	-2.87573E-005	-5.99601E-002	2.91483E-001	3.57900E+000	9	...........
	52	0.706667	2.82032E-001	-9.88499E-005	0.00000E+000	-2.78788E-005	-5.99601E-002	2.82085E-001	3.57900E+000	9	...........
	53	0.72	2.72685E-001	-9.83738E-005	0.00000E+000	-2.68251E-005	-5.99601E-002	2.72740E-001	3.57900E+000	9	...........
	54	0.733333	2.63384E-001	-9.90291E-005	0.00000E+000	-2.60827E-005	-5.99601E-002	2.63438E-001	3.57900E+000	9	...........
	55	0.746667	2.54133E-001	-9.92531E-005	0.00000E+000	-2.52235E-005	-5.99601E-002	2.54182E-001	3.57900E+000	9	...........
	56	0.76	2.44932E-001	-9.89374E-005	0.00000E+000	-2.42329E-005	-5.99601E-002	2.44970E-001	3.57900E+000	9	...........
	57	0.773333	2.35774E-001	-9.87395E-005	0.00000E+000	-2.32802E-005	-5.99601E-002	2.35813E-001	3.57900E+000	9	...........
	58	0.786667	2.26666E-001	-9.96042E-005	0.00000E+000	-2.25769E-005	-5.99601E-002	2.26705E-001	3.57900E+000	9	...........
	59	0.8	2.17610E-001	-9.90364E-005	0.00000E+000	-2.15513E-005	-5.99601E-002	2.17645E-001	3.57900E+000	9	...........
	60	0.813333	2.08605E-001	-9.89447E-005	0.00000E+000	-2.06404E-005	-5.99601E-002	2.08640E-001	3.57900E+000	9	...........
	61	0.826667	1.99654E-001	-9.85936E-005	0.00000E+000	-1.96846E-005	-5.99601E-002	1.99685E-001	3.57900E+000	9	...........
	62	0.84	1.90752E-001	-9.90447E-005	0.00000E+000	-1.88930E-005	-5.99601E-002	1.90784E-001	3.57900E+000	9	...........
	63	0.853333	1.81906E-001	-9.87561E-005	0.00000E+000	-1.79644E-005	-5.99601E-002	1.81937E-001	3.57900E+000	9	...........
	64	0.866667	1.73124E-001	-9.84102E-005	0.00000E+000	-1.70372E-005	-5.99601E-002	1.73150E-001	3.57900E+000	9	...........
	65	0.88	1.64410E-001	-9.91677E-005	0.00000E+000	-1.63041E-005	-5.99601E-002	1.64431E-001	3.57900E+000	9	...........
	66	0.893333	1.55759E-001	-9.86519E-005	0.00000E+000	-1.53659E-005	-5.99601E-002	1.55773E-001	3.57900E+000	9	...........
	67	0.906667	1.47166E-001	-9.83529E-005	0.00000E+000	-1.44742E-005	-5.99601E-002	1.47180E-001	3.57900E+000	9	...........
	68	0.92	1.38641E-001	-9.95094E-005	0.00000E+000	-1.37960E-005	-5.99601E-002	1.38653E-001	3.57900E+000	9	...........
	69	0.933333	1.30191E-001	-9.83050E-005	0.00000E+000	-1.27984E-005	-5.99601E-002	1.30205E-001	3.57900E+000	9	...........
	70	0.946667	1.21821E-001	-9.92031E-005	0.00000E+000	-1.20850E-005	-5.99601E-002	1.21827E-001	3.57900E+000	9	...........
	71	0.96	1.13512E-001	-9.99793E-005	0.00000E+000	-1.13489E-005	-5.99601E-002	1.13522E-001	3.57900E+000	9	...........
	72	0.97333	1.05283E-001	-9.92792E-005	0.00000E+000	-1.04524E-005	-5.99601E-002	1.05292E-001	3.57900E+000	9	...........
	73	0.98667	9.71293E-002	-9.95740E-005	0.00000E+000	-9.67155E-006	-5.99601E-002	9.71312E-002	3.57900E+000	9	...........
	74	1	8.90480E-002	-9.84144E-005	0.00000E+000	-8.76360E-006	-5.99601E-002	8.90446E-002	3.57900E+000	9	...........
	75	1.01333	8.10407E-002	-9.87384E-005	0.00000E+000	-8.00183E-006	-5.99601E-002	8.10357E-002	3.57900E+000	9	...........
	76	1.02667	7.31077E-002	-9.86009E-005	0.00000E+000	-7.20849E-006	-5.99601E-002	7.30985E-002	3.57900E+000	9	...........
	77	1.04	6.52360E-002	-9.86363E-005	0.00000E+000	-6.43464E-006	-5.99601E-002	6.52323E-002	3.57900E+000	9	...........
	78	1.05333	5.74444E-002	-9.89760E-005	0.00000E+000	-5.68562E-006	-5.99601E-002	5.74334E-002	3.57900E+000	9	...........
	79	1.06667	4.97248E-002	-9.82612E-005	0.00000E+000	-4.88602E-006	-5.99601E-002	4.97153E-002	3.57900E+000	9	...........
	80	1.08	4.20926E-002	-9.96126E-005	0.00000E+000	-4.19295E-006	-5.99601E-002	4.20812E-002	3.57900E+000	9	...........
	81	1.09333	3.44977E-002	-9.92427E-005	0.00000E+000	-3.42364E-006	-5.99601E-002	3.44856E-002	3.57900E+000	9	...........
	82	1.10667	2.69749E-002	-9.89833E-005	0.00000E+000	-2.67006E-006	-5.99601E-002	2.69556E-002	3.57900E+000	9	...........
	83	1.12	1.95171E-002	-9.92156E-005	0.00000E+000	-1.93640E-006	-5.99601E-002	1.94933E-002	3.57890E+000	9	...........
	84	1.13333	1.21254E-002	-9.88989E-005	0.00000E+000	-1.19919E-006	-5.99601E-002	1.20906E-002	3.57850E+000	9	...........
	85	1.14667	4.79818E-003	-9.93052E-005	0.00000E+000	-4.76484E-007	-5.99601E-002	4.76571E-003	3.57850E+000	9	...........
	86	1.15	2.52294E-004	-9.80185E-005	0.00000E+000	-2.47294E-008	-5.99601E-002	2.21849E-004	3.57850E+000	9	...........
STARTTIMEOFFSET	QUANT	1578.122	Start Time Offset (s)
