EXPLAIN
TAG	PWR800_DISCHARGE
TITLE	LABEL	PWR Cyclic Charge Discharge (Cell) - Discharge Step	Test &Identifier
DATE	LABEL	13-7-2017	Date
TIME	LABEL	15:11:07	Time
NOTES	NOTES	2	&Notes...
	supercap test cell
	6M KOH
PSTAT	PSTAT	IFC5000-01520	Potentiostat
CAPACITY	QUANT	1.00000E-003	Capacity (A-hr)
CELLTYPE	SELECTOR	1	&Cell Type
WORKINGCONNECTION	SELECTOR	0	&Working Lead
MAXDISCHARGETIME	VARIABLEANDUNITS	1.00000E+002	s	1.00000E+002	second(s)	Max &Discharge Time
DISCHARGEMODE	MULTIPARAM	0	1.00000E-004	&Discharge Mode	Constant Current	Amp(s)
SAMPLETIME	QUANT	1.00000E-002	Sa&mple Period (s)
DISCHARGESTOPAT1	MULTIPARAM	3	0.00000E+000	Discharge Stop At &1	Voltage < Limit	V
DISCHARGESTOPAT2	MULTIPARAM	0	0.00000E+000	Discharge Stop At &2	None	N/A
AESBHCSELECTOR	TOGGLE	F	Save Both Half Cells
IRCOMP	TOGGLE	F	IR &Measure
EOC	QUANT	0	Open Circuit (V)
SEQUENCER	TOGGLE	TRUE	Run as Sequence
PSTATMODEL	IQUANT	53	Pstat Model
PSTATSECTION	LABEL	IFC5000-01520	Pstat Section
PSTATSERIALNO	LABEL	01520	Pstat Serial Number
CTRLMODE	IQUANT	0	Control Mode
ELECTROMETER	IQUANT	1	RE=0 or CS=1
IESTAB	IQUANT	0	I/E Stability
CASPEED	IQUANT	4	Control Amp Speed
CONVENTION	IQUANT	1	Current Convention
ICHRANGE	IQUANT	2	Ich Range
ICHRANGEMODE	TOGGLE	T	Ich Auto Range
ICHOFFSETENABLE	TOGGLE	F	Ich Offset Enable
ICHOFFSET	QUANT	0	Ich Offset (V)
ICHFILTER	IQUANT	1	Ich Filter
VCHRANGE	IQUANT	2	Vch Range
VCHRANGEMODE	TOGGLE	T	Vch Auto Range
VCHOFFSETENABLE	TOGGLE	F	Vch Offset Enable
VCHOFFSET	QUANT	0	Vch Offset (V)
VCHFILTER	IQUANT	1	Vch Filter
IERANGELOWERLIMIT	IQUANT	9	I/E Range Lower Limit
IERANGEMODE	TOGGLE	F	I/E AutoRange
IERANGE	IQUANT	9	I/E Range
ACHSELECT	IQUANT	1	Ach Select
ACHRANGE	IQUANT	2	Ach Range
ACHOFFSETENABLE	TOGGLE	F	Ach Offset Enable
ACHOFFSET	QUANT	0	Ach Offset (V)
ACHFILTER	IQUANT	1	Ach Filter
CABLEID	IQUANT	14	Cable ID
DCCALDATE	LABEL	5-7-2017	DC Calibration Date
ACCALDATE	LABEL	12/3/2015	AC Calibration Date
FRAMEWORKVERSION	QUANT	7.01	Framework Version
INSTRUMENTVERSION	LABEL	4.00	Instrument Version
CURVE	TABLE	92
	Pt	T	Vf	Im	Vu	Pwr	Sig	Ach	Temp	IERange	Over
	#	s	V	A	V	W	V	V	deg C	#	bits
	0	0.013333	8.53363E-001	-9.86697E-005	0.00000E+000	-8.42010E-005	-5.99601E-002	8.53726E-001	3.57910E+000	9	...........
	1	0.026667	8.40092E-001	-9.83498E-005	0.00000E+000	-8.26229E-005	-5.99601E-002	8.40442E-001	3.57910E+000	9	...........
	2	0.04	8.27674E-001	-9.88176E-005	0.00000E+000	-8.17887E-005	-5.99601E-002	8.28000E-001	3.57910E+000	9	...........
	3	0.053333	8.15762E-001	-9.91020E-005	0.00000E+000	-8.08436E-005	-5.99601E-002	8.16107E-001	3.57910E+000	9	...........
	4	0.066667	8.04310E-001	-9.87530E-005	0.00000E+000	-7.94280E-005	-5.99601E-002	8.04608E-001	3.57910E+000	9	...........
	5	0.08	7.93132E-001	-9.88874E-005	0.00000E+000	-7.84308E-005	-5.99601E-002	7.93438E-001	3.57910E+000	9	...........
	6	0.093333	7.82142E-001	-9.94063E-005	0.00000E+000	-7.77498E-005	-5.99601E-002	7.82447E-001	3.57910E+000	9	...........
	7	0.106667	7.71352E-001	-9.85019E-005	0.00000E+000	-7.59796E-005	-5.99601E-002	7.71657E-001	3.57910E+000	9	...........
	8	0.12	7.60684E-001	-9.85457E-005	0.00000E+000	-7.49621E-005	-5.99601E-002	7.60962E-001	3.57910E+000	9	...........
	9	0.133333	7.50132E-001	-9.94188E-005	0.00000E+000	-7.45772E-005	-5.99601E-002	7.50404E-001	3.57910E+000	9	...........
	10	0.146667	7.39632E-001	-9.81050E-005	0.00000E+000	-7.25616E-005	-5.99601E-002	7.39934E-001	3.57910E+000	9	...........
	11	0.16	7.29212E-001	-9.94344E-005	0.00000E+000	-7.25088E-005	-5.99601E-002	7.29513E-001	3.57910E+000	9	...........
	12	0.173333	7.18810E-001	-9.89989E-005	0.00000E+000	-7.11613E-005	-5.99601E-002	7.19149E-001	3.57910E+000	9	...........
	13	0.186667	7.08468E-001	-9.84269E-005	0.00000E+000	-6.97323E-005	-5.99601E-002	7.08785E-001	3.57910E+000	9	...........
	14	0.2	6.98156E-001	-9.89874E-005	0.00000E+000	-6.91086E-005	-5.99601E-002	6.98475E-001	3.57910E+000	9	...........
	15	0.213333	6.87859E-001	-9.91823E-005	0.00000E+000	-6.82235E-005	-5.99601E-002	6.88195E-001	3.57910E+000	9	...........
	16	0.226667	6.77596E-001	-9.87863E-005	0.00000E+000	-6.69372E-005	-5.99601E-002	6.77907E-001	3.57910E+000	9	...........
	17	0.24	6.67339E-001	-9.91302E-005	0.00000E+000	-6.61535E-005	-5.99601E-002	6.67654E-001	3.57910E+000	9	...........
	18	0.253333	6.57061E-001	-9.92104E-005	0.00000E+000	-6.51872E-005	-5.99601E-002	6.57369E-001	3.57910E+000	9	...........
	19	0.266667	6.46805E-001	-9.91104E-005	0.00000E+000	-6.41051E-005	-5.99601E-002	6.47148E-001	3.57910E+000	9	...........
	20	0.28	6.36562E-001	-9.81310E-005	0.00000E+000	-6.24664E-005	-5.99601E-002	6.36899E-001	3.57910E+000	9	...........
	21	0.293333	6.26340E-001	-9.76059E-005	0.00000E+000	-6.11345E-005	-5.99601E-002	6.26657E-001	3.57910E+000	9	...........
	22	0.306667	6.16125E-001	-9.84238E-005	0.00000E+000	-6.06414E-005	-5.99601E-002	6.16417E-001	3.57910E+000	9	...........
	23	0.32	6.05862E-001	-9.94917E-005	0.00000E+000	-6.02782E-005	-5.99601E-002	6.06191E-001	3.57910E+000	9	...........
	24	0.333333	5.95679E-001	-9.77622E-005	0.00000E+000	-5.82349E-005	-5.99601E-002	5.95957E-001	3.57910E+000	9	...........
	25	0.346667	5.85484E-001	-9.86207E-005	0.00000E+000	-5.77408E-005	-5.99601E-002	5.85738E-001	3.57910E+000	9	...........
	26	0.36	5.75298E-001	-9.99199E-005	0.00000E+000	-5.74837E-005	-5.99601E-002	5.75547E-001	3.57910E+000	9	...........
	27	0.373333	5.65108E-001	-9.86207E-005	0.00000E+000	-5.57313E-005	-5.99601E-002	5.65385E-001	3.57910E+000	9	...........
	28	0.386667	5.54940E-001	-9.93677E-005	0.00000E+000	-5.51431E-005	-5.99601E-002	5.55201E-001	3.57910E+000	9	...........
	29	0.4	5.44808E-001	-9.84592E-005	0.00000E+000	-5.36413E-005	-5.99601E-002	5.45067E-001	3.57910E+000	9	...........
	30	0.413333	5.34665E-001	-9.96001E-005	0.00000E+000	-5.32527E-005	-5.99601E-002	5.34942E-001	3.57920E+000	9	...........
	31	0.426667	5.24582E-001	-9.88061E-005	0.00000E+000	-5.18319E-005	-5.99601E-002	5.24827E-001	3.57930E+000	9	...........
	32	0.44	5.14518E-001	-9.94396E-005	0.00000E+000	-5.11634E-005	-5.99601E-002	5.14771E-001	3.57930E+000	9	...........
	33	0.453333	5.04444E-001	-9.93104E-005	0.00000E+000	-5.00966E-005	-5.99601E-002	5.04703E-001	3.57930E+000	9	...........
	34	0.466667	4.94437E-001	-9.93594E-005	0.00000E+000	-4.91269E-005	-5.99601E-002	4.94715E-001	3.57930E+000	9	...........
	35	0.48	4.84645E-001	-9.89187E-005	0.00000E+000	-4.79404E-005	-5.99601E-002	4.84811E-001	3.57930E+000	9	...........
	36	0.493333	4.74899E-001	-9.85905E-005	0.00000E+000	-4.68205E-005	-5.99601E-002	4.75001E-001	3.57930E+000	9	...........
	37	0.506667	4.64995E-001	-9.91312E-005	0.00000E+000	-4.60955E-005	-5.99601E-002	4.65085E-001	3.57930E+000	9	...........
	38	0.52	4.55122E-001	-9.81320E-005	0.00000E+000	-4.46621E-005	-5.99601E-002	4.55215E-001	3.57930E+000	9	...........
	39	0.533333	4.45294E-001	-9.94907E-005	0.00000E+000	-4.43025E-005	-5.99601E-002	4.45382E-001	3.57930E+000	9	...........
	40	0.546667	4.35512E-001	-9.85832E-005	0.00000E+000	-4.29342E-005	-5.99601E-002	4.35600E-001	3.57930E+000	9	...........
	41	0.56	4.25771E-001	-9.87978E-005	0.00000E+000	-4.20653E-005	-5.99601E-002	4.25857E-001	3.57930E+000	9	...........
	42	0.573333	4.16077E-001	-9.92604E-005	0.00000E+000	-4.12999E-005	-5.99601E-002	4.16160E-001	3.57930E+000	9	...........
	43	0.586667	4.06429E-001	-9.98230E-005	0.00000E+000	-4.05710E-005	-5.99601E-002	4.06503E-001	3.57930E+000	9	...........
	44	0.6	3.96822E-001	-9.80185E-005	0.00000E+000	-3.88959E-005	-5.99601E-002	3.96894E-001	3.57930E+000	9	...........
	45	0.613333	3.87261E-001	-9.88666E-005	0.00000E+000	-3.82872E-005	-5.99601E-002	3.87332E-001	3.57930E+000	9	...........
	46	0.626667	3.77742E-001	-9.88697E-005	0.00000E+000	-3.73472E-005	-5.99601E-002	3.77817E-001	3.57930E+000	9	...........
	47	0.64	3.68271E-001	-9.88822E-005	0.00000E+000	-3.64154E-005	-5.99601E-002	3.68346E-001	3.57930E+000	9	...........
	48	0.653333	3.58850E-001	-9.85207E-005	0.00000E+000	-3.53541E-005	-5.99601E-002	3.58917E-001	3.57930E+000	9	...........
	49	0.666667	3.49467E-001	-9.84102E-005	0.00000E+000	-3.43911E-005	-5.99601E-002	3.49531E-001	3.57930E+000	9	...........
	50	0.68	3.40125E-001	-9.92594E-005	0.00000E+000	-3.37606E-005	-5.99601E-002	3.40185E-001	3.57930E+000	9	...........
	51	0.693333	3.30832E-001	-9.89541E-005	0.00000E+000	-3.27372E-005	-5.99601E-002	3.30894E-001	3.57930E+000	9	...........
	52	0.706667	3.21582E-001	-9.94396E-005	0.00000E+000	-3.19779E-005	-5.99601E-002	3.21641E-001	3.57930E+000	9	...........
	53	0.72	3.12371E-001	-9.85748E-005	0.00000E+000	-3.07919E-005	-5.99601E-002	3.12426E-001	3.57930E+000	9	...........
	54	0.733333	3.03192E-001	-9.82519E-005	0.00000E+000	-2.97892E-005	-5.99601E-002	3.03249E-001	3.57930E+000	9	...........
	55	0.746667	2.94061E-001	-9.95271E-005	0.00000E+000	-2.92671E-005	-5.99601E-002	2.94120E-001	3.57930E+000	9	...........
	56	0.76	2.84968E-001	-9.88530E-005	0.00000E+000	-2.81699E-005	-5.99601E-002	2.85017E-001	3.57930E+000	9	...........
	57	0.773333	2.75911E-001	-9.82758E-005	0.00000E+000	-2.71154E-005	-5.99601E-002	2.75962E-001	3.57930E+000	9	...........
	58	0.786667	2.66887E-001	-9.90749E-005	0.00000E+000	-2.64418E-005	-5.99601E-002	2.66940E-001	3.57930E+000	9	...........
	59	0.8	2.57906E-001	-9.75475E-005	0.00000E+000	-2.51581E-005	-5.99601E-002	2.57953E-001	3.57930E+000	9	...........
	60	0.813333	2.48956E-001	-9.89030E-005	0.00000E+000	-2.46225E-005	-5.99601E-002	2.49003E-001	3.57930E+000	9	...........
	61	0.826667	2.40049E-001	-9.83644E-005	0.00000E+000	-2.36122E-005	-5.99601E-002	2.40089E-001	3.57930E+000	9	...........
	62	0.84	2.31177E-001	-9.82685E-005	0.00000E+000	-2.27174E-005	-5.99601E-002	2.31215E-001	3.57930E+000	9	...........
	63	0.853333	2.22339E-001	-9.93062E-005	0.00000E+000	-2.20797E-005	-5.99601E-002	2.22372E-001	3.57930E+000	9	...........
	64	0.866667	2.13539E-001	-9.78726E-005	0.00000E+000	-2.08997E-005	-5.99601E-002	2.13572E-001	3.57930E+000	9	...........
	65	0.88	2.04775E-001	-9.86603E-005	0.00000E+000	-2.02032E-005	-5.99601E-002	2.04809E-001	3.57930E+000	9	...........
	66	0.893333	1.96060E-001	-9.87072E-005	0.00000E+000	-1.93525E-005	-5.99601E-002	1.96090E-001	3.57930E+000	9	...........
	67	0.906667	1.87379E-001	-9.87884E-005	0.00000E+000	-1.85109E-005	-5.99601E-002	1.87406E-001	3.57930E+000	9	...........
	68	0.92	1.78745E-001	-9.91593E-005	0.00000E+000	-1.77242E-005	-5.99601E-002	1.78770E-001	3.57930E+000	9	...........
	69	0.933333	1.70155E-001	-9.99532E-005	0.00000E+000	-1.70075E-005	-5.99601E-002	1.70181E-001	3.57930E+000	9	...........
	70	0.946667	1.61619E-001	-9.87811E-005	0.00000E+000	-1.59649E-005	-5.99601E-002	1.61640E-001	3.57930E+000	9	...........
	71	0.96	1.53132E-001	-9.91510E-005	0.00000E+000	-1.51832E-005	-5.99601E-002	1.53150E-001	3.57930E+000	9	...........
	72	0.97333	1.44695E-001	-9.82925E-005	0.00000E+000	-1.42224E-005	-5.99601E-002	1.44714E-001	3.57930E+000	9	...........
	73	0.98667	1.36306E-001	-9.88166E-005	0.00000E+000	-1.34693E-005	-5.99601E-002	1.36330E-001	3.57930E+000	9	...........
	74	1	1.27983E-001	-9.83821E-005	0.00000E+000	-1.25912E-005	-5.99601E-002	1.28001E-001	3.57930E+000	9	...........
	75	1.01333	1.19719E-001	-9.93948E-005	0.00000E+000	-1.18994E-005	-5.99601E-002	1.19736E-001	3.57930E+000	9	...........
	76	1.02667	1.11521E-001	-9.84331E-005	0.00000E+000	-1.09774E-005	-5.99601E-002	1.11536E-001	3.57930E+000	9	...........
	77	1.04	1.03388E-001	-9.88718E-005	0.00000E+000	-1.02222E-005	-5.99601E-002	1.03402E-001	3.57930E+000	9	...........
	78	1.05333	9.53179E-002	-9.84133E-005	0.00000E+000	-9.38056E-006	-5.99601E-002	9.53321E-002	3.57930E+000	9	...........
	79	1.06667	8.73017E-002	-9.94531E-005	0.00000E+000	-8.68242E-006	-5.99601E-002	8.73153E-002	3.57930E+000	9	...........
	80	1.08	7.93621E-002	-1.00154E-004	0.00000E+000	-7.94845E-006	-5.99601E-002	7.93716E-002	3.57930E+000	9	...........
	81	1.09333	7.14797E-002	-1.00842E-004	0.00000E+000	-7.20816E-006	-5.99601E-002	7.14791E-002	3.57930E+000	9	...........
	82	1.10667	6.36647E-002	-9.86321E-005	0.00000E+000	-6.27939E-006	-5.99601E-002	6.36637E-002	3.57930E+000	9	...........
	83	1.12	5.59109E-002	-9.86196E-005	0.00000E+000	-5.51391E-006	-5.99601E-002	5.59009E-002	3.57930E+000	9	...........
	84	1.13333	4.82435E-002	-9.87082E-005	0.00000E+000	-4.76203E-006	-5.99601E-002	4.82340E-002	3.57930E+000	9	...........
	85	1.14667	4.06361E-002	-9.85738E-005	0.00000E+000	-4.00566E-006	-5.99601E-002	4.06250E-002	3.57930E+000	9	...........
	86	1.16	3.30693E-002	-9.92854E-005	0.00000E+000	-3.28330E-006	-5.99601E-002	3.30512E-002	3.57930E+000	9	...........
	87	1.17333	2.55633E-002	-9.87843E-005	0.00000E+000	-2.52525E-006	-5.99601E-002	2.55431E-002	3.57930E+000	9	...........
	88	1.18667	1.81175E-002	-9.86926E-005	0.00000E+000	-1.78806E-006	-5.99601E-002	1.80936E-002	3.57930E+000	9	...........
	89	1.2	1.07350E-002	-9.89603E-005	0.00000E+000	-1.06234E-006	-5.99601E-002	1.07076E-002	3.57930E+000	9	...........
	90	1.21333	3.40688E-003	-9.94688E-005	0.00000E+000	-3.38878E-007	-5.99601E-002	3.37514E-003	3.57930E+000	9	...........
	91	1.215	-6.86091E-004	-9.55846E-005	0.00000E+000	6.55797E-008	-5.99601E-002	-7.23087E-004	3.57930E+000	9	...........
STARTTIMEOFFSET	QUANT	410.1199	Start Time Offset (s)
