EXPLAIN
TAG	PWR800_DISCHARGE
TITLE	LABEL	PWR Cyclic Charge Discharge (Cell) - Discharge Step	Test &Identifier
DATE	LABEL	13-7-2017	Date
TIME	LABEL	15:13:32	Time
NOTES	NOTES	2	&Notes...
	supercap test cell
	6M KOH
PSTAT	PSTAT	IFC5000-01520	Potentiostat
CAPACITY	QUANT	1.00000E-003	Capacity (A-hr)
CELLTYPE	SELECTOR	1	&Cell Type
WORKINGCONNECTION	SELECTOR	0	&Working Lead
MAXDISCHARGETIME	VARIABLEANDUNITS	1.00000E+002	s	1.00000E+002	second(s)	Max &Discharge Time
DISCHARGEMODE	MULTIPARAM	0	1.00000E-004	&Discharge Mode	Constant Current	Amp(s)
SAMPLETIME	QUANT	1.00000E-002	Sa&mple Period (s)
DISCHARGESTOPAT1	MULTIPARAM	3	0.00000E+000	Discharge Stop At &1	Voltage < Limit	V
DISCHARGESTOPAT2	MULTIPARAM	0	0.00000E+000	Discharge Stop At &2	None	N/A
AESBHCSELECTOR	TOGGLE	F	Save Both Half Cells
IRCOMP	TOGGLE	F	IR &Measure
EOC	QUANT	0	Open Circuit (V)
SEQUENCER	TOGGLE	TRUE	Run as Sequence
PSTATMODEL	IQUANT	53	Pstat Model
PSTATSECTION	LABEL	IFC5000-01520	Pstat Section
PSTATSERIALNO	LABEL	01520	Pstat Serial Number
CTRLMODE	IQUANT	0	Control Mode
ELECTROMETER	IQUANT	1	RE=0 or CS=1
IESTAB	IQUANT	0	I/E Stability
CASPEED	IQUANT	4	Control Amp Speed
CONVENTION	IQUANT	1	Current Convention
ICHRANGE	IQUANT	2	Ich Range
ICHRANGEMODE	TOGGLE	T	Ich Auto Range
ICHOFFSETENABLE	TOGGLE	F	Ich Offset Enable
ICHOFFSET	QUANT	0	Ich Offset (V)
ICHFILTER	IQUANT	1	Ich Filter
VCHRANGE	IQUANT	2	Vch Range
VCHRANGEMODE	TOGGLE	T	Vch Auto Range
VCHOFFSETENABLE	TOGGLE	F	Vch Offset Enable
VCHOFFSET	QUANT	0	Vch Offset (V)
VCHFILTER	IQUANT	1	Vch Filter
IERANGELOWERLIMIT	IQUANT	9	I/E Range Lower Limit
IERANGEMODE	TOGGLE	F	I/E AutoRange
IERANGE	IQUANT	9	I/E Range
ACHSELECT	IQUANT	1	Ach Select
ACHRANGE	IQUANT	2	Ach Range
ACHOFFSETENABLE	TOGGLE	F	Ach Offset Enable
ACHOFFSET	QUANT	0	Ach Offset (V)
ACHFILTER	IQUANT	1	Ach Filter
CABLEID	IQUANT	14	Cable ID
DCCALDATE	LABEL	5-7-2017	DC Calibration Date
ACCALDATE	LABEL	12/3/2015	AC Calibration Date
FRAMEWORKVERSION	QUANT	7.01	Framework Version
INSTRUMENTVERSION	LABEL	4.00	Instrument Version
CURVE	TABLE	91
	Pt	T	Vf	Im	Vu	Pwr	Sig	Ach	Temp	IERange	Over
	#	s	V	A	V	W	V	V	deg C	#	bits
	0	0.013333	8.53273E-001	-9.84738E-005	0.00000E+000	-8.40250E-005	-5.99601E-002	8.53623E-001	3.57970E+000	9	...........
	1	0.026667	8.39878E-001	-9.79862E-005	0.00000E+000	-8.22964E-005	-5.99601E-002	8.40222E-001	3.57970E+000	9	...........
	2	0.04	8.27308E-001	-9.97272E-005	0.00000E+000	-8.25051E-005	-5.99601E-002	8.27661E-001	3.57970E+000	9	...........
	3	0.053333	8.15315E-001	-9.94802E-005	0.00000E+000	-8.11077E-005	-5.99601E-002	8.15637E-001	3.57970E+000	9	...........
	4	0.066667	8.03727E-001	-9.91718E-005	0.00000E+000	-7.97071E-005	-5.99601E-002	8.04042E-001	3.57970E+000	9	...........
	5	0.08	7.92417E-001	-9.80362E-005	0.00000E+000	-7.76855E-005	-5.99601E-002	7.92725E-001	3.57970E+000	9	...........
	6	0.093333	7.81329E-001	-9.92208E-005	0.00000E+000	-7.75241E-005	-5.99601E-002	7.81637E-001	3.57970E+000	9	...........
	7	0.106667	7.70386E-001	-9.89030E-005	0.00000E+000	-7.61935E-005	-5.99601E-002	7.70729E-001	3.57970E+000	9	...........
	8	0.12	7.59615E-001	-9.89239E-005	0.00000E+000	-7.51440E-005	-5.99601E-002	7.59899E-001	3.57970E+000	9	...........
	9	0.133333	7.48907E-001	-9.85175E-005	0.00000E+000	-7.37805E-005	-5.99601E-002	7.49214E-001	3.57970E+000	9	...........
	10	0.146667	7.38281E-001	-9.89239E-005	0.00000E+000	-7.30336E-005	-5.99601E-002	7.38569E-001	3.57970E+000	9	...........
	11	0.16	7.27739E-001	-9.83456E-005	0.00000E+000	-7.15700E-005	-5.99601E-002	7.28018E-001	3.57970E+000	9	...........
	12	0.173333	7.17215E-001	-9.78059E-005	0.00000E+000	-7.01479E-005	-5.99601E-002	7.17504E-001	3.57970E+000	9	...........
	13	0.186667	7.06733E-001	-9.92583E-005	0.00000E+000	-7.01491E-005	-5.99601E-002	7.07014E-001	3.57970E+000	9	...........
	14	0.2	6.96284E-001	-9.80028E-005	0.00000E+000	-6.82378E-005	-5.99601E-002	6.96563E-001	3.57970E+000	9	...........
	15	0.213333	6.85865E-001	-9.89062E-005	0.00000E+000	-6.78363E-005	-5.99601E-002	6.86144E-001	3.57970E+000	9	...........
	16	0.226667	6.75465E-001	-9.82852E-005	0.00000E+000	-6.63882E-005	-5.99601E-002	6.75739E-001	3.57970E+000	9	...........
	17	0.24	6.65087E-001	-1.00171E-004	0.00000E+000	-6.66225E-005	-5.99601E-002	6.65362E-001	3.57970E+000	9	...........
	18	0.253333	6.54692E-001	-9.81029E-005	0.00000E+000	-6.42272E-005	-5.99601E-002	6.54966E-001	3.57970E+000	9	...........
	19	0.266667	6.44340E-001	-9.88655E-005	0.00000E+000	-6.37030E-005	-5.99601E-002	6.44588E-001	3.57970E+000	9	...........
	20	0.28	6.33938E-001	-9.81789E-005	0.00000E+000	-6.22394E-005	-5.99601E-002	6.34219E-001	3.57970E+000	9	...........
	21	0.293333	6.23599E-001	-9.92489E-005	0.00000E+000	-6.18916E-005	-5.99601E-002	6.23851E-001	3.57970E+000	9	...........
	22	0.306667	6.13221E-001	-9.91291E-005	0.00000E+000	-6.07880E-005	-5.99601E-002	6.13511E-001	3.57970E+000	9	...........
	23	0.32	6.02869E-001	-9.82425E-005	0.00000E+000	-5.92274E-005	-5.99601E-002	6.03167E-001	3.57970E+000	9	...........
	24	0.333333	5.92553E-001	-9.93927E-005	0.00000E+000	-5.88955E-005	-5.99601E-002	5.92845E-001	3.57970E+000	9	...........
	25	0.346667	5.82212E-001	-9.89739E-005	0.00000E+000	-5.76237E-005	-5.99601E-002	5.82497E-001	3.57970E+000	9	...........
	26	0.36	5.71940E-001	-9.88999E-005	0.00000E+000	-5.65648E-005	-5.99601E-002	5.72197E-001	3.57970E+000	9	...........
	27	0.373333	5.61640E-001	-9.82706E-005	0.00000E+000	-5.51927E-005	-5.99601E-002	5.61902E-001	3.57970E+000	9	...........
	28	0.386667	5.51381E-001	-9.89405E-005	0.00000E+000	-5.45540E-005	-5.99601E-002	5.51616E-001	3.57970E+000	9	...........
	29	0.4	5.41123E-001	-9.86832E-005	0.00000E+000	-5.33997E-005	-5.99601E-002	5.41362E-001	3.57970E+000	9	...........
	30	0.413333	5.30890E-001	-9.89103E-005	0.00000E+000	-5.25105E-005	-5.99601E-002	5.31109E-001	3.57970E+000	9	...........
	31	0.426667	5.20698E-001	-9.94969E-005	0.00000E+000	-5.18078E-005	-5.99601E-002	5.20921E-001	3.57970E+000	9	...........
	32	0.44	5.10515E-001	-9.89197E-005	0.00000E+000	-5.05000E-005	-5.99601E-002	5.10750E-001	3.57970E+000	9	...........
	33	0.453333	5.00345E-001	-9.83487E-005	0.00000E+000	-4.92083E-005	-5.99601E-002	5.00606E-001	3.57970E+000	9	...........
	34	0.466667	4.90293E-001	-9.90114E-005	0.00000E+000	-4.85446E-005	-5.99601E-002	4.90518E-001	3.57970E+000	9	...........
	35	0.48	4.80542E-001	-9.86353E-005	0.00000E+000	-4.73984E-005	-5.99601E-002	4.80671E-001	3.57970E+000	9	...........
	36	0.493333	4.70572E-001	-9.85092E-005	0.00000E+000	-4.63556E-005	-5.99601E-002	4.70674E-001	3.57970E+000	9	...........
	37	0.506667	4.60590E-001	-9.85884E-005	0.00000E+000	-4.54088E-005	-5.99601E-002	4.60690E-001	3.57970E+000	9	...........
	38	0.52	4.50656E-001	-9.86728E-005	0.00000E+000	-4.44675E-005	-5.99601E-002	4.50752E-001	3.57970E+000	9	...........
	39	0.533333	4.40764E-001	-9.90395E-005	0.00000E+000	-4.36531E-005	-5.99601E-002	4.40855E-001	3.57970E+000	9	...........
	40	0.546667	4.30915E-001	-9.89374E-005	0.00000E+000	-4.26337E-005	-5.99601E-002	4.31002E-001	3.57970E+000	9	...........
	41	0.56	4.21111E-001	-9.93427E-005	0.00000E+000	-4.18343E-005	-5.99601E-002	4.21205E-001	3.57970E+000	9	...........
	42	0.573333	4.11361E-001	-9.86571E-005	0.00000E+000	-4.05837E-005	-5.99601E-002	4.11447E-001	3.57970E+000	9	...........
	43	0.586667	4.01660E-001	-9.81029E-005	0.00000E+000	-3.94040E-005	-5.99601E-002	4.01743E-001	3.57970E+000	9	...........
	44	0.6	3.92007E-001	-9.84540E-005	0.00000E+000	-3.85946E-005	-5.99601E-002	3.92086E-001	3.57970E+000	9	...........
	45	0.613333	3.82402E-001	-9.91937E-005	0.00000E+000	-3.79319E-005	-5.99601E-002	3.82480E-001	3.57970E+000	9	...........
	46	0.626667	3.72837E-001	-9.90624E-005	0.00000E+000	-3.69341E-005	-5.99601E-002	3.72917E-001	3.57970E+000	9	...........
	47	0.64	3.63330E-001	-9.88166E-005	0.00000E+000	-3.59030E-005	-5.99601E-002	3.63401E-001	3.57970E+000	9	...........
	48	0.653333	3.53869E-001	-9.82008E-005	0.00000E+000	-3.47502E-005	-5.99601E-002	3.53942E-001	3.57970E+000	9	...........
	49	0.666667	3.44456E-001	-9.85217E-005	0.00000E+000	-3.39364E-005	-5.99601E-002	3.44522E-001	3.57970E+000	9	...........
	50	0.68	3.35082E-001	-9.83831E-005	0.00000E+000	-3.29664E-005	-5.99601E-002	3.35150E-001	3.57970E+000	9	...........
	51	0.693333	3.25757E-001	-9.77872E-005	0.00000E+000	-3.18548E-005	-5.99601E-002	3.25826E-001	3.57970E+000	9	...........
	52	0.706667	3.16475E-001	-9.87040E-005	0.00000E+000	-3.12373E-005	-5.99601E-002	3.16543E-001	3.57970E+000	9	...........
	53	0.72	3.07239E-001	-9.86488E-005	0.00000E+000	-3.03087E-005	-5.99601E-002	3.07301E-001	3.57970E+000	9	...........
	54	0.733333	2.98039E-001	-9.93375E-005	0.00000E+000	-2.96065E-005	-5.99601E-002	2.98094E-001	3.57970E+000	9	...........
	55	0.746667	2.88880E-001	-9.84008E-005	0.00000E+000	-2.84260E-005	-5.99601E-002	2.88938E-001	3.57970E+000	9	...........
	56	0.76	2.79764E-001	-9.83102E-005	0.00000E+000	-2.75036E-005	-5.99601E-002	2.79818E-001	3.57970E+000	9	...........
	57	0.773333	2.70684E-001	-9.86644E-005	0.00000E+000	-2.67069E-005	-5.99601E-002	2.70735E-001	3.57985E+000	9	...........
	58	0.786667	2.61644E-001	-9.95177E-005	0.00000E+000	-2.60382E-005	-5.99601E-002	2.61698E-001	3.58010E+000	9	...........
	59	0.8	2.52648E-001	-9.79247E-005	0.00000E+000	-2.47405E-005	-5.99601E-002	2.52695E-001	3.58010E+000	9	...........
	60	0.813333	2.43689E-001	-9.92416E-005	0.00000E+000	-2.41841E-005	-5.99601E-002	2.43732E-001	3.58010E+000	9	...........
	61	0.826667	2.34768E-001	-9.86728E-005	0.00000E+000	-2.31652E-005	-5.99601E-002	2.34806E-001	3.58010E+000	9	...........
	62	0.84	2.25881E-001	-9.88134E-005	0.00000E+000	-2.23201E-005	-5.99601E-002	2.25921E-001	3.58010E+000	9	...........
	63	0.853333	2.17037E-001	-9.97501E-005	0.00000E+000	-2.16495E-005	-5.99601E-002	2.17071E-001	3.58010E+000	9	...........
	64	0.866667	2.08234E-001	-9.80789E-005	0.00000E+000	-2.04234E-005	-5.99601E-002	2.08271E-001	3.58010E+000	9	...........
	65	0.88	1.99471E-001	-9.77684E-005	0.00000E+000	-1.95020E-005	-5.99601E-002	1.99505E-001	3.58010E+000	9	...........
	66	0.893333	1.90746E-001	-9.93521E-005	0.00000E+000	-1.89510E-005	-5.99601E-002	1.90780E-001	3.58010E+000	9	...........
	67	0.906667	1.82072E-001	-9.88822E-005	0.00000E+000	-1.80037E-005	-5.99601E-002	1.82101E-001	3.58010E+000	9	...........
	68	0.92	1.73448E-001	-9.88562E-005	0.00000E+000	-1.71464E-005	-5.99601E-002	1.73474E-001	3.58010E+000	9	...........
	69	0.933333	1.64871E-001	-9.92291E-005	0.00000E+000	-1.63600E-005	-5.99601E-002	1.64899E-001	3.58010E+000	9	...........
	70	0.946667	1.56351E-001	-9.88676E-005	0.00000E+000	-1.54581E-005	-5.99601E-002	1.56375E-001	3.58010E+000	9	...........
	71	0.96	1.47880E-001	-9.88145E-005	0.00000E+000	-1.46127E-005	-5.99601E-002	1.47897E-001	3.58010E+000	9	...........
	72	0.97333	1.39464E-001	-9.90676E-005	0.00000E+000	-1.38164E-005	-5.99601E-002	1.39485E-001	3.58010E+000	9	...........
	73	0.98667	1.31111E-001	-9.83967E-005	0.00000E+000	-1.29009E-005	-5.99601E-002	1.31130E-001	3.58010E+000	9	...........
	74	1	1.22820E-001	-9.83842E-005	0.00000E+000	-1.20835E-005	-5.99601E-002	1.22835E-001	3.58010E+000	9	...........
	75	1.01333	1.14584E-001	-9.76142E-005	0.00000E+000	-1.11850E-005	-5.99601E-002	1.14603E-001	3.58010E+000	9	...........
	76	1.02667	1.06415E-001	-9.83633E-005	0.00000E+000	-1.04674E-005	-5.99601E-002	1.06431E-001	3.58010E+000	9	...........
	77	1.04	9.83165E-002	-9.81810E-005	0.00000E+000	-9.65281E-006	-5.99601E-002	9.83298E-002	3.58010E+000	9	...........
	78	1.05333	9.02827E-002	-9.99178E-005	0.00000E+000	-9.02085E-006	-5.99601E-002	9.02919E-002	3.58010E+000	9	...........
	79	1.06667	8.23133E-002	-9.85905E-005	0.00000E+000	-8.11531E-006	-5.99601E-002	8.23180E-002	3.58010E+000	9	...........
	80	1.08	7.44125E-002	-9.86207E-005	0.00000E+000	-7.33861E-006	-5.99601E-002	7.44104E-002	3.58010E+000	9	...........
	81	1.09333	6.65714E-002	-9.88801E-005	0.00000E+000	-6.58259E-006	-5.99601E-002	6.65697E-002	3.58010E+000	9	...........
	82	1.10667	5.87924E-002	-9.90426E-005	0.00000E+000	-5.82296E-006	-5.99601E-002	5.87937E-002	3.58010E+000	9	...........
	83	1.12	5.10867E-002	-9.82654E-005	0.00000E+000	-5.02006E-006	-5.99601E-002	5.10815E-002	3.58010E+000	9	...........
	84	1.13333	4.34731E-002	-9.96980E-005	0.00000E+000	-4.33418E-006	-5.99601E-002	4.34678E-002	3.58010E+000	9	...........
	85	1.14667	3.58907E-002	-9.86613E-005	0.00000E+000	-3.54103E-006	-5.99601E-002	3.58783E-002	3.58010E+000	9	...........
	86	1.16	2.83695E-002	-9.89999E-005	0.00000E+000	-2.80858E-006	-5.99601E-002	2.83502E-002	3.58010E+000	9	...........
	87	1.17333	2.09063E-002	-9.90343E-005	0.00000E+000	-2.07044E-006	-5.99601E-002	2.08857E-002	3.58010E+000	9	...........
	88	1.18667	1.35091E-002	-9.87217E-005	0.00000E+000	-1.33364E-006	-5.99601E-002	1.34828E-002	3.58010E+000	9	...........
	89	1.2	6.17163E-003	-9.87697E-005	0.00000E+000	-6.09570E-007	-5.99601E-002	6.13967E-003	3.58010E+000	9	...........
	90	1.20667	7.04592E-004	-9.86603E-005	0.00000E+000	-6.95152E-008	-5.99601E-002	6.68163E-004	3.58010E+000	9	...........
STARTTIMEOFFSET	QUANT	519.7382	Start Time Offset (s)
