EXPLAIN
TAG	PWR800_DISCHARGE
TITLE	LABEL	PWR Cyclic Charge Discharge (Cell) - Discharge Step	Test &Identifier
DATE	LABEL	13-7-2017	Date
TIME	LABEL	15:13:22	Time
NOTES	NOTES	2	&Notes...
	supercap test cell
	6M KOH
PSTAT	PSTAT	IFC5000-01520	Potentiostat
CAPACITY	QUANT	1.00000E-003	Capacity (A-hr)
CELLTYPE	SELECTOR	1	&Cell Type
WORKINGCONNECTION	SELECTOR	0	&Working Lead
MAXDISCHARGETIME	VARIABLEANDUNITS	1.00000E+002	s	1.00000E+002	second(s)	Max &Discharge Time
DISCHARGEMODE	MULTIPARAM	0	1.00000E-004	&Discharge Mode	Constant Current	Amp(s)
SAMPLETIME	QUANT	1.00000E-002	Sa&mple Period (s)
DISCHARGESTOPAT1	MULTIPARAM	3	0.00000E+000	Discharge Stop At &1	Voltage < Limit	V
DISCHARGESTOPAT2	MULTIPARAM	0	0.00000E+000	Discharge Stop At &2	None	N/A
AESBHCSELECTOR	TOGGLE	F	Save Both Half Cells
IRCOMP	TOGGLE	F	IR &Measure
EOC	QUANT	0	Open Circuit (V)
SEQUENCER	TOGGLE	TRUE	Run as Sequence
PSTATMODEL	IQUANT	53	Pstat Model
PSTATSECTION	LABEL	IFC5000-01520	Pstat Section
PSTATSERIALNO	LABEL	01520	Pstat Serial Number
CTRLMODE	IQUANT	0	Control Mode
ELECTROMETER	IQUANT	1	RE=0 or CS=1
IESTAB	IQUANT	0	I/E Stability
CASPEED	IQUANT	4	Control Amp Speed
CONVENTION	IQUANT	1	Current Convention
ICHRANGE	IQUANT	2	Ich Range
ICHRANGEMODE	TOGGLE	T	Ich Auto Range
ICHOFFSETENABLE	TOGGLE	F	Ich Offset Enable
ICHOFFSET	QUANT	0	Ich Offset (V)
ICHFILTER	IQUANT	1	Ich Filter
VCHRANGE	IQUANT	2	Vch Range
VCHRANGEMODE	TOGGLE	T	Vch Auto Range
VCHOFFSETENABLE	TOGGLE	F	Vch Offset Enable
VCHOFFSET	QUANT	0	Vch Offset (V)
VCHFILTER	IQUANT	1	Vch Filter
IERANGELOWERLIMIT	IQUANT	9	I/E Range Lower Limit
IERANGEMODE	TOGGLE	F	I/E AutoRange
IERANGE	IQUANT	9	I/E Range
ACHSELECT	IQUANT	1	Ach Select
ACHRANGE	IQUANT	2	Ach Range
ACHOFFSETENABLE	TOGGLE	F	Ach Offset Enable
ACHOFFSET	QUANT	0	Ach Offset (V)
ACHFILTER	IQUANT	1	Ach Filter
CABLEID	IQUANT	14	Cable ID
DCCALDATE	LABEL	5-7-2017	DC Calibration Date
ACCALDATE	LABEL	12/3/2015	AC Calibration Date
FRAMEWORKVERSION	QUANT	7.01	Framework Version
INSTRUMENTVERSION	LABEL	4.00	Instrument Version
CURVE	TABLE	91
	Pt	T	Vf	Im	Vu	Pwr	Sig	Ach	Temp	IERange	Over
	#	s	V	A	V	W	V	V	deg C	#	bits
	0	0.013333	8.52970E-001	-9.85519E-005	0.00000E+000	-8.40619E-005	-5.99601E-002	8.53308E-001	3.57980E+000	9	...........
	1	0.026667	8.39583E-001	-9.88989E-005	0.00000E+000	-8.30338E-005	-5.99601E-002	8.39901E-001	3.57980E+000	9	...........
	2	0.04	8.27035E-001	-9.95657E-005	0.00000E+000	-8.23443E-005	-5.99601E-002	8.27377E-001	3.57980E+000	9	...........
	3	0.053333	8.15045E-001	-9.81748E-005	0.00000E+000	-8.00169E-005	-5.99601E-002	8.15361E-001	3.57980E+000	9	...........
	4	0.066667	8.03447E-001	-9.89260E-005	0.00000E+000	-7.94818E-005	-5.99601E-002	8.03777E-001	3.57980E+000	9	...........
	5	0.08	7.92154E-001	-9.83165E-005	0.00000E+000	-7.78818E-005	-5.99601E-002	7.92446E-001	3.57980E+000	9	...........
	6	0.093333	7.81058E-001	-9.95480E-005	0.00000E+000	-7.77527E-005	-5.99601E-002	7.81332E-001	3.57980E+000	9	...........
	7	0.106667	7.70137E-001	-9.83779E-005	0.00000E+000	-7.57645E-005	-5.99601E-002	7.70426E-001	3.57980E+000	9	...........
	8	0.12	7.59355E-001	-9.89405E-005	0.00000E+000	-7.51309E-005	-5.99601E-002	7.59626E-001	3.57980E+000	9	...........
	9	0.133333	7.48663E-001	-9.79695E-005	0.00000E+000	-7.33462E-005	-5.99601E-002	7.48936E-001	3.57980E+000	9	...........
	10	0.146667	7.38047E-001	-9.93656E-005	0.00000E+000	-7.33365E-005	-5.99601E-002	7.38331E-001	3.57980E+000	9	...........
	11	0.16	7.27492E-001	-9.75975E-005	0.00000E+000	-7.10014E-005	-5.99601E-002	7.27776E-001	3.57980E+000	9	...........
	12	0.173333	7.16981E-001	-9.78934E-005	0.00000E+000	-7.01878E-005	-5.99601E-002	7.17255E-001	3.57980E+000	9	...........
	13	0.186667	7.06493E-001	-9.91948E-005	0.00000E+000	-7.00804E-005	-5.99601E-002	7.06791E-001	3.57980E+000	9	...........
	14	0.2	6.96061E-001	-9.74850E-005	0.00000E+000	-6.78555E-005	-5.99601E-002	6.96370E-001	3.57980E+000	9	...........
	15	0.213333	6.85639E-001	-9.86363E-005	0.00000E+000	-6.76289E-005	-5.99601E-002	6.85940E-001	3.57980E+000	9	...........
	16	0.226667	6.75231E-001	-9.97647E-005	0.00000E+000	-6.73642E-005	-5.99601E-002	6.75533E-001	3.57980E+000	9	...........
	17	0.24	6.64821E-001	-9.87832E-005	0.00000E+000	-6.56731E-005	-5.99601E-002	6.65155E-001	3.57980E+000	9	...........
	18	0.253333	6.54446E-001	-9.90791E-005	0.00000E+000	-6.48419E-005	-5.99601E-002	6.54738E-001	3.57980E+000	9	...........
	19	0.266667	6.44072E-001	-9.90156E-005	0.00000E+000	-6.37731E-005	-5.99601E-002	6.44366E-001	3.57980E+000	9	...........
	20	0.28	6.33689E-001	-9.99824E-005	0.00000E+000	-6.33578E-005	-5.99601E-002	6.33991E-001	3.57980E+000	9	...........
	21	0.293333	6.23366E-001	-9.74892E-005	0.00000E+000	-6.07714E-005	-5.99601E-002	6.23646E-001	3.57980E+000	9	...........
	22	0.306667	6.12963E-001	-9.89530E-005	0.00000E+000	-6.06545E-005	-5.99601E-002	6.13298E-001	3.57980E+000	9	...........
	23	0.32	6.02629E-001	-9.87082E-005	0.00000E+000	-5.94844E-005	-5.99601E-002	6.02942E-001	3.57980E+000	9	...........
	24	0.333333	5.92307E-001	-9.83206E-005	0.00000E+000	-5.82360E-005	-5.99601E-002	5.92626E-001	3.57980E+000	9	...........
	25	0.346667	5.81985E-001	-9.92614E-005	0.00000E+000	-5.77687E-005	-5.99601E-002	5.82287E-001	3.57980E+000	9	...........
	26	0.36	5.71695E-001	-9.83039E-005	0.00000E+000	-5.61999E-005	-5.99601E-002	5.71983E-001	3.57980E+000	9	...........
	27	0.373333	5.61400E-001	-9.87603E-005	0.00000E+000	-5.54440E-005	-5.99601E-002	5.61689E-001	3.57980E+000	9	...........
	28	0.386667	5.51125E-001	-9.93375E-005	0.00000E+000	-5.47474E-005	-5.99601E-002	5.51419E-001	3.57980E+000	9	...........
	29	0.4	5.40886E-001	-9.78841E-005	0.00000E+000	-5.29442E-005	-5.99601E-002	5.41181E-001	3.57980E+000	9	...........
	30	0.413333	5.30649E-001	-9.93938E-005	0.00000E+000	-5.27432E-005	-5.99601E-002	5.30921E-001	3.57980E+000	9	...........
	31	0.426667	5.20486E-001	-9.94729E-005	0.00000E+000	-5.17743E-005	-5.99601E-002	5.20725E-001	3.57980E+000	9	...........
	32	0.44	5.10301E-001	-9.92375E-005	0.00000E+000	-5.06410E-005	-5.99601E-002	5.10543E-001	3.57980E+000	9	...........
	33	0.453333	5.00145E-001	-9.81758E-005	0.00000E+000	-4.91021E-005	-5.99601E-002	5.00396E-001	3.57980E+000	9	...........
	34	0.466667	4.90080E-001	-9.92969E-005	0.00000E+000	-4.86634E-005	-5.99601E-002	4.90280E-001	3.57980E+000	9	...........
	35	0.48	4.80325E-001	-9.91614E-005	0.00000E+000	-4.76297E-005	-5.99601E-002	4.80445E-001	3.57980E+000	9	...........
	36	0.493333	4.70353E-001	-9.92344E-005	0.00000E+000	-4.66752E-005	-5.99601E-002	4.70450E-001	3.57980E+000	9	...........
	37	0.506667	4.60371E-001	-9.87936E-005	0.00000E+000	-4.54817E-005	-5.99601E-002	4.60464E-001	3.57939E+000	9	...........
	38	0.52	4.50437E-001	-9.83769E-005	0.00000E+000	-4.43126E-005	-5.99601E-002	4.50527E-001	3.57870E+000	9	...........
	39	0.533333	4.40546E-001	-9.82842E-005	0.00000E+000	-4.32987E-005	-5.99601E-002	4.40633E-001	3.57870E+000	9	...........
	40	0.546667	4.30700E-001	-9.76507E-005	0.00000E+000	-4.20581E-005	-5.99601E-002	4.30789E-001	3.57870E+000	9	...........
	41	0.56	4.20899E-001	-9.87061E-005	0.00000E+000	-4.15453E-005	-5.99601E-002	4.20992E-001	3.57870E+000	9	...........
	42	0.573333	4.11155E-001	-9.86540E-005	0.00000E+000	-4.05621E-005	-5.99601E-002	4.11238E-001	3.57870E+000	9	...........
	43	0.586667	4.01452E-001	-9.98449E-005	0.00000E+000	-4.00829E-005	-5.99601E-002	4.01534E-001	3.57870E+000	9	...........
	44	0.6	3.91803E-001	-9.85217E-005	0.00000E+000	-3.86011E-005	-5.99601E-002	3.91876E-001	3.57870E+000	9	...........
	45	0.613333	3.82194E-001	-9.88030E-005	0.00000E+000	-3.77619E-005	-5.99601E-002	3.82269E-001	3.57870E+000	9	...........
	46	0.626667	3.72641E-001	-9.94334E-005	0.00000E+000	-3.70529E-005	-5.99601E-002	3.72706E-001	3.57870E+000	9	...........
	47	0.64	3.63132E-001	-9.95959E-005	0.00000E+000	-3.61665E-005	-5.99601E-002	3.63202E-001	3.57870E+000	9	...........
	48	0.653333	3.53675E-001	-9.88812E-005	0.00000E+000	-3.49717E-005	-5.99601E-002	3.53741E-001	3.57870E+000	9	...........
	49	0.666667	3.44256E-001	-9.93458E-005	0.00000E+000	-3.42004E-005	-5.99601E-002	3.44319E-001	3.57870E+000	9	...........
	50	0.68	3.34889E-001	-9.84477E-005	0.00000E+000	-3.29691E-005	-5.99601E-002	3.34949E-001	3.57870E+000	9	...........
	51	0.693333	3.25566E-001	-9.86405E-005	0.00000E+000	-3.21140E-005	-5.99601E-002	3.25628E-001	3.57870E+000	9	...........
	52	0.706667	3.16285E-001	-9.94459E-005	0.00000E+000	-3.14533E-005	-5.99601E-002	3.16348E-001	3.57870E+000	9	...........
	53	0.72	3.07047E-001	-9.79664E-005	0.00000E+000	-3.00803E-005	-5.99601E-002	3.07101E-001	3.57870E+000	9	...........
	54	0.733333	2.97843E-001	-9.90447E-005	0.00000E+000	-2.94997E-005	-5.99601E-002	2.97895E-001	3.57870E+000	9	...........
	55	0.746667	2.88680E-001	-9.95823E-005	0.00000E+000	-2.87475E-005	-5.99601E-002	2.88738E-001	3.57870E+000	9	...........
	56	0.76	2.79563E-001	-9.86457E-005	0.00000E+000	-2.75777E-005	-5.99601E-002	2.79617E-001	3.57870E+000	9	...........
	57	0.773333	2.70477E-001	-9.89249E-005	0.00000E+000	-2.67569E-005	-5.99601E-002	2.70532E-001	3.57870E+000	9	...........
	58	0.786667	2.61441E-001	-9.82477E-005	0.00000E+000	-2.56860E-005	-5.99601E-002	2.61494E-001	3.57870E+000	9	...........
	59	0.8	2.52442E-001	-9.88770E-005	0.00000E+000	-2.49607E-005	-5.99601E-002	2.52492E-001	3.57870E+000	9	...........
	60	0.813333	2.43481E-001	-9.95459E-005	0.00000E+000	-2.42375E-005	-5.99601E-002	2.43523E-001	3.57870E+000	9	...........
	61	0.826667	2.34553E-001	-9.88374E-005	0.00000E+000	-2.31826E-005	-5.99601E-002	2.34597E-001	3.57870E+000	9	...........
	62	0.84	2.25660E-001	-9.90687E-005	0.00000E+000	-2.23558E-005	-5.99601E-002	2.25702E-001	3.57870E+000	9	...........
	63	0.853333	2.16813E-001	-9.91312E-005	0.00000E+000	-2.14929E-005	-5.99601E-002	2.16855E-001	3.57870E+000	9	...........
	64	0.866667	2.08005E-001	-9.89812E-005	0.00000E+000	-2.05886E-005	-5.99601E-002	2.08041E-001	3.57870E+000	9	...........
	65	0.88	1.99237E-001	-9.86394E-005	0.00000E+000	-1.96526E-005	-5.99601E-002	1.99274E-001	3.57870E+000	9	...........
	66	0.893333	1.90510E-001	-9.87603E-005	0.00000E+000	-1.88149E-005	-5.99601E-002	1.90546E-001	3.57870E+000	9	...........
	67	0.906667	1.81834E-001	-9.91635E-005	0.00000E+000	-1.80313E-005	-5.99601E-002	1.81861E-001	3.57870E+000	9	...........
	68	0.92	1.73201E-001	-9.86134E-005	0.00000E+000	-1.70800E-005	-5.99601E-002	1.73228E-001	3.57870E+000	9	...........
	69	0.933333	1.64614E-001	-9.94375E-005	0.00000E+000	-1.63688E-005	-5.99601E-002	1.64637E-001	3.57870E+000	9	...........
	70	0.946667	1.56093E-001	-9.88822E-005	0.00000E+000	-1.54348E-005	-5.99601E-002	1.56114E-001	3.57870E+000	9	...........
	71	0.96	1.47618E-001	-9.88072E-005	0.00000E+000	-1.45857E-005	-5.99601E-002	1.47640E-001	3.57870E+000	9	...........
	72	0.97333	1.39197E-001	-9.94646E-005	0.00000E+000	-1.38451E-005	-5.99601E-002	1.39218E-001	3.57870E+000	9	...........
	73	0.98667	1.30836E-001	-9.94209E-005	0.00000E+000	-1.30078E-005	-5.99601E-002	1.30856E-001	3.57870E+000	9	...........
	74	1	1.22535E-001	-9.85842E-005	0.00000E+000	-1.20800E-005	-5.99601E-002	1.22555E-001	3.57870E+000	9	...........
	75	1.01333	1.14293E-001	-9.89874E-005	0.00000E+000	-1.13135E-005	-5.99601E-002	1.14314E-001	3.57870E+000	9	...........
	76	1.02667	1.06120E-001	-9.92458E-005	0.00000E+000	-1.05320E-005	-5.99601E-002	1.06139E-001	3.57870E+000	9	...........
	77	1.04	9.80149E-002	-9.89874E-005	0.00000E+000	-9.70224E-006	-5.99601E-002	9.80284E-002	3.57870E+000	9	...........
	78	1.05333	8.99787E-002	-9.92302E-005	0.00000E+000	-8.92860E-006	-5.99601E-002	8.99801E-002	3.57870E+000	9	...........
	79	1.06667	8.20070E-002	-9.86103E-005	0.00000E+000	-8.08673E-006	-5.99601E-002	8.20045E-002	3.57870E+000	9	...........
	80	1.08	7.40978E-002	-9.99814E-005	0.00000E+000	-7.40840E-006	-5.99601E-002	7.40943E-002	3.57870E+000	9	...........
	81	1.09333	6.62536E-002	-9.86311E-005	0.00000E+000	-6.53466E-006	-5.99601E-002	6.62527E-002	3.57870E+000	9	...........
	82	1.10667	5.84716E-002	-9.87113E-005	0.00000E+000	-5.77181E-006	-5.99601E-002	5.84696E-002	3.57870E+000	9	...........
	83	1.12	5.07628E-002	-9.83883E-005	0.00000E+000	-4.99447E-006	-5.99601E-002	5.07587E-002	3.57870E+000	9	...........
	84	1.13333	4.31479E-002	-9.96824E-005	0.00000E+000	-4.30108E-006	-5.99601E-002	4.31383E-002	3.57870E+000	9	...........
	85	1.14667	3.55542E-002	-9.85029E-005	0.00000E+000	-3.50219E-006	-5.99601E-002	3.55399E-002	3.57870E+000	9	...........
	86	1.16	2.80280E-002	-9.82612E-005	0.00000E+000	-2.75407E-006	-5.99601E-002	2.80122E-002	3.57870E+000	9	...........
	87	1.17333	2.05617E-002	-9.86947E-005	0.00000E+000	-2.02933E-006	-5.99601E-002	2.05388E-002	3.57870E+000	9	...........
	88	1.18667	1.31542E-002	-9.98116E-005	0.00000E+000	-1.31294E-006	-5.99601E-002	1.31265E-002	3.57870E+000	9	...........
	89	1.2	5.80415E-003	-9.91698E-005	0.00000E+000	-5.75596E-007	-5.99601E-002	5.77193E-003	3.57870E+000	9	...........
	90	1.205	7.82461E-004	-9.87131E-005	0.00000E+000	-7.72392E-008	-5.99601E-002	7.53031E-004	3.57870E+000	9	...........
STARTTIMEOFFSET	QUANT	512.2915	Start Time Offset (s)
