EXPLAIN
TAG	PWR800_DISCHARGE
TITLE	LABEL	PWR Cyclic Charge Discharge (Cell) - Discharge Step	Test &Identifier
DATE	LABEL	13-7-2017	Date
TIME	LABEL	15:42:20	Time
NOTES	NOTES	2	&Notes...
	supercap test cell
	6M KOH
PSTAT	PSTAT	IFC5000-01520	Potentiostat
CAPACITY	QUANT	1.00000E-003	Capacity (A-hr)
CELLTYPE	SELECTOR	1	&Cell Type
WORKINGCONNECTION	SELECTOR	0	&Working Lead
MAXDISCHARGETIME	VARIABLEANDUNITS	1.00000E+002	s	1.00000E+002	second(s)	Max &Discharge Time
DISCHARGEMODE	MULTIPARAM	0	1.00000E-004	&Discharge Mode	Constant Current	Amp(s)
SAMPLETIME	QUANT	1.00000E-002	Sa&mple Period (s)
DISCHARGESTOPAT1	MULTIPARAM	3	0.00000E+000	Discharge Stop At &1	Voltage < Limit	V
DISCHARGESTOPAT2	MULTIPARAM	0	0.00000E+000	Discharge Stop At &2	None	N/A
AESBHCSELECTOR	TOGGLE	F	Save Both Half Cells
IRCOMP	TOGGLE	F	IR &Measure
EOC	QUANT	0	Open Circuit (V)
SEQUENCER	TOGGLE	TRUE	Run as Sequence
PSTATMODEL	IQUANT	53	Pstat Model
PSTATSECTION	LABEL	IFC5000-01520	Pstat Section
PSTATSERIALNO	LABEL	01520	Pstat Serial Number
CTRLMODE	IQUANT	0	Control Mode
ELECTROMETER	IQUANT	1	RE=0 or CS=1
IESTAB	IQUANT	0	I/E Stability
CASPEED	IQUANT	4	Control Amp Speed
CONVENTION	IQUANT	1	Current Convention
ICHRANGE	IQUANT	2	Ich Range
ICHRANGEMODE	TOGGLE	T	Ich Auto Range
ICHOFFSETENABLE	TOGGLE	F	Ich Offset Enable
ICHOFFSET	QUANT	0	Ich Offset (V)
ICHFILTER	IQUANT	1	Ich Filter
VCHRANGE	IQUANT	2	Vch Range
VCHRANGEMODE	TOGGLE	T	Vch Auto Range
VCHOFFSETENABLE	TOGGLE	F	Vch Offset Enable
VCHOFFSET	QUANT	0	Vch Offset (V)
VCHFILTER	IQUANT	1	Vch Filter
IERANGELOWERLIMIT	IQUANT	9	I/E Range Lower Limit
IERANGEMODE	TOGGLE	F	I/E AutoRange
IERANGE	IQUANT	9	I/E Range
ACHSELECT	IQUANT	1	Ach Select
ACHRANGE	IQUANT	2	Ach Range
ACHOFFSETENABLE	TOGGLE	F	Ach Offset Enable
ACHOFFSET	QUANT	0	Ach Offset (V)
ACHFILTER	IQUANT	1	Ach Filter
CABLEID	IQUANT	14	Cable ID
DCCALDATE	LABEL	5-7-2017	DC Calibration Date
ACCALDATE	LABEL	12/3/2015	AC Calibration Date
FRAMEWORKVERSION	QUANT	7.01	Framework Version
INSTRUMENTVERSION	LABEL	4.00	Instrument Version
CURVE	TABLE	86
	Pt	T	Vf	Im	Vu	Pwr	Sig	Ach	Temp	IERange	Over
	#	s	V	A	V	W	V	V	deg C	#	bits
	0	0.013333	8.45887E-001	-9.91541E-005	0.00000E+000	-8.38731E-005	-5.99601E-002	8.46222E-001	3.57890E+000	9	...........
	1	0.026667	8.31649E-001	-9.91468E-005	0.00000E+000	-8.24553E-005	-5.99601E-002	8.31957E-001	3.57890E+000	9	...........
	2	0.04	8.18214E-001	-9.84759E-005	0.00000E+000	-8.05743E-005	-5.99601E-002	8.18542E-001	3.57890E+000	9	...........
	3	0.053333	8.05399E-001	-9.89176E-005	0.00000E+000	-7.96682E-005	-5.99601E-002	8.05687E-001	3.57890E+000	9	...........
	4	0.066667	7.92958E-001	-9.83550E-005	0.00000E+000	-7.79914E-005	-5.99601E-002	7.93245E-001	3.57890E+000	9	...........
	5	0.08	7.80811E-001	-9.81425E-005	0.00000E+000	-7.66307E-005	-5.99601E-002	7.81105E-001	3.57890E+000	9	...........
	6	0.093333	7.68882E-001	-9.93948E-005	0.00000E+000	-7.64229E-005	-5.99601E-002	7.69181E-001	3.57890E+000	9	...........
	7	0.106667	7.57106E-001	-9.91708E-005	0.00000E+000	-7.50828E-005	-5.99601E-002	7.57391E-001	3.57890E+000	9	...........
	8	0.12	7.45461E-001	-9.84977E-005	0.00000E+000	-7.34262E-005	-5.99601E-002	7.45780E-001	3.57890E+000	9	...........
	9	0.133333	7.33896E-001	-9.88770E-005	0.00000E+000	-7.25655E-005	-5.99601E-002	7.34198E-001	3.57890E+000	9	...........
	10	0.146667	7.22455E-001	-1.00038E-004	0.00000E+000	-7.22727E-005	-5.99601E-002	7.22701E-001	3.57890E+000	9	...........
	11	0.16	7.10984E-001	-9.91072E-005	0.00000E+000	-7.04637E-005	-5.99601E-002	7.11265E-001	3.57890E+000	9	...........
	12	0.173333	6.99615E-001	-9.93875E-005	0.00000E+000	-6.95330E-005	-5.99601E-002	6.99899E-001	3.57890E+000	9	...........
	13	0.186667	6.88296E-001	-9.87947E-005	0.00000E+000	-6.80000E-005	-5.99601E-002	6.88544E-001	3.57890E+000	9	...........
	14	0.2	6.76993E-001	-9.96469E-005	0.00000E+000	-6.74603E-005	-5.99601E-002	6.77239E-001	3.57890E+000	9	...........
	15	0.213333	6.65712E-001	-9.91281E-005	0.00000E+000	-6.59908E-005	-5.99601E-002	6.65952E-001	3.57890E+000	9	...........
	16	0.226667	6.54446E-001	-9.86144E-005	0.00000E+000	-6.45378E-005	-5.99601E-002	6.54702E-001	3.57890E+000	9	...........
	17	0.24	6.43209E-001	-9.84998E-005	0.00000E+000	-6.33560E-005	-5.99601E-002	6.43458E-001	3.57890E+000	9	...........
	18	0.253333	6.31993E-001	-9.93469E-005	0.00000E+000	-6.27865E-005	-5.99601E-002	6.32241E-001	3.57890E+000	9	...........
	19	0.266667	6.20816E-001	-9.90572E-005	0.00000E+000	-6.14963E-005	-5.99601E-002	6.21061E-001	3.57890E+000	9	...........
	20	0.28	6.09597E-001	-9.85853E-005	0.00000E+000	-6.00973E-005	-5.99601E-002	6.09888E-001	3.57890E+000	9	...........
	21	0.293333	5.98493E-001	-9.94688E-005	0.00000E+000	-5.95313E-005	-5.99601E-002	5.98747E-001	3.57890E+000	9	...........
	22	0.306667	5.87389E-001	-9.88343E-005	0.00000E+000	-5.80541E-005	-5.99601E-002	5.87635E-001	3.57890E+000	9	...........
	23	0.32	5.76304E-001	-9.98668E-005	0.00000E+000	-5.75537E-005	-5.99601E-002	5.76528E-001	3.57890E+000	9	...........
	24	0.333333	5.65274E-001	-9.92323E-005	0.00000E+000	-5.60934E-005	-5.99601E-002	5.65496E-001	3.57890E+000	9	...........
	25	0.346667	5.54246E-001	-9.78611E-005	0.00000E+000	-5.42392E-005	-5.99601E-002	5.54482E-001	3.57890E+000	9	...........
	26	0.36	5.43295E-001	-9.95229E-005	0.00000E+000	-5.40703E-005	-5.99601E-002	5.43516E-001	3.57890E+000	9	...........
	27	0.373333	5.32349E-001	-9.88895E-005	0.00000E+000	-5.26438E-005	-5.99601E-002	5.32585E-001	3.57890E+000	9	...........
	28	0.386667	5.21470E-001	-9.86571E-005	0.00000E+000	-5.14468E-005	-5.99601E-002	5.21711E-001	3.57890E+000	9	...........
	29	0.4	5.10633E-001	-9.86915E-005	0.00000E+000	-5.03951E-005	-5.99601E-002	5.10891E-001	3.57890E+000	9	...........
	30	0.413333	4.99839E-001	-9.85988E-005	0.00000E+000	-4.92835E-005	-5.99601E-002	5.00104E-001	3.57890E+000	9	...........
	31	0.426667	4.89131E-001	-9.84800E-005	0.00000E+000	-4.81696E-005	-5.99601E-002	4.89376E-001	3.57890E+000	9	...........
	32	0.44	4.78836E-001	-9.89760E-005	0.00000E+000	-4.73932E-005	-5.99601E-002	4.78933E-001	3.57890E+000	9	...........
	33	0.453333	4.68230E-001	-9.92969E-005	0.00000E+000	-4.64938E-005	-5.99601E-002	4.68325E-001	3.57890E+000	9	...........
	34	0.466667	4.57687E-001	-9.88374E-005	0.00000E+000	-4.52365E-005	-5.99601E-002	4.57779E-001	3.57890E+000	9	...........
	35	0.48	4.47217E-001	-9.90218E-005	0.00000E+000	-4.42842E-005	-5.99601E-002	4.47308E-001	3.57890E+000	9	...........
	36	0.493333	4.36814E-001	-9.81768E-005	0.00000E+000	-4.28851E-005	-5.99601E-002	4.36905E-001	3.57890E+000	9	...........
	37	0.506667	4.26476E-001	-9.86290E-005	0.00000E+000	-4.20629E-005	-5.99601E-002	4.26564E-001	3.57890E+000	9	...........
	38	0.52	4.16200E-001	-9.90145E-005	0.00000E+000	-4.12098E-005	-5.99601E-002	4.16285E-001	3.57890E+000	9	...........
	39	0.533333	4.06008E-001	-9.90333E-005	0.00000E+000	-4.02083E-005	-5.99601E-002	4.06085E-001	3.57890E+000	9	...........
	40	0.546667	3.95866E-001	-9.87770E-005	0.00000E+000	-3.91025E-005	-5.99601E-002	3.95943E-001	3.57890E+000	9	...........
	41	0.56	3.85798E-001	-9.99866E-005	0.00000E+000	-3.85746E-005	-5.99601E-002	3.85872E-001	3.57868E+000	9	...........
	42	0.573333	3.75793E-001	-9.87259E-005	0.00000E+000	-3.71005E-005	-5.99601E-002	3.75864E-001	3.57860E+000	9	...........
	43	0.586667	3.65851E-001	-9.81216E-005	0.00000E+000	-3.58978E-005	-5.99601E-002	3.65924E-001	3.57860E+000	9	...........
	44	0.6	3.55979E-001	-9.84029E-005	0.00000E+000	-3.50294E-005	-5.99601E-002	3.56042E-001	3.57860E+000	9	...........
	45	0.613333	3.46158E-001	-9.81612E-005	0.00000E+000	-3.39793E-005	-5.99601E-002	3.46225E-001	3.57860E+000	9	...........
	46	0.626667	3.36399E-001	-9.89822E-005	0.00000E+000	-3.32975E-005	-5.99601E-002	3.36469E-001	3.57860E+000	9	...........
	47	0.64	3.26706E-001	-9.91145E-005	0.00000E+000	-3.23813E-005	-5.99601E-002	3.26775E-001	3.57860E+000	9	...........
	48	0.653333	3.17068E-001	-9.88780E-005	0.00000E+000	-3.13510E-005	-5.99601E-002	3.17131E-001	3.57860E+000	9	...........
	49	0.666667	3.07475E-001	-9.88166E-005	0.00000E+000	-3.03836E-005	-5.99601E-002	3.07539E-001	3.57860E+000	9	...........
	50	0.68	2.97944E-001	-9.90697E-005	0.00000E+000	-2.95172E-005	-5.99601E-002	2.98006E-001	3.57860E+000	9	...........
	51	0.693333	2.88462E-001	-9.92635E-005	0.00000E+000	-2.86337E-005	-5.99601E-002	2.88520E-001	3.57860E+000	9	...........
	52	0.706667	2.79037E-001	-9.78403E-005	0.00000E+000	-2.73011E-005	-5.99601E-002	2.79098E-001	3.57860E+000	9	...........
	53	0.72	2.69660E-001	-9.92604E-005	0.00000E+000	-2.67665E-005	-5.99601E-002	2.69714E-001	3.57860E+000	9	...........
	54	0.733333	2.60338E-001	-9.79455E-005	0.00000E+000	-2.54989E-005	-5.99601E-002	2.60386E-001	3.57860E+000	9	...........
	55	0.746667	2.51062E-001	-9.91145E-005	0.00000E+000	-2.48839E-005	-5.99601E-002	2.51109E-001	3.57860E+000	9	...........
	56	0.76	2.41839E-001	-9.95521E-005	0.00000E+000	-2.40756E-005	-5.99601E-002	2.41879E-001	3.57860E+000	9	...........
	57	0.773333	2.32661E-001	-9.92469E-005	0.00000E+000	-2.30909E-005	-5.99601E-002	2.32698E-001	3.57860E+000	9	...........
	58	0.786667	2.23531E-001	-9.88405E-005	0.00000E+000	-2.20940E-005	-5.99601E-002	2.23570E-001	3.57860E+000	9	...........
	59	0.8	2.14454E-001	-9.85498E-005	0.00000E+000	-2.11344E-005	-5.99601E-002	2.14489E-001	3.57860E+000	9	...........
	60	0.813333	2.05435E-001	-1.00141E-004	0.00000E+000	-2.05724E-005	-5.99601E-002	2.05469E-001	3.57860E+000	9	...........
	61	0.826667	1.96465E-001	-9.99814E-005	0.00000E+000	-1.96428E-005	-5.99601E-002	1.96502E-001	3.57860E+000	9	...........
	62	0.84	1.87561E-001	-9.90604E-005	0.00000E+000	-1.85799E-005	-5.99601E-002	1.87595E-001	3.57860E+000	9	...........
	63	0.853333	1.78716E-001	-9.86697E-005	0.00000E+000	-1.76338E-005	-5.99601E-002	1.78742E-001	3.57860E+000	9	...........
	64	0.866667	1.69933E-001	-9.89885E-005	0.00000E+000	-1.68214E-005	-5.99601E-002	1.69954E-001	3.57860E+000	9	...........
	65	0.88	1.61216E-001	-9.91791E-005	0.00000E+000	-1.59892E-005	-5.99601E-002	1.61241E-001	3.57860E+000	9	...........
	66	0.893333	1.52569E-001	-9.86332E-005	0.00000E+000	-1.50483E-005	-5.99601E-002	1.52587E-001	3.57860E+000	9	...........
	67	0.906667	1.43988E-001	-9.92594E-005	0.00000E+000	-1.42921E-005	-5.99601E-002	1.44007E-001	3.57860E+000	9	...........
	68	0.92	1.35478E-001	-9.80466E-005	0.00000E+000	-1.32832E-005	-5.99601E-002	1.35499E-001	3.57860E+000	9	...........
	69	0.933333	1.27040E-001	-9.92125E-005	0.00000E+000	-1.26039E-005	-5.99601E-002	1.27056E-001	3.57860E+000	9	...........
	70	0.946667	1.18676E-001	-9.87259E-005	0.00000E+000	-1.17164E-005	-5.99601E-002	1.18693E-001	3.57860E+000	9	...........
	71	0.96	1.10391E-001	-9.85978E-005	0.00000E+000	-1.08843E-005	-5.99601E-002	1.10407E-001	3.57860E+000	9	...........
	72	0.97333	1.02179E-001	-9.91656E-005	0.00000E+000	-1.01326E-005	-5.99601E-002	1.02189E-001	3.57860E+000	9	...........
	73	0.98667	9.40423E-002	-9.96490E-005	0.00000E+000	-9.37123E-006	-5.99601E-002	9.40476E-002	3.57860E+000	9	...........
	74	1	8.59750E-002	-9.93406E-005	0.00000E+000	-8.54081E-006	-5.99601E-002	8.59846E-002	3.57860E+000	9	...........
	75	1.01333	7.79896E-002	-9.85238E-005	0.00000E+000	-7.68383E-006	-5.99601E-002	7.79954E-002	3.57860E+000	9	...........
	76	1.02667	7.00762E-002	-9.86822E-005	0.00000E+000	-6.91527E-006	-5.99601E-002	7.00736E-002	3.57860E+000	9	...........
	77	1.04	6.22286E-002	-9.89478E-005	0.00000E+000	-6.15739E-006	-5.99601E-002	6.22290E-002	3.57860E+000	9	...........
	78	1.05333	5.44584E-002	-9.91573E-005	0.00000E+000	-5.39995E-006	-5.99601E-002	5.44527E-002	3.57860E+000	9	...........
	79	1.06667	4.67815E-002	-9.89218E-005	0.00000E+000	-4.62771E-006	-5.99601E-002	4.67729E-002	3.57860E+000	9	...........
	80	1.08	3.91589E-002	-1.00111E-004	0.00000E+000	-3.92022E-006	-5.99601E-002	3.91464E-002	3.57860E+000	9	...........
	81	1.09333	3.15950E-002	-9.78778E-005	0.00000E+000	-3.09245E-006	-5.99601E-002	3.15778E-002	3.57860E+000	9	...........
	82	1.10667	2.40939E-002	-9.88103E-005	0.00000E+000	-2.38073E-006	-5.99601E-002	2.40733E-002	3.57860E+000	9	...........
	83	1.12	1.66561E-002	-9.95844E-005	0.00000E+000	-1.65869E-006	-5.99601E-002	1.66273E-002	3.57860E+000	9	...........
	84	1.13333	9.28509E-003	-9.92208E-005	0.00000E+000	-9.21274E-007	-5.99601E-002	9.25659E-003	3.57860E+000	9	...........
	85	1.145	2.43232E-003	-9.86472E-005	0.00000E+000	-2.39941E-007	-5.99601E-002	2.40355E-003	3.57860E+000	9	...........
STARTTIMEOFFSET	QUANT	1822.712	Start Time Offset (s)
