EXPLAIN
TAG	PWR800_DISCHARGE
TITLE	LABEL	PWR Cyclic Charge Discharge (Cell) - Discharge Step	Test &Identifier
DATE	LABEL	13-7-2017	Date
TIME	LABEL	15:23:49	Time
NOTES	NOTES	2	&Notes...
	supercap test cell
	6M KOH
PSTAT	PSTAT	IFC5000-01520	Potentiostat
CAPACITY	QUANT	1.00000E-003	Capacity (A-hr)
CELLTYPE	SELECTOR	1	&Cell Type
WORKINGCONNECTION	SELECTOR	0	&Working Lead
MAXDISCHARGETIME	VARIABLEANDUNITS	1.00000E+002	s	1.00000E+002	second(s)	Max &Discharge Time
DISCHARGEMODE	MULTIPARAM	0	1.00000E-004	&Discharge Mode	Constant Current	Amp(s)
SAMPLETIME	QUANT	1.00000E-002	Sa&mple Period (s)
DISCHARGESTOPAT1	MULTIPARAM	3	0.00000E+000	Discharge Stop At &1	Voltage < Limit	V
DISCHARGESTOPAT2	MULTIPARAM	0	0.00000E+000	Discharge Stop At &2	None	N/A
AESBHCSELECTOR	TOGGLE	F	Save Both Half Cells
IRCOMP	TOGGLE	F	IR &Measure
EOC	QUANT	0	Open Circuit (V)
SEQUENCER	TOGGLE	TRUE	Run as Sequence
PSTATMODEL	IQUANT	53	Pstat Model
PSTATSECTION	LABEL	IFC5000-01520	Pstat Section
PSTATSERIALNO	LABEL	01520	Pstat Serial Number
CTRLMODE	IQUANT	0	Control Mode
ELECTROMETER	IQUANT	1	RE=0 or CS=1
IESTAB	IQUANT	0	I/E Stability
CASPEED	IQUANT	4	Control Amp Speed
CONVENTION	IQUANT	1	Current Convention
ICHRANGE	IQUANT	2	Ich Range
ICHRANGEMODE	TOGGLE	T	Ich Auto Range
ICHOFFSETENABLE	TOGGLE	F	Ich Offset Enable
ICHOFFSET	QUANT	0	Ich Offset (V)
ICHFILTER	IQUANT	1	Ich Filter
VCHRANGE	IQUANT	2	Vch Range
VCHRANGEMODE	TOGGLE	T	Vch Auto Range
VCHOFFSETENABLE	TOGGLE	F	Vch Offset Enable
VCHOFFSET	QUANT	0	Vch Offset (V)
VCHFILTER	IQUANT	1	Vch Filter
IERANGELOWERLIMIT	IQUANT	9	I/E Range Lower Limit
IERANGEMODE	TOGGLE	F	I/E AutoRange
IERANGE	IQUANT	9	I/E Range
ACHSELECT	IQUANT	1	Ach Select
ACHRANGE	IQUANT	2	Ach Range
ACHOFFSETENABLE	TOGGLE	F	Ach Offset Enable
ACHOFFSET	QUANT	0	Ach Offset (V)
ACHFILTER	IQUANT	1	Ach Filter
CABLEID	IQUANT	14	Cable ID
DCCALDATE	LABEL	5-7-2017	DC Calibration Date
ACCALDATE	LABEL	12/3/2015	AC Calibration Date
FRAMEWORKVERSION	QUANT	7.01	Framework Version
INSTRUMENTVERSION	LABEL	4.00	Instrument Version
CURVE	TABLE	89
	Pt	T	Vf	Im	Vu	Pwr	Sig	Ach	Temp	IERange	Over
	#	s	V	A	V	W	V	V	deg C	#	bits
	0	0.013333	8.49739E-001	-9.87134E-005	0.00000E+000	-8.38807E-005	-5.99601E-002	8.50073E-001	3.57990E+000	9	...........
	1	0.026667	8.35948E-001	-9.82800E-005	0.00000E+000	-8.21569E-005	-5.99601E-002	8.36278E-001	3.57990E+000	9	...........
	2	0.04	8.23026E-001	-9.83915E-005	0.00000E+000	-8.09787E-005	-5.99601E-002	8.23361E-001	3.57990E+000	9	...........
	3	0.053333	8.10645E-001	-9.89009E-005	0.00000E+000	-8.01735E-005	-5.99601E-002	8.10960E-001	3.57990E+000	9	...........
	4	0.066667	7.98705E-001	-9.88895E-005	0.00000E+000	-7.89836E-005	-5.99601E-002	7.99001E-001	3.57990E+000	9	...........
	5	0.08	7.86970E-001	-9.92791E-005	0.00000E+000	-7.81297E-005	-5.99601E-002	7.87309E-001	3.57990E+000	9	...........
	6	0.093333	7.75524E-001	-9.81841E-005	0.00000E+000	-7.61442E-005	-5.99601E-002	7.75829E-001	3.57990E+000	9	...........
	7	0.106667	7.64200E-001	-9.90718E-005	0.00000E+000	-7.57107E-005	-5.99601E-002	7.64525E-001	3.57990E+000	9	...........
	8	0.12	7.53034E-001	-9.82706E-005	0.00000E+000	-7.40011E-005	-5.99601E-002	7.53349E-001	3.57990E+000	9	...........
	9	0.133333	7.41927E-001	-9.92906E-005	0.00000E+000	-7.36664E-005	-5.99601E-002	7.42275E-001	3.57990E+000	9	...........
	10	0.146667	7.30949E-001	-9.95302E-005	0.00000E+000	-7.27515E-005	-5.99601E-002	7.31240E-001	3.57990E+000	9	...........
	11	0.16	7.19996E-001	-9.91041E-005	0.00000E+000	-7.13546E-005	-5.99601E-002	7.20304E-001	3.57990E+000	9	...........
	12	0.173333	7.09054E-001	-9.95157E-005	0.00000E+000	-7.05619E-005	-5.99601E-002	7.09369E-001	3.57990E+000	9	...........
	13	0.186667	6.98211E-001	-9.85425E-005	0.00000E+000	-6.88035E-005	-5.99601E-002	6.98512E-001	3.57965E+000	9	...........
	14	0.2	6.87364E-001	-9.94271E-005	0.00000E+000	-6.83426E-005	-5.99601E-002	6.87645E-001	3.57940E+000	9	...........
	15	0.213333	6.76550E-001	-9.98157E-005	0.00000E+000	-6.75303E-005	-5.99601E-002	6.76822E-001	3.57940E+000	9	...........
	16	0.226667	6.65743E-001	-9.92177E-005	0.00000E+000	-6.60534E-005	-5.99601E-002	6.66023E-001	3.57940E+000	9	...........
	17	0.24	6.54957E-001	-9.86978E-005	0.00000E+000	-6.46428E-005	-5.99601E-002	6.55189E-001	3.57940E+000	9	...........
	18	0.253333	6.44200E-001	-9.82862E-005	0.00000E+000	-6.33160E-005	-5.99601E-002	6.44449E-001	3.57940E+000	9	...........
	19	0.266667	6.33423E-001	-9.95250E-005	0.00000E+000	-6.30415E-005	-5.99601E-002	6.33659E-001	3.57940E+000	9	...........
	20	0.28	6.22699E-001	-9.77611E-005	0.00000E+000	-6.08758E-005	-5.99601E-002	6.22928E-001	3.57940E+000	9	...........
	21	0.293333	6.11928E-001	-9.88416E-005	0.00000E+000	-6.04839E-005	-5.99601E-002	6.12212E-001	3.57940E+000	9	...........
	22	0.306667	6.01224E-001	-9.87561E-005	0.00000E+000	-5.93745E-005	-5.99601E-002	6.01496E-001	3.57940E+000	9	...........
	23	0.32	5.90523E-001	-9.81466E-005	0.00000E+000	-5.79579E-005	-5.99601E-002	5.90807E-001	3.57940E+000	9	...........
	24	0.333333	5.79837E-001	-9.86332E-005	0.00000E+000	-5.71912E-005	-5.99601E-002	5.80116E-001	3.57940E+000	9	...........
	25	0.346667	5.69201E-001	-9.84154E-005	0.00000E+000	-5.60181E-005	-5.99601E-002	5.69471E-001	3.57940E+000	9	...........
	26	0.36	5.58552E-001	-9.84477E-005	0.00000E+000	-5.49881E-005	-5.99601E-002	5.58826E-001	3.57940E+000	9	...........
	27	0.373333	5.47973E-001	-9.94490E-005	0.00000E+000	-5.44953E-005	-5.99601E-002	5.48244E-001	3.57940E+000	9	...........
	28	0.386667	5.37405E-001	-9.86915E-005	0.00000E+000	-5.30373E-005	-5.99601E-002	5.37676E-001	3.57940E+000	9	...........
	29	0.4	5.26835E-001	-9.87249E-005	0.00000E+000	-5.20117E-005	-5.99601E-002	5.27119E-001	3.57940E+000	9	...........
	30	0.413333	5.16369E-001	-1.00085E-004	0.00000E+000	-5.16805E-005	-5.99601E-002	5.16613E-001	3.57940E+000	9	...........
	31	0.426667	5.05873E-001	-9.79862E-005	0.00000E+000	-4.95686E-005	-5.99601E-002	5.06133E-001	3.57940E+000	9	...........
	32	0.44	4.95482E-001	-9.87634E-005	0.00000E+000	-4.89355E-005	-5.99601E-002	4.95724E-001	3.57940E+000	9	...........
	33	0.453333	4.85252E-001	-9.88030E-005	0.00000E+000	-4.79444E-005	-5.99601E-002	4.85420E-001	3.57940E+000	9	...........
	34	0.466667	4.75147E-001	-9.81820E-005	0.00000E+000	-4.66509E-005	-5.99601E-002	4.75244E-001	3.57940E+000	9	...........
	35	0.48	4.64871E-001	-9.89780E-005	0.00000E+000	-4.60120E-005	-5.99601E-002	4.64962E-001	3.57940E+000	9	...........
	36	0.493333	4.54652E-001	-9.89989E-005	0.00000E+000	-4.50100E-005	-5.99601E-002	4.54741E-001	3.57940E+000	9	...........
	37	0.506667	4.44474E-001	-9.97032E-005	0.00000E+000	-4.43155E-005	-5.99601E-002	4.44569E-001	3.57940E+000	9	...........
	38	0.52	4.34360E-001	-9.97740E-005	0.00000E+000	-4.33379E-005	-5.99601E-002	4.34448E-001	3.57940E+000	9	...........
	39	0.533333	4.24305E-001	-9.94573E-005	0.00000E+000	-4.22002E-005	-5.99601E-002	4.24396E-001	3.57940E+000	9	...........
	40	0.546667	4.14312E-001	-9.83446E-005	0.00000E+000	-4.07454E-005	-5.99601E-002	4.14401E-001	3.57940E+000	9	...........
	41	0.56	4.04377E-001	-9.85300E-005	0.00000E+000	-3.98433E-005	-5.99601E-002	4.04453E-001	3.57940E+000	9	...........
	42	0.573333	3.94495E-001	-9.90208E-005	0.00000E+000	-3.90632E-005	-5.99601E-002	3.94566E-001	3.57940E+000	9	...........
	43	0.586667	3.84665E-001	-9.93969E-005	0.00000E+000	-3.82345E-005	-5.99601E-002	3.84737E-001	3.57940E+000	9	...........
	44	0.6	3.74898E-001	-9.91583E-005	0.00000E+000	-3.71742E-005	-5.99601E-002	3.74967E-001	3.57940E+000	9	...........
	45	0.613333	3.65185E-001	-9.97053E-005	0.00000E+000	-3.64109E-005	-5.99601E-002	3.65249E-001	3.57940E+000	9	...........
	46	0.626667	3.55528E-001	-9.88416E-005	0.00000E+000	-3.51410E-005	-5.99601E-002	3.55595E-001	3.57940E+000	9	...........
	47	0.64	3.45925E-001	-9.92083E-005	0.00000E+000	-3.43186E-005	-5.99601E-002	3.45990E-001	3.57940E+000	9	...........
	48	0.653333	3.36369E-001	-9.92302E-005	0.00000E+000	-3.33779E-005	-5.99601E-002	3.36433E-001	3.57940E+000	9	...........
	49	0.666667	3.26872E-001	-9.90843E-005	0.00000E+000	-3.23879E-005	-5.99601E-002	3.26934E-001	3.57940E+000	9	...........
	50	0.68	3.17422E-001	-9.87582E-005	0.00000E+000	-3.13480E-005	-5.99601E-002	3.17481E-001	3.57940E+000	9	...........
	51	0.693333	3.08022E-001	-9.91302E-005	0.00000E+000	-3.05343E-005	-5.99601E-002	3.08079E-001	3.57940E+000	9	...........
	52	0.706667	2.98670E-001	-9.90041E-005	0.00000E+000	-2.95696E-005	-5.99601E-002	2.98725E-001	3.57940E+000	9	...........
	53	0.72	2.89359E-001	-9.94886E-005	0.00000E+000	-2.87879E-005	-5.99601E-002	2.89415E-001	3.57940E+000	9	...........
	54	0.733333	2.80100E-001	-9.84113E-005	0.00000E+000	-2.75650E-005	-5.99601E-002	2.80147E-001	3.57940E+000	9	...........
	55	0.746667	2.70883E-001	-9.84540E-005	0.00000E+000	-2.66695E-005	-5.99601E-002	2.70932E-001	3.57940E+000	9	...........
	56	0.76	2.61700E-001	-9.96917E-005	0.00000E+000	-2.60893E-005	-5.99601E-002	2.61747E-001	3.57940E+000	9	...........
	57	0.773333	2.52568E-001	-9.81039E-005	0.00000E+000	-2.47779E-005	-5.99601E-002	2.52615E-001	3.57940E+000	9	...........
	58	0.786667	2.43483E-001	-9.91771E-005	0.00000E+000	-2.41480E-005	-5.99601E-002	2.43522E-001	3.57940E+000	9	...........
	59	0.8	2.34440E-001	-9.82769E-005	0.00000E+000	-2.30400E-005	-5.99601E-002	2.34477E-001	3.57940E+000	9	...........
	60	0.813333	2.25432E-001	-9.92896E-005	0.00000E+000	-2.23830E-005	-5.99601E-002	2.25470E-001	3.57940E+000	9	...........
	61	0.826667	2.16477E-001	-9.87374E-005	0.00000E+000	-2.13743E-005	-5.99601E-002	2.16511E-001	3.57940E+000	9	...........
	62	0.84	2.07567E-001	-9.85790E-005	0.00000E+000	-2.04617E-005	-5.99601E-002	2.07593E-001	3.57940E+000	9	...........
	63	0.853333	1.98701E-001	-9.89239E-005	0.00000E+000	-1.96563E-005	-5.99601E-002	1.98738E-001	3.57940E+000	9	...........
	64	0.866667	1.89894E-001	-9.89968E-005	0.00000E+000	-1.87989E-005	-5.99601E-002	1.89921E-001	3.57940E+000	9	...........
	65	0.88	1.81124E-001	-9.92562E-005	0.00000E+000	-1.79777E-005	-5.99601E-002	1.81149E-001	3.57940E+000	9	...........
	66	0.893333	1.72413E-001	-9.78382E-005	0.00000E+000	-1.68686E-005	-5.99601E-002	1.72434E-001	3.57940E+000	9	...........
	67	0.906667	1.63767E-001	-9.85269E-005	0.00000E+000	-1.61354E-005	-5.99601E-002	1.63777E-001	3.57940E+000	9	...........
	68	0.92	1.55172E-001	-9.86624E-005	0.00000E+000	-1.53097E-005	-5.99601E-002	1.55183E-001	3.57940E+000	9	...........
	69	0.933333	1.46640E-001	-9.82789E-005	0.00000E+000	-1.44116E-005	-5.99601E-002	1.46645E-001	3.57940E+000	9	...........
	70	0.946667	1.38167E-001	-9.89322E-005	0.00000E+000	-1.36692E-005	-5.99601E-002	1.38182E-001	3.57940E+000	9	...........
	71	0.96	1.29767E-001	-9.91572E-005	0.00000E+000	-1.28674E-005	-5.99601E-002	1.29776E-001	3.57940E+000	9	...........
	72	0.97333	1.21433E-001	-9.87343E-005	0.00000E+000	-1.19896E-005	-5.99601E-002	1.21447E-001	3.57940E+000	9	...........
	73	0.98667	1.13171E-001	-9.94292E-005	0.00000E+000	-1.12525E-005	-5.99601E-002	1.13180E-001	3.57940E+000	9	...........
	74	1	1.04982E-001	-9.89562E-005	0.00000E+000	-1.03886E-005	-5.99601E-002	1.04987E-001	3.57940E+000	9	...........
	75	1.01333	9.68552E-002	-9.91395E-005	0.00000E+000	-9.60218E-006	-5.99601E-002	9.68659E-002	3.57940E+000	9	...........
	76	1.02667	8.88074E-002	-9.88145E-005	0.00000E+000	-8.77546E-006	-5.99601E-002	8.88078E-002	3.57940E+000	9	...........
	77	1.04	8.08257E-002	-9.88468E-005	0.00000E+000	-7.98936E-006	-5.99601E-002	8.08276E-002	3.57940E+000	9	...........
	78	1.05333	7.29137E-002	-9.88426E-005	0.00000E+000	-7.20698E-006	-5.99601E-002	7.29102E-002	3.57940E+000	9	...........
	79	1.06667	6.50744E-002	-9.88905E-005	0.00000E+000	-6.43524E-006	-5.99601E-002	6.50700E-002	3.57940E+000	9	...........
	80	1.08	5.72948E-002	-9.81852E-005	0.00000E+000	-5.62550E-006	-5.99601E-002	5.72951E-002	3.57940E+000	9	...........
	81	1.09333	4.96002E-002	-9.86290E-005	0.00000E+000	-4.89202E-006	-5.99601E-002	4.95945E-002	3.57940E+000	9	...........
	82	1.10667	4.19839E-002	-9.89072E-005	0.00000E+000	-4.15251E-006	-5.99601E-002	4.19774E-002	3.57940E+000	9	...........
	83	1.12	3.44106E-002	-9.95667E-005	0.00000E+000	-3.42615E-006	-5.99601E-002	3.43977E-002	3.57940E+000	9	...........
	84	1.13333	2.68976E-002	-9.85728E-005	0.00000E+000	-2.65137E-006	-5.99601E-002	2.68790E-002	3.57940E+000	9	...........
	85	1.14667	1.94450E-002	-9.88978E-005	0.00000E+000	-1.92307E-006	-5.99601E-002	1.94253E-002	3.57940E+000	9	...........
	86	1.16	1.20596E-002	-9.90520E-005	0.00000E+000	-1.19453E-006	-5.99601E-002	1.20358E-002	3.57940E+000	9	...........
	87	1.17333	4.74077E-003	-9.81435E-005	0.00000E+000	-4.65275E-007	-5.99601E-002	4.70924E-003	3.57940E+000	9	...........
	88	1.17667	1.92978E-004	-1.01157E-004	0.00000E+000	-1.95210E-008	-5.99601E-002	1.51272E-004	3.57940E+000	9	...........
STARTTIMEOFFSET	QUANT	986.609	Start Time Offset (s)
