EXPLAIN
TAG	PWR800_DISCHARGE
TITLE	LABEL	PWR Cyclic Charge Discharge (Cell) - Discharge Step	Test &Identifier
DATE	LABEL	13-7-2017	Date
TIME	LABEL	15:52:15	Time
NOTES	NOTES	2	&Notes...
	supercap test cell
	6M KOH
PSTAT	PSTAT	IFC5000-01520	Potentiostat
CAPACITY	QUANT	1.00000E-003	Capacity (A-hr)
CELLTYPE	SELECTOR	1	&Cell Type
WORKINGCONNECTION	SELECTOR	0	&Working Lead
MAXDISCHARGETIME	VARIABLEANDUNITS	1.00000E+002	s	1.00000E+002	second(s)	Max &Discharge Time
DISCHARGEMODE	MULTIPARAM	0	1.00000E-004	&Discharge Mode	Constant Current	Amp(s)
SAMPLETIME	QUANT	1.00000E-002	Sa&mple Period (s)
DISCHARGESTOPAT1	MULTIPARAM	3	0.00000E+000	Discharge Stop At &1	Voltage < Limit	V
DISCHARGESTOPAT2	MULTIPARAM	0	0.00000E+000	Discharge Stop At &2	None	N/A
AESBHCSELECTOR	TOGGLE	F	Save Both Half Cells
IRCOMP	TOGGLE	F	IR &Measure
EOC	QUANT	0	Open Circuit (V)
SEQUENCER	TOGGLE	TRUE	Run as Sequence
PSTATMODEL	IQUANT	53	Pstat Model
PSTATSECTION	LABEL	IFC5000-01520	Pstat Section
PSTATSERIALNO	LABEL	01520	Pstat Serial Number
CTRLMODE	IQUANT	0	Control Mode
ELECTROMETER	IQUANT	1	RE=0 or CS=1
IESTAB	IQUANT	0	I/E Stability
CASPEED	IQUANT	4	Control Amp Speed
CONVENTION	IQUANT	1	Current Convention
ICHRANGE	IQUANT	2	Ich Range
ICHRANGEMODE	TOGGLE	T	Ich Auto Range
ICHOFFSETENABLE	TOGGLE	F	Ich Offset Enable
ICHOFFSET	QUANT	0	Ich Offset (V)
ICHFILTER	IQUANT	1	Ich Filter
VCHRANGE	IQUANT	2	Vch Range
VCHRANGEMODE	TOGGLE	T	Vch Auto Range
VCHOFFSETENABLE	TOGGLE	F	Vch Offset Enable
VCHOFFSET	QUANT	0	Vch Offset (V)
VCHFILTER	IQUANT	1	Vch Filter
IERANGELOWERLIMIT	IQUANT	9	I/E Range Lower Limit
IERANGEMODE	TOGGLE	F	I/E AutoRange
IERANGE	IQUANT	9	I/E Range
ACHSELECT	IQUANT	1	Ach Select
ACHRANGE	IQUANT	2	Ach Range
ACHOFFSETENABLE	TOGGLE	F	Ach Offset Enable
ACHOFFSET	QUANT	0	Ach Offset (V)
ACHFILTER	IQUANT	1	Ach Filter
CABLEID	IQUANT	14	Cable ID
DCCALDATE	LABEL	5-7-2017	DC Calibration Date
ACCALDATE	LABEL	12/3/2015	AC Calibration Date
FRAMEWORKVERSION	QUANT	7.01	Framework Version
INSTRUMENTVERSION	LABEL	4.00	Instrument Version
CURVE	TABLE	86
	Pt	T	Vf	Im	Vu	Pwr	Sig	Ach	Temp	IERange	Over
	#	s	V	A	V	W	V	V	deg C	#	bits
	0	0.013333	8.46000E-001	-9.85623E-005	0.00000E+000	-8.33838E-005	-5.99601E-002	8.46318E-001	3.57990E+000	9	...........
	1	0.026667	8.31719E-001	-9.94063E-005	0.00000E+000	-8.26781E-005	-5.99601E-002	8.32026E-001	3.57990E+000	9	...........
	2	0.04	8.18274E-001	-9.84592E-005	0.00000E+000	-8.05666E-005	-5.99601E-002	8.18551E-001	3.57990E+000	9	...........
	3	0.053333	8.05359E-001	-9.85009E-005	0.00000E+000	-7.93286E-005	-5.99601E-002	8.05648E-001	3.57990E+000	9	...........
	4	0.066667	7.92853E-001	-9.88739E-005	0.00000E+000	-7.83925E-005	-5.99601E-002	7.93168E-001	3.57990E+000	9	...........
	5	0.08	7.80606E-001	-9.89145E-005	0.00000E+000	-7.72133E-005	-5.99601E-002	7.80922E-001	3.57990E+000	9	...........
	6	0.093333	7.68568E-001	-9.85384E-005	0.00000E+000	-7.57334E-005	-5.99601E-002	7.68901E-001	3.57990E+000	9	...........
	7	0.106667	7.56697E-001	-9.91052E-005	0.00000E+000	-7.49926E-005	-5.99601E-002	7.56999E-001	3.57990E+000	9	...........
	8	0.12	7.44910E-001	-9.89635E-005	0.00000E+000	-7.37189E-005	-5.99601E-002	7.45223E-001	3.57990E+000	9	...........
	9	0.133333	7.33220E-001	-9.80831E-005	0.00000E+000	-7.19165E-005	-5.99601E-002	7.33530E-001	3.57990E+000	9	...........
	10	0.146667	7.21619E-001	-9.81675E-005	0.00000E+000	-7.08395E-005	-5.99601E-002	7.21914E-001	3.57990E+000	9	...........
	11	0.16	7.10024E-001	-9.85061E-005	0.00000E+000	-6.99417E-005	-5.99601E-002	7.10331E-001	3.57990E+000	9	...........
	12	0.173333	6.98522E-001	-9.83456E-005	0.00000E+000	-6.86966E-005	-5.99601E-002	6.98820E-001	3.57990E+000	9	...........
	13	0.186667	6.87028E-001	-9.95073E-005	0.00000E+000	-6.83643E-005	-5.99601E-002	6.87313E-001	3.57990E+000	9	...........
	14	0.2	6.75601E-001	-9.96521E-005	0.00000E+000	-6.73251E-005	-5.99601E-002	6.75864E-001	3.57938E+000	9	...........
	15	0.213333	6.64161E-001	-9.89301E-005	0.00000E+000	-6.57055E-005	-5.99601E-002	6.64433E-001	3.57850E+000	9	...........
	16	0.226667	6.52743E-001	-9.89801E-005	0.00000E+000	-6.46086E-005	-5.99601E-002	6.53004E-001	3.57850E+000	9	...........
	17	0.24	6.41368E-001	-9.87915E-005	0.00000E+000	-6.33618E-005	-5.99601E-002	6.41623E-001	3.57850E+000	9	...........
	18	0.253333	6.29993E-001	-9.90624E-005	0.00000E+000	-6.24086E-005	-5.99601E-002	6.30268E-001	3.57850E+000	9	...........
	19	0.266667	6.18670E-001	-9.93906E-005	0.00000E+000	-6.14900E-005	-5.99601E-002	6.18914E-001	3.57850E+000	9	...........
	20	0.28	6.07290E-001	-9.93958E-005	0.00000E+000	-6.03621E-005	-5.99601E-002	6.07596E-001	3.57850E+000	9	...........
	21	0.293333	5.96028E-001	-9.94604E-005	0.00000E+000	-5.92812E-005	-5.99601E-002	5.96306E-001	3.57850E+000	9	...........
	22	0.306667	5.84764E-001	-9.81810E-005	0.00000E+000	-5.74127E-005	-5.99601E-002	5.85040E-001	3.57850E+000	9	...........
	23	0.32	5.73552E-001	-9.98887E-005	0.00000E+000	-5.72913E-005	-5.99601E-002	5.73801E-001	3.57850E+000	9	...........
	24	0.333333	5.62340E-001	-9.82466E-005	0.00000E+000	-5.52481E-005	-5.99601E-002	5.62608E-001	3.57850E+000	9	...........
	25	0.346667	5.51211E-001	-9.88447E-005	0.00000E+000	-5.44843E-005	-5.99601E-002	5.51461E-001	3.57850E+000	9	...........
	26	0.36	5.40096E-001	-9.85582E-005	0.00000E+000	-5.32309E-005	-5.99601E-002	5.40366E-001	3.57850E+000	9	...........
	27	0.373333	5.29008E-001	-9.88645E-005	0.00000E+000	-5.23001E-005	-5.99601E-002	5.29276E-001	3.57850E+000	9	...........
	28	0.386667	5.18009E-001	-9.91916E-005	0.00000E+000	-5.13822E-005	-5.99601E-002	5.18261E-001	3.57850E+000	9	...........
	29	0.4	5.07014E-001	-9.86603E-005	0.00000E+000	-5.00221E-005	-5.99601E-002	5.07298E-001	3.57850E+000	9	...........
	30	0.413333	4.96107E-001	-9.80935E-005	0.00000E+000	-4.86649E-005	-5.99601E-002	4.96411E-001	3.57850E+000	9	...........
	31	0.426667	4.85445E-001	-9.92448E-005	0.00000E+000	-4.81779E-005	-5.99601E-002	4.85628E-001	3.57850E+000	9	...........
	32	0.44	4.74900E-001	-9.88582E-005	0.00000E+000	-4.69478E-005	-5.99601E-002	4.74997E-001	3.57850E+000	9	...........
	33	0.453333	4.64197E-001	-9.92583E-005	0.00000E+000	-4.60754E-005	-5.99601E-002	4.64292E-001	3.57850E+000	9	...........
	34	0.466667	4.53559E-001	-9.90062E-005	0.00000E+000	-4.49051E-005	-5.99601E-002	4.53648E-001	3.57850E+000	9	...........
	35	0.48	4.42992E-001	-9.93385E-005	0.00000E+000	-4.40061E-005	-5.99601E-002	4.43078E-001	3.57850E+000	9	...........
	36	0.493333	4.32490E-001	-9.82706E-005	0.00000E+000	-4.25011E-005	-5.99601E-002	4.32577E-001	3.57850E+000	9	...........
	37	0.506667	4.22060E-001	-9.92479E-005	0.00000E+000	-4.18886E-005	-5.99601E-002	4.22144E-001	3.57850E+000	9	...........
	38	0.52	4.11703E-001	-9.88874E-005	0.00000E+000	-4.07122E-005	-5.99601E-002	4.11781E-001	3.57850E+000	9	...........
	39	0.533333	4.01422E-001	-9.97240E-005	0.00000E+000	-4.00314E-005	-5.99601E-002	4.01490E-001	3.57850E+000	9	...........
	40	0.546667	3.91205E-001	-9.89270E-005	0.00000E+000	-3.87007E-005	-5.99601E-002	3.91275E-001	3.57850E+000	9	...........
	41	0.56	3.81059E-001	-9.92635E-005	0.00000E+000	-3.78252E-005	-5.99601E-002	3.81129E-001	3.57850E+000	9	...........
	42	0.573333	3.70975E-001	-9.93948E-005	0.00000E+000	-3.68730E-005	-5.99601E-002	3.71037E-001	3.57850E+000	9	...........
	43	0.586667	3.60964E-001	-9.90416E-005	0.00000E+000	-3.57505E-005	-5.99601E-002	3.61028E-001	3.57850E+000	9	...........
	44	0.6	3.51023E-001	-9.93708E-005	0.00000E+000	-3.48814E-005	-5.99601E-002	3.51075E-001	3.57850E+000	9	...........
	45	0.613333	3.41133E-001	-9.87040E-005	0.00000E+000	-3.36712E-005	-5.99601E-002	3.41198E-001	3.57850E+000	9	...........
	46	0.626667	3.31317E-001	-9.87488E-005	0.00000E+000	-3.27171E-005	-5.99601E-002	3.31375E-001	3.57850E+000	9	...........
	47	0.64	3.21559E-001	-9.93656E-005	0.00000E+000	-3.19519E-005	-5.99601E-002	3.21614E-001	3.57850E+000	9	...........
	48	0.653333	3.11860E-001	-9.96501E-005	0.00000E+000	-3.10769E-005	-5.99601E-002	3.11917E-001	3.57850E+000	9	...........
	49	0.666667	3.02215E-001	-9.96511E-005	0.00000E+000	-3.01161E-005	-5.99601E-002	3.02267E-001	3.57850E+000	9	...........
	50	0.68	2.92625E-001	-9.90885E-005	0.00000E+000	-2.89958E-005	-5.99601E-002	2.92678E-001	3.57850E+000	9	...........
	51	0.693333	2.83096E-001	-9.95167E-005	0.00000E+000	-2.81728E-005	-5.99601E-002	2.83144E-001	3.57850E+000	9	...........
	52	0.706667	2.73619E-001	-9.92677E-005	0.00000E+000	-2.71615E-005	-5.99601E-002	2.73666E-001	3.57850E+000	9	...........
	53	0.72	2.64195E-001	-9.92146E-005	0.00000E+000	-2.62120E-005	-5.99601E-002	2.64241E-001	3.57850E+000	9	...........
	54	0.733333	2.54823E-001	-9.94886E-005	0.00000E+000	-2.53519E-005	-5.99601E-002	2.54861E-001	3.57850E+000	9	...........
	55	0.746667	2.45502E-001	-9.99939E-005	0.00000E+000	-2.45487E-005	-5.99601E-002	2.45538E-001	3.57850E+000	9	...........
	56	0.76	2.36236E-001	-9.90301E-005	0.00000E+000	-2.33945E-005	-5.99601E-002	2.36270E-001	3.57850E+000	9	...........
	57	0.773333	2.27021E-001	-9.99501E-005	0.00000E+000	-2.26908E-005	-5.99601E-002	2.27053E-001	3.57850E+000	9	...........
	58	0.786667	2.17860E-001	-9.88520E-005	0.00000E+000	-2.15359E-005	-5.99601E-002	2.17893E-001	3.57850E+000	9	...........
	59	0.8	2.08754E-001	-9.84238E-005	0.00000E+000	-2.05464E-005	-5.99601E-002	2.08780E-001	3.57850E+000	9	...........
	60	0.813333	1.99701E-001	-9.82925E-005	0.00000E+000	-1.96291E-005	-5.99601E-002	1.99736E-001	3.57850E+000	9	...........
	61	0.826667	1.90712E-001	-9.90656E-005	0.00000E+000	-1.88930E-005	-5.99601E-002	1.90741E-001	3.57850E+000	9	...........
	62	0.84	1.81781E-001	-9.95636E-005	0.00000E+000	-1.80987E-005	-5.99601E-002	1.81810E-001	3.57850E+000	9	...........
	63	0.853333	1.72918E-001	-9.89291E-005	0.00000E+000	-1.71066E-005	-5.99601E-002	1.72945E-001	3.57850E+000	9	...........
	64	0.866667	1.64117E-001	-9.95229E-005	0.00000E+000	-1.63334E-005	-5.99601E-002	1.64142E-001	3.57850E+000	9	...........
	65	0.88	1.55390E-001	-9.80643E-005	0.00000E+000	-1.52382E-005	-5.99601E-002	1.55408E-001	3.57850E+000	9	...........
	66	0.893333	1.46733E-001	-9.88582E-005	0.00000E+000	-1.45058E-005	-5.99601E-002	1.46744E-001	3.57850E+000	9	...........
	67	0.906667	1.38147E-001	-9.83092E-005	0.00000E+000	-1.35811E-005	-5.99601E-002	1.38154E-001	3.57850E+000	9	...........
	68	0.92	1.29631E-001	-9.97824E-005	0.00000E+000	-1.29349E-005	-5.99601E-002	1.29641E-001	3.57850E+000	9	...........
	69	0.933333	1.21203E-001	-9.80383E-005	0.00000E+000	-1.18825E-005	-5.99601E-002	1.21211E-001	3.57850E+000	9	...........
	70	0.946667	1.12844E-001	-9.86311E-005	0.00000E+000	-1.11299E-005	-5.99601E-002	1.12854E-001	3.57850E+000	9	...........
	71	0.96	1.04565E-001	-9.81602E-005	0.00000E+000	-1.02641E-005	-5.99601E-002	1.04575E-001	3.57850E+000	9	...........
	72	0.97333	9.63563E-002	-9.94667E-005	0.00000E+000	-9.58424E-006	-5.99601E-002	9.63653E-002	3.57850E+000	9	...........
	73	0.98667	8.82292E-002	-9.88426E-005	0.00000E+000	-8.72080E-006	-5.99601E-002	8.82351E-002	3.57850E+000	9	...........
	74	1	8.01800E-002	-9.90895E-005	0.00000E+000	-7.94500E-006	-5.99601E-002	8.01819E-002	3.57850E+000	9	...........
	75	1.01333	7.21974E-002	-9.94688E-005	0.00000E+000	-7.18138E-006	-5.99601E-002	7.21953E-002	3.57850E+000	9	...........
	76	1.02667	6.42911E-002	-9.88864E-005	0.00000E+000	-6.35752E-006	-5.99601E-002	6.42937E-002	3.57850E+000	9	...........
	77	1.04	5.64545E-002	-9.90958E-005	0.00000E+000	-5.59440E-006	-5.99601E-002	5.64507E-002	3.57850E+000	9	...........
	78	1.05333	4.87011E-002	-9.91385E-005	0.00000E+000	-4.82816E-006	-5.99601E-002	4.86989E-002	3.57850E+000	9	...........
	79	1.06667	4.10349E-002	-9.88895E-005	0.00000E+000	-4.05792E-006	-5.99601E-002	4.10267E-002	3.57850E+000	9	...........
	80	1.08	3.34094E-002	-9.88916E-005	0.00000E+000	-3.30391E-006	-5.99601E-002	3.33973E-002	3.57850E+000	9	...........
	81	1.09333	2.58583E-002	-9.89030E-005	0.00000E+000	-2.55747E-006	-5.99601E-002	2.58405E-002	3.57850E+000	9	...........
	82	1.10667	1.83736E-002	-9.81258E-005	0.00000E+000	-1.80292E-006	-5.99601E-002	1.83519E-002	3.57850E+000	9	...........
	83	1.12	1.09525E-002	-9.87040E-005	0.00000E+000	-1.08106E-006	-5.99601E-002	1.09212E-002	3.57850E+000	9	...........
	84	1.13333	3.59366E-003	-9.94761E-005	0.00000E+000	-3.57484E-007	-5.99601E-002	3.56349E-003	3.57850E+000	9	...........
	85	1.135	-5.18105E-004	-9.94021E-005	0.00000E+000	5.15008E-008	-5.99601E-002	-5.53601E-004	3.57850E+000	9	...........
STARTTIMEOFFSET	QUANT	2268.328	Start Time Offset (s)
