EXPLAIN
TAG	PWR800_DISCHARGE
TITLE	LABEL	PWR Cyclic Charge Discharge (Cell) - Discharge Step	Test &Identifier
DATE	LABEL	13-7-2017	Date
TIME	LABEL	15:40:11	Time
NOTES	NOTES	2	&Notes...
	supercap test cell
	6M KOH
PSTAT	PSTAT	IFC5000-01520	Potentiostat
CAPACITY	QUANT	1.00000E-003	Capacity (A-hr)
CELLTYPE	SELECTOR	1	&Cell Type
WORKINGCONNECTION	SELECTOR	0	&Working Lead
MAXDISCHARGETIME	VARIABLEANDUNITS	1.00000E+002	s	1.00000E+002	second(s)	Max &Discharge Time
DISCHARGEMODE	MULTIPARAM	0	1.00000E-004	&Discharge Mode	Constant Current	Amp(s)
SAMPLETIME	QUANT	1.00000E-002	Sa&mple Period (s)
DISCHARGESTOPAT1	MULTIPARAM	3	0.00000E+000	Discharge Stop At &1	Voltage < Limit	V
DISCHARGESTOPAT2	MULTIPARAM	0	0.00000E+000	Discharge Stop At &2	None	N/A
AESBHCSELECTOR	TOGGLE	F	Save Both Half Cells
IRCOMP	TOGGLE	F	IR &Measure
EOC	QUANT	0	Open Circuit (V)
SEQUENCER	TOGGLE	TRUE	Run as Sequence
PSTATMODEL	IQUANT	53	Pstat Model
PSTATSECTION	LABEL	IFC5000-01520	Pstat Section
PSTATSERIALNO	LABEL	01520	Pstat Serial Number
CTRLMODE	IQUANT	0	Control Mode
ELECTROMETER	IQUANT	1	RE=0 or CS=1
IESTAB	IQUANT	0	I/E Stability
CASPEED	IQUANT	4	Control Amp Speed
CONVENTION	IQUANT	1	Current Convention
ICHRANGE	IQUANT	2	Ich Range
ICHRANGEMODE	TOGGLE	T	Ich Auto Range
ICHOFFSETENABLE	TOGGLE	F	Ich Offset Enable
ICHOFFSET	QUANT	0	Ich Offset (V)
ICHFILTER	IQUANT	1	Ich Filter
VCHRANGE	IQUANT	2	Vch Range
VCHRANGEMODE	TOGGLE	T	Vch Auto Range
VCHOFFSETENABLE	TOGGLE	F	Vch Offset Enable
VCHOFFSET	QUANT	0	Vch Offset (V)
VCHFILTER	IQUANT	1	Vch Filter
IERANGELOWERLIMIT	IQUANT	9	I/E Range Lower Limit
IERANGEMODE	TOGGLE	F	I/E AutoRange
IERANGE	IQUANT	9	I/E Range
ACHSELECT	IQUANT	1	Ach Select
ACHRANGE	IQUANT	2	Ach Range
ACHOFFSETENABLE	TOGGLE	F	Ach Offset Enable
ACHOFFSET	QUANT	0	Ach Offset (V)
ACHFILTER	IQUANT	1	Ach Filter
CABLEID	IQUANT	14	Cable ID
DCCALDATE	LABEL	5-7-2017	DC Calibration Date
ACCALDATE	LABEL	12/3/2015	AC Calibration Date
FRAMEWORKVERSION	QUANT	7.01	Framework Version
INSTRUMENTVERSION	LABEL	4.00	Instrument Version
CURVE	TABLE	87
	Pt	T	Vf	Im	Vu	Pwr	Sig	Ach	Temp	IERange	Over
	#	s	V	A	V	W	V	V	deg C	#	bits
	0	0.013333	8.46173E-001	-9.96740E-005	0.00000E+000	-8.43415E-005	-5.99601E-002	8.46487E-001	3.57990E+000	9	...........
	1	0.026667	8.31954E-001	-9.92885E-005	0.00000E+000	-8.26035E-005	-5.99601E-002	8.32243E-001	3.57990E+000	9	...........
	2	0.04	8.18601E-001	-9.85196E-005	0.00000E+000	-8.06483E-005	-5.99601E-002	8.18871E-001	3.57990E+000	9	...........
	3	0.053333	8.05812E-001	-9.86811E-005	0.00000E+000	-7.95184E-005	-5.99601E-002	8.06076E-001	3.57990E+000	9	...........
	4	0.066667	7.93426E-001	-9.86426E-005	0.00000E+000	-7.82656E-005	-5.99601E-002	7.93671E-001	3.57990E+000	9	...........
	5	0.08	7.81314E-001	-9.79310E-005	0.00000E+000	-7.65148E-005	-5.99601E-002	7.81579E-001	3.57990E+000	9	...........
	6	0.093333	7.69412E-001	-9.84008E-005	0.00000E+000	-7.57108E-005	-5.99601E-002	7.69709E-001	3.57990E+000	9	...........
	7	0.106667	7.57698E-001	-9.91593E-005	0.00000E+000	-7.51328E-005	-5.99601E-002	7.57981E-001	3.57990E+000	9	...........
	8	0.12	7.46101E-001	-9.94584E-005	0.00000E+000	-7.42060E-005	-5.99601E-002	7.46385E-001	3.57990E+000	9	...........
	9	0.133333	7.34570E-001	-9.78705E-005	0.00000E+000	-7.18928E-005	-5.99601E-002	7.34863E-001	3.57990E+000	9	...........
	10	0.146667	7.23165E-001	-9.86384E-005	0.00000E+000	-7.13318E-005	-5.99601E-002	7.23448E-001	3.57990E+000	9	...........
	11	0.16	7.11762E-001	-9.94594E-005	0.00000E+000	-7.07914E-005	-5.99601E-002	7.12064E-001	3.57990E+000	9	...........
	12	0.173333	7.00435E-001	-9.82810E-005	0.00000E+000	-6.88395E-005	-5.99601E-002	7.00730E-001	3.57990E+000	9	...........
	13	0.186667	6.89142E-001	-9.76590E-005	0.00000E+000	-6.73010E-005	-5.99601E-002	6.89417E-001	3.57990E+000	9	...........
	14	0.2	6.77908E-001	-9.88166E-005	0.00000E+000	-6.69886E-005	-5.99601E-002	6.78165E-001	3.57920E+000	9	...........
	15	0.213333	6.66667E-001	-9.82852E-005	0.00000E+000	-6.55235E-005	-5.99601E-002	6.66937E-001	3.57850E+000	9	...........
	16	0.226667	6.55446E-001	-9.86644E-005	0.00000E+000	-6.46692E-005	-5.99601E-002	6.55702E-001	3.57850E+000	9	...........
	17	0.24	6.44283E-001	-9.88603E-005	0.00000E+000	-6.36940E-005	-5.99601E-002	6.44507E-001	3.57850E+000	9	...........
	18	0.253333	6.33079E-001	-9.98689E-005	0.00000E+000	-6.32249E-005	-5.99601E-002	6.33343E-001	3.57850E+000	9	...........
	19	0.266667	6.21991E-001	-9.92239E-005	0.00000E+000	-6.17164E-005	-5.99601E-002	6.22203E-001	3.57850E+000	9	...........
	20	0.28	6.10801E-001	-9.87092E-005	0.00000E+000	-6.02917E-005	-5.99601E-002	6.11081E-001	3.57850E+000	9	...........
	21	0.293333	5.99721E-001	-9.91937E-005	0.00000E+000	-5.94885E-005	-5.99601E-002	5.99981E-001	3.57850E+000	9	...........
	22	0.306667	5.88643E-001	-9.83915E-005	0.00000E+000	-5.79174E-005	-5.99601E-002	5.88906E-001	3.57850E+000	9	...........
	23	0.32	5.77594E-001	-9.92385E-005	0.00000E+000	-5.73195E-005	-5.99601E-002	5.77843E-001	3.57850E+000	9	...........
	24	0.333333	5.66566E-001	-9.86519E-005	0.00000E+000	-5.58928E-005	-5.99601E-002	5.66832E-001	3.57850E+000	9	...........
	25	0.346667	5.55584E-001	-9.82779E-005	0.00000E+000	-5.46017E-005	-5.99601E-002	5.55844E-001	3.57850E+000	9	...........
	26	0.36	5.44653E-001	-9.87520E-005	0.00000E+000	-5.37855E-005	-5.99601E-002	5.44911E-001	3.57850E+000	9	...........
	27	0.373333	5.33741E-001	-9.91541E-005	0.00000E+000	-5.29226E-005	-5.99601E-002	5.34016E-001	3.57850E+000	9	...........
	28	0.386667	5.22898E-001	-9.84321E-005	0.00000E+000	-5.14700E-005	-5.99601E-002	5.23161E-001	3.57850E+000	9	...........
	29	0.4	5.12074E-001	-9.86999E-005	0.00000E+000	-5.05417E-005	-5.99601E-002	5.12360E-001	3.57850E+000	9	...........
	30	0.413333	5.01303E-001	-9.91937E-005	0.00000E+000	-4.97261E-005	-5.99601E-002	5.01585E-001	3.57850E+000	9	...........
	31	0.426667	4.90624E-001	-9.81154E-005	0.00000E+000	-4.81378E-005	-5.99601E-002	4.90886E-001	3.57850E+000	9	...........
	32	0.44	4.80316E-001	-9.87947E-005	0.00000E+000	-4.74527E-005	-5.99601E-002	4.80437E-001	3.57850E+000	9	...........
	33	0.453333	4.69785E-001	-9.92052E-005	0.00000E+000	-4.66051E-005	-5.99601E-002	4.69890E-001	3.57850E+000	9	...........
	34	0.466667	4.59269E-001	-9.97157E-005	0.00000E+000	-4.57964E-005	-5.99601E-002	4.59371E-001	3.57850E+000	9	...........
	35	0.48	4.48817E-001	-9.77517E-005	0.00000E+000	-4.38727E-005	-5.99601E-002	4.48913E-001	3.57850E+000	9	...........
	36	0.493333	4.38429E-001	-9.81956E-005	0.00000E+000	-4.30518E-005	-5.99601E-002	4.38522E-001	3.57850E+000	9	...........
	37	0.506667	4.28105E-001	-9.98095E-005	0.00000E+000	-4.27289E-005	-5.99601E-002	4.28197E-001	3.57850E+000	9	...........
	38	0.52	4.17851E-001	-9.91729E-005	0.00000E+000	-4.14395E-005	-5.99601E-002	4.17937E-001	3.57850E+000	9	...........
	39	0.533333	4.07667E-001	-9.86592E-005	0.00000E+000	-4.02201E-005	-5.99601E-002	4.07748E-001	3.57850E+000	9	...........
	40	0.546667	3.97539E-001	-9.89395E-005	0.00000E+000	-3.93323E-005	-5.99601E-002	3.97614E-001	3.57850E+000	9	...........
	41	0.56	3.87476E-001	-9.94854E-005	0.00000E+000	-3.85483E-005	-5.99601E-002	3.87553E-001	3.57850E+000	9	...........
	42	0.573333	3.77490E-001	-9.79633E-005	0.00000E+000	-3.69801E-005	-5.99601E-002	3.77558E-001	3.57850E+000	9	...........
	43	0.586667	3.67555E-001	-9.85207E-005	0.00000E+000	-3.62118E-005	-5.99601E-002	3.67626E-001	3.57850E+000	9	...........
	44	0.6	3.57689E-001	-9.79664E-005	0.00000E+000	-3.50415E-005	-5.99601E-002	3.57756E-001	3.57850E+000	9	...........
	45	0.613333	3.47884E-001	-9.94354E-005	0.00000E+000	-3.45920E-005	-5.99601E-002	3.47950E-001	3.57850E+000	9	...........
	46	0.626667	3.38136E-001	-9.91979E-005	0.00000E+000	-3.35424E-005	-5.99601E-002	3.38200E-001	3.57850E+000	9	...........
	47	0.64	3.28449E-001	-9.89312E-005	0.00000E+000	-3.24938E-005	-5.99601E-002	3.28511E-001	3.57850E+000	9	...........
	48	0.653333	3.18818E-001	-9.94792E-005	0.00000E+000	-3.17158E-005	-5.99601E-002	3.18881E-001	3.57850E+000	9	...........
	49	0.666667	3.09238E-001	-9.84936E-005	0.00000E+000	-3.04580E-005	-5.99601E-002	3.09298E-001	3.57850E+000	9	...........
	50	0.68	2.99717E-001	-9.87749E-005	0.00000E+000	-2.96045E-005	-5.99601E-002	2.99772E-001	3.57850E+000	9	...........
	51	0.693333	2.90244E-001	-9.97595E-005	0.00000E+000	-2.89545E-005	-5.99601E-002	2.90302E-001	3.57850E+000	9	...........
	52	0.706667	2.80826E-001	-9.90697E-005	0.00000E+000	-2.78214E-005	-5.99601E-002	2.80883E-001	3.57850E+000	9	...........
	53	0.72	2.71461E-001	-9.94459E-005	0.00000E+000	-2.69956E-005	-5.99601E-002	2.71510E-001	3.57850E+000	9	...........
	54	0.733333	2.62139E-001	-9.91968E-005	0.00000E+000	-2.60034E-005	-5.99601E-002	2.62191E-001	3.57850E+000	9	...........
	55	0.746667	2.52876E-001	-9.80893E-005	0.00000E+000	-2.48045E-005	-5.99601E-002	2.52923E-001	3.57850E+000	9	...........
	56	0.76	2.43656E-001	-9.86446E-005	0.00000E+000	-2.40354E-005	-5.99601E-002	2.43705E-001	3.57850E+000	9	...........
	57	0.773333	2.34496E-001	-9.92333E-005	0.00000E+000	-2.32698E-005	-5.99601E-002	2.34531E-001	3.57850E+000	9	...........
	58	0.786667	2.25371E-001	-9.93427E-005	0.00000E+000	-2.23890E-005	-5.99601E-002	2.25410E-001	3.57850E+000	9	...........
	59	0.8	2.16303E-001	-9.92125E-005	0.00000E+000	-2.14600E-005	-5.99601E-002	2.16334E-001	3.57850E+000	9	...........
	60	0.813333	2.07288E-001	-9.86749E-005	0.00000E+000	-2.04541E-005	-5.99601E-002	2.07320E-001	3.57850E+000	9	...........
	61	0.826667	1.98320E-001	-9.86811E-005	0.00000E+000	-1.95704E-005	-5.99601E-002	1.98351E-001	3.57850E+000	9	...........
	62	0.84	1.89414E-001	-9.81998E-005	0.00000E+000	-1.86004E-005	-5.99601E-002	1.89443E-001	3.57850E+000	9	...........
	63	0.853333	1.80564E-001	-9.88384E-005	0.00000E+000	-1.78466E-005	-5.99601E-002	1.80589E-001	3.57850E+000	9	...........
	64	0.866667	1.71774E-001	-9.95532E-005	0.00000E+000	-1.71006E-005	-5.99601E-002	1.71799E-001	3.57850E+000	9	...........
	65	0.88	1.63054E-001	-9.93406E-005	0.00000E+000	-1.61979E-005	-5.99601E-002	1.63073E-001	3.57850E+000	9	...........
	66	0.893333	1.54395E-001	-9.85300E-005	0.00000E+000	-1.52126E-005	-5.99601E-002	1.54412E-001	3.57850E+000	9	...........
	67	0.906667	1.45806E-001	-9.85061E-005	0.00000E+000	-1.43628E-005	-5.99601E-002	1.45830E-001	3.57850E+000	9	...........
	68	0.92	1.37290E-001	-9.86769E-005	0.00000E+000	-1.35473E-005	-5.99601E-002	1.37312E-001	3.57850E+000	9	...........
	69	0.933333	1.28852E-001	-9.87238E-005	0.00000E+000	-1.27208E-005	-5.99601E-002	1.28867E-001	3.57850E+000	9	...........
	70	0.946667	1.20477E-001	-9.83581E-005	0.00000E+000	-1.18499E-005	-5.99601E-002	1.20495E-001	3.57850E+000	9	...........
	71	0.96	1.12185E-001	-9.82633E-005	0.00000E+000	-1.10237E-005	-5.99601E-002	1.12201E-001	3.57850E+000	9	...........
	72	0.97333	1.03964E-001	-9.89416E-005	0.00000E+000	-1.02863E-005	-5.99601E-002	1.03975E-001	3.57850E+000	9	...........
	73	0.98667	9.58175E-002	-9.92646E-005	0.00000E+000	-9.51128E-006	-5.99601E-002	9.58243E-002	3.57850E+000	9	...........
	74	1	8.77450E-002	-9.86311E-005	0.00000E+000	-8.65438E-006	-5.99601E-002	8.77442E-002	3.57850E+000	9	...........
	75	1.01333	7.97487E-002	-9.92010E-005	0.00000E+000	-7.91115E-006	-5.99601E-002	7.97494E-002	3.57850E+000	9	...........
	76	1.02667	7.18229E-002	-9.82758E-005	0.00000E+000	-7.05845E-006	-5.99601E-002	7.18182E-002	3.57850E+000	9	...........
	77	1.04	6.39642E-002	-9.93156E-005	0.00000E+000	-6.35264E-006	-5.99601E-002	6.39637E-002	3.57850E+000	9	...........
	78	1.05333	5.61832E-002	-9.75694E-005	0.00000E+000	-5.48176E-006	-5.99601E-002	5.61726E-002	3.57850E+000	9	...........
	79	1.06667	4.84816E-002	-9.96063E-005	0.00000E+000	-4.82907E-006	-5.99601E-002	4.84728E-002	3.57850E+000	9	...........
	80	1.08	4.08605E-002	-9.89676E-005	0.00000E+000	-4.04387E-006	-5.99601E-002	4.08485E-002	3.57850E+000	9	...........
	81	1.09333	3.32827E-002	-9.95698E-005	0.00000E+000	-3.31395E-006	-5.99601E-002	3.32669E-002	3.57850E+000	9	...........
	82	1.10667	2.57669E-002	-9.93521E-005	0.00000E+000	-2.56000E-006	-5.99601E-002	2.57506E-002	3.57850E+000	9	...........
	83	1.12	1.83217E-002	-9.82071E-005	0.00000E+000	-1.79932E-006	-5.99601E-002	1.82984E-002	3.57850E+000	9	...........
	84	1.13333	1.09440E-002	-9.95855E-005	0.00000E+000	-1.08986E-006	-5.99601E-002	1.09164E-002	3.57850E+000	9	...........
	85	1.14667	3.63149E-003	-9.81300E-005	0.00000E+000	-3.56358E-007	-5.99601E-002	3.59617E-003	3.57850E+000	9	...........
	86	1.14833	-4.62344E-004	-9.97355E-005	0.00000E+000	4.61121E-008	-5.99601E-002	-4.94236E-004	3.57850E+000	9	...........
STARTTIMEOFFSET	QUANT	1726.523	Start Time Offset (s)
