EXPLAIN
TAG	PWR800_DISCHARGE
TITLE	LABEL	PWR Cyclic Charge Discharge (Cell) - Discharge Step	Test &Identifier
DATE	LABEL	13-7-2017	Date
TIME	LABEL	15:19:16	Time
NOTES	NOTES	2	&Notes...
	supercap test cell
	6M KOH
PSTAT	PSTAT	IFC5000-01520	Potentiostat
CAPACITY	QUANT	1.00000E-003	Capacity (A-hr)
CELLTYPE	SELECTOR	1	&Cell Type
WORKINGCONNECTION	SELECTOR	0	&Working Lead
MAXDISCHARGETIME	VARIABLEANDUNITS	1.00000E+002	s	1.00000E+002	second(s)	Max &Discharge Time
DISCHARGEMODE	MULTIPARAM	0	1.00000E-004	&Discharge Mode	Constant Current	Amp(s)
SAMPLETIME	QUANT	1.00000E-002	Sa&mple Period (s)
DISCHARGESTOPAT1	MULTIPARAM	3	0.00000E+000	Discharge Stop At &1	Voltage < Limit	V
DISCHARGESTOPAT2	MULTIPARAM	0	0.00000E+000	Discharge Stop At &2	None	N/A
AESBHCSELECTOR	TOGGLE	F	Save Both Half Cells
IRCOMP	TOGGLE	F	IR &Measure
EOC	QUANT	0	Open Circuit (V)
SEQUENCER	TOGGLE	TRUE	Run as Sequence
PSTATMODEL	IQUANT	53	Pstat Model
PSTATSECTION	LABEL	IFC5000-01520	Pstat Section
PSTATSERIALNO	LABEL	01520	Pstat Serial Number
CTRLMODE	IQUANT	0	Control Mode
ELECTROMETER	IQUANT	1	RE=0 or CS=1
IESTAB	IQUANT	0	I/E Stability
CASPEED	IQUANT	4	Control Amp Speed
CONVENTION	IQUANT	1	Current Convention
ICHRANGE	IQUANT	2	Ich Range
ICHRANGEMODE	TOGGLE	T	Ich Auto Range
ICHOFFSETENABLE	TOGGLE	F	Ich Offset Enable
ICHOFFSET	QUANT	0	Ich Offset (V)
ICHFILTER	IQUANT	1	Ich Filter
VCHRANGE	IQUANT	2	Vch Range
VCHRANGEMODE	TOGGLE	T	Vch Auto Range
VCHOFFSETENABLE	TOGGLE	F	Vch Offset Enable
VCHOFFSET	QUANT	0	Vch Offset (V)
VCHFILTER	IQUANT	1	Vch Filter
IERANGELOWERLIMIT	IQUANT	9	I/E Range Lower Limit
IERANGEMODE	TOGGLE	F	I/E AutoRange
IERANGE	IQUANT	9	I/E Range
ACHSELECT	IQUANT	1	Ach Select
ACHRANGE	IQUANT	2	Ach Range
ACHOFFSETENABLE	TOGGLE	F	Ach Offset Enable
ACHOFFSET	QUANT	0	Ach Offset (V)
ACHFILTER	IQUANT	1	Ach Filter
CABLEID	IQUANT	14	Cable ID
DCCALDATE	LABEL	5-7-2017	DC Calibration Date
ACCALDATE	LABEL	12/3/2015	AC Calibration Date
FRAMEWORKVERSION	QUANT	7.01	Framework Version
INSTRUMENTVERSION	LABEL	4.00	Instrument Version
CURVE	TABLE	89
	Pt	T	Vf	Im	Vu	Pwr	Sig	Ach	Temp	IERange	Over
	#	s	V	A	V	W	V	V	deg C	#	bits
	0	0.013333	8.48860E-001	-9.91291E-005	0.00000E+000	-8.41468E-005	-5.99601E-002	8.49182E-001	3.58010E+000	9	...........
	1	0.026667	8.35211E-001	-9.90822E-005	0.00000E+000	-8.27546E-005	-5.99601E-002	8.35521E-001	3.57972E+000	9	...........
	2	0.04	8.22434E-001	-9.75475E-005	0.00000E+000	-8.02264E-005	-5.99601E-002	8.22722E-001	3.57860E+000	9	...........
	3	0.053333	8.10163E-001	-9.82008E-005	0.00000E+000	-7.95587E-005	-5.99601E-002	8.10460E-001	3.57860E+000	9	...........
	4	0.066667	7.98364E-001	-9.78184E-005	0.00000E+000	-7.80947E-005	-5.99601E-002	7.98641E-001	3.57860E+000	9	...........
	5	0.08	7.86806E-001	-9.83373E-005	0.00000E+000	-7.73724E-005	-5.99601E-002	7.87086E-001	3.57860E+000	9	...........
	6	0.093333	7.75464E-001	-9.86842E-005	0.00000E+000	-7.65261E-005	-5.99601E-002	7.75780E-001	3.57860E+000	9	...........
	7	0.106667	7.64335E-001	-9.91750E-005	0.00000E+000	-7.58029E-005	-5.99601E-002	7.64617E-001	3.57860E+000	9	...........
	8	0.12	7.53294E-001	-9.80278E-005	0.00000E+000	-7.38438E-005	-5.99601E-002	7.53584E-001	3.57860E+000	9	...........
	9	0.133333	7.42351E-001	-9.89728E-005	0.00000E+000	-7.34726E-005	-5.99601E-002	7.42643E-001	3.57860E+000	9	...........
	10	0.146667	7.31502E-001	-9.78643E-005	0.00000E+000	-7.15879E-005	-5.99601E-002	7.31785E-001	3.57860E+000	9	...........
	11	0.16	7.20715E-001	-9.76851E-005	0.00000E+000	-7.04031E-005	-5.99601E-002	7.21021E-001	3.57860E+000	9	...........
	12	0.173333	7.09936E-001	-9.85134E-005	0.00000E+000	-6.99382E-005	-5.99601E-002	7.10231E-001	3.57860E+000	9	...........
	13	0.186667	6.99249E-001	-9.88072E-005	0.00000E+000	-6.90908E-005	-5.99601E-002	6.99525E-001	3.57860E+000	9	...........
	14	0.2	6.88550E-001	-9.89530E-005	0.00000E+000	-6.81341E-005	-5.99601E-002	6.88819E-001	3.57860E+000	9	...........
	15	0.213333	6.77888E-001	-9.94396E-005	0.00000E+000	-6.74089E-005	-5.99601E-002	6.78165E-001	3.57860E+000	9	...........
	16	0.226667	6.67249E-001	-9.89416E-005	0.00000E+000	-6.60187E-005	-5.99601E-002	6.67547E-001	3.57860E+000	9	...........
	17	0.24	6.56607E-001	-9.81060E-005	0.00000E+000	-6.44170E-005	-5.99601E-002	6.56914E-001	3.57860E+000	9	...........
	18	0.253333	6.45993E-001	-9.87957E-005	0.00000E+000	-6.38213E-005	-5.99601E-002	6.46282E-001	3.57860E+000	9	...........
	19	0.266667	6.35374E-001	-9.85644E-005	0.00000E+000	-6.26253E-005	-5.99601E-002	6.35664E-001	3.57860E+000	9	...........
	20	0.28	6.24791E-001	-9.91343E-005	0.00000E+000	-6.19382E-005	-5.99601E-002	6.25081E-001	3.57860E+000	9	...........
	21	0.293333	6.14202E-001	-9.83560E-005	0.00000E+000	-6.04105E-005	-5.99601E-002	6.14488E-001	3.57860E+000	9	...........
	22	0.306667	6.03594E-001	-9.76590E-005	0.00000E+000	-5.89464E-005	-5.99601E-002	6.03913E-001	3.57860E+000	9	...........
	23	0.32	5.93073E-001	-9.84113E-005	0.00000E+000	-5.83651E-005	-5.99601E-002	5.93380E-001	3.57860E+000	9	...........
	24	0.333333	5.82505E-001	-9.84311E-005	0.00000E+000	-5.73366E-005	-5.99601E-002	5.82831E-001	3.57860E+000	9	...........
	25	0.346667	5.72010E-001	-9.95667E-005	0.00000E+000	-5.69532E-005	-5.99601E-002	5.72307E-001	3.57860E+000	9	...........
	26	0.36	5.61511E-001	-9.87311E-005	0.00000E+000	-5.54387E-005	-5.99601E-002	5.61821E-001	3.57860E+000	9	...........
	27	0.373333	5.51030E-001	-9.91322E-005	0.00000E+000	-5.46249E-005	-5.99601E-002	5.51322E-001	3.57860E+000	9	...........
	28	0.386667	5.40597E-001	-9.90312E-005	0.00000E+000	-5.35360E-005	-5.99601E-002	5.40890E-001	3.57860E+000	9	...........
	29	0.4	5.30176E-001	-9.83154E-005	0.00000E+000	-5.21245E-005	-5.99601E-002	5.30442E-001	3.57860E+000	9	...........
	30	0.413333	5.19796E-001	-9.91520E-005	0.00000E+000	-5.15388E-005	-5.99601E-002	5.20050E-001	3.57860E+000	9	...........
	31	0.426667	5.09448E-001	-1.00261E-004	0.00000E+000	-5.10776E-005	-5.99601E-002	5.09695E-001	3.57860E+000	9	...........
	32	0.44	4.99137E-001	-9.88687E-005	0.00000E+000	-4.93490E-005	-5.99601E-002	4.99378E-001	3.57860E+000	9	...........
	33	0.453333	4.88881E-001	-9.84165E-005	0.00000E+000	-4.81139E-005	-5.99601E-002	4.89130E-001	3.57860E+000	9	...........
	34	0.466667	4.79042E-001	-9.93833E-005	0.00000E+000	-4.76088E-005	-5.99601E-002	4.79145E-001	3.57860E+000	9	...........
	35	0.48	4.68872E-001	-9.87676E-005	0.00000E+000	-4.63094E-005	-5.99601E-002	4.68962E-001	3.57860E+000	9	...........
	36	0.493333	4.58742E-001	-9.88291E-005	0.00000E+000	-4.53370E-005	-5.99601E-002	4.58837E-001	3.57860E+000	9	...........
	37	0.506667	4.48669E-001	-9.83269E-005	0.00000E+000	-4.41162E-005	-5.99601E-002	4.48757E-001	3.57860E+000	9	...........
	38	0.52	4.38638E-001	-9.82571E-005	0.00000E+000	-4.30992E-005	-5.99601E-002	4.38728E-001	3.57860E+000	9	...........
	39	0.533333	4.28661E-001	-9.92406E-005	0.00000E+000	-4.25406E-005	-5.99601E-002	4.28750E-001	3.57860E+000	9	...........
	40	0.546667	4.18743E-001	-9.94948E-005	0.00000E+000	-4.16628E-005	-5.99601E-002	4.18828E-001	3.57860E+000	9	...........
	41	0.56	4.08879E-001	-9.90864E-005	0.00000E+000	-4.05143E-005	-5.99601E-002	4.08960E-001	3.57860E+000	9	...........
	42	0.573333	3.99067E-001	-9.93760E-005	0.00000E+000	-3.96577E-005	-5.99601E-002	3.99140E-001	3.57860E+000	9	...........
	43	0.586667	3.89308E-001	-9.93521E-005	0.00000E+000	-3.86785E-005	-5.99601E-002	3.89380E-001	3.57860E+000	9	...........
	44	0.6	3.79601E-001	-9.90072E-005	0.00000E+000	-3.75832E-005	-5.99601E-002	3.79675E-001	3.57860E+000	9	...........
	45	0.613333	3.69953E-001	-9.89478E-005	0.00000E+000	-3.66061E-005	-5.99601E-002	3.70017E-001	3.57860E+000	9	...........
	46	0.626667	3.60357E-001	-9.94094E-005	0.00000E+000	-3.58229E-005	-5.99601E-002	3.60418E-001	3.57860E+000	9	...........
	47	0.64	3.50804E-001	-9.98793E-005	0.00000E+000	-3.50381E-005	-5.99601E-002	3.50866E-001	3.57860E+000	9	...........
	48	0.653333	3.41307E-001	-9.84821E-005	0.00000E+000	-3.36126E-005	-5.99601E-002	3.41370E-001	3.57860E+000	9	...........
	49	0.666667	3.31861E-001	-9.87613E-005	0.00000E+000	-3.27750E-005	-5.99601E-002	3.31925E-001	3.57860E+000	9	...........
	50	0.68	3.22462E-001	-9.97501E-005	0.00000E+000	-3.21656E-005	-5.99601E-002	3.22525E-001	3.57860E+000	9	...........
	51	0.693333	3.13105E-001	-9.81716E-005	0.00000E+000	-3.07381E-005	-5.99601E-002	3.13167E-001	3.57860E+000	9	...........
	52	0.706667	3.03796E-001	-9.87686E-005	0.00000E+000	-3.00055E-005	-5.99601E-002	3.03850E-001	3.57860E+000	9	...........
	53	0.72	2.94531E-001	-9.86894E-005	0.00000E+000	-2.90671E-005	-5.99601E-002	2.94584E-001	3.57860E+000	9	...........
	54	0.733333	2.85315E-001	-9.82748E-005	0.00000E+000	-2.80393E-005	-5.99601E-002	2.85369E-001	3.57860E+000	9	...........
	55	0.746667	2.76140E-001	-9.83956E-005	0.00000E+000	-2.71710E-005	-5.99601E-002	2.76191E-001	3.57860E+000	9	...........
	56	0.76	2.67003E-001	-9.86655E-005	0.00000E+000	-2.63440E-005	-5.99601E-002	2.67050E-001	3.57860E+000	9	...........
	57	0.773333	2.57909E-001	-9.88947E-005	0.00000E+000	-2.55058E-005	-5.99601E-002	2.57955E-001	3.57860E+000	9	...........
	58	0.786667	2.48855E-001	-9.86426E-005	0.00000E+000	-2.45476E-005	-5.99601E-002	2.48900E-001	3.57860E+000	9	...........
	59	0.8	2.39846E-001	-9.99897E-005	0.00000E+000	-2.39821E-005	-5.99601E-002	2.39883E-001	3.57860E+000	9	...........
	60	0.813333	2.30875E-001	-9.85530E-005	0.00000E+000	-2.27534E-005	-5.99601E-002	2.30914E-001	3.57860E+000	9	...........
	61	0.826667	2.21947E-001	-9.86790E-005	0.00000E+000	-2.19015E-005	-5.99601E-002	2.21986E-001	3.57860E+000	9	...........
	62	0.84	2.13064E-001	-9.77184E-005	0.00000E+000	-2.08203E-005	-5.99601E-002	2.13096E-001	3.57860E+000	9	...........
	63	0.853333	2.04221E-001	-9.76809E-005	0.00000E+000	-1.99485E-005	-5.99601E-002	2.04252E-001	3.57860E+000	9	...........
	64	0.866667	1.95421E-001	-9.90947E-005	0.00000E+000	-1.93652E-005	-5.99601E-002	1.95454E-001	3.57860E+000	9	...........
	65	0.88	1.86683E-001	-9.90979E-005	0.00000E+000	-1.84999E-005	-5.99601E-002	1.86706E-001	3.57860E+000	9	...........
	66	0.893333	1.77984E-001	-9.85155E-005	0.00000E+000	-1.75341E-005	-5.99601E-002	1.78014E-001	3.57860E+000	9	...........
	67	0.906667	1.69340E-001	-9.93531E-005	0.00000E+000	-1.68244E-005	-5.99601E-002	1.69364E-001	3.57860E+000	9	...........
	68	0.92	1.60751E-001	-9.95469E-005	0.00000E+000	-1.60023E-005	-5.99601E-002	1.60773E-001	3.57860E+000	9	...........
	69	0.933333	1.52222E-001	-9.82446E-005	0.00000E+000	-1.49550E-005	-5.99601E-002	1.52241E-001	3.57860E+000	9	...........
	70	0.946667	1.43747E-001	-9.92114E-005	0.00000E+000	-1.42613E-005	-5.99601E-002	1.43764E-001	3.57860E+000	9	...........
	71	0.96	1.35332E-001	-9.79726E-005	0.00000E+000	-1.32588E-005	-5.99601E-002	1.35340E-001	3.57860E+000	9	...........
	72	0.97333	1.26984E-001	-9.84342E-005	0.00000E+000	-1.24995E-005	-5.99601E-002	1.27000E-001	3.57860E+000	9	...........
	73	0.98667	1.18705E-001	-9.85936E-005	0.00000E+000	-1.17036E-005	-5.99601E-002	1.18714E-001	3.57860E+000	9	...........
	74	1	1.10490E-001	-9.86019E-005	0.00000E+000	-1.08945E-005	-5.99601E-002	1.10499E-001	3.57860E+000	9	...........
	75	1.01333	1.02342E-001	-9.95896E-005	0.00000E+000	-1.01922E-005	-5.99601E-002	1.02354E-001	3.57860E+000	9	...........
	76	1.02667	9.42622E-002	-9.81945E-005	0.00000E+000	-9.25604E-006	-5.99601E-002	9.42696E-002	3.57872E+000	9	...........
	77	1.04	8.62522E-002	-9.79330E-005	0.00000E+000	-8.44694E-006	-5.99601E-002	8.62574E-002	3.57910E+000	9	...........
	78	1.05333	7.83187E-002	-9.81133E-005	0.00000E+000	-7.68411E-006	-5.99601E-002	7.83182E-002	3.57910E+000	9	...........
	79	1.06667	7.04458E-002	-9.90301E-005	0.00000E+000	-6.97626E-006	-5.99601E-002	7.04431E-002	3.57910E+000	9	...........
	80	1.08	6.26390E-002	-9.85373E-005	0.00000E+000	-6.17228E-006	-5.99601E-002	6.26366E-002	3.57910E+000	9	...........
	81	1.09333	5.48994E-002	-9.80945E-005	0.00000E+000	-5.38534E-006	-5.99601E-002	5.48939E-002	3.57910E+000	9	...........
	82	1.10667	4.72471E-002	-1.00246E-004	0.00000E+000	-4.73633E-006	-5.99601E-002	4.72343E-002	3.57910E+000	9	...........
	83	1.12	3.96537E-002	-9.87655E-005	0.00000E+000	-3.91642E-006	-5.99601E-002	3.96424E-002	3.57910E+000	9	...........
	84	1.13333	3.21109E-002	-9.83613E-005	0.00000E+000	-3.15847E-006	-5.99601E-002	3.20934E-002	3.57910E+000	9	...........
	85	1.14667	2.46254E-002	-9.90041E-005	0.00000E+000	-2.43801E-006	-5.99601E-002	2.46117E-002	3.57910E+000	9	...........
	86	1.16	1.72071E-002	-9.92427E-005	0.00000E+000	-1.70768E-006	-5.99601E-002	1.71873E-002	3.57910E+000	9	...........
	87	1.17333	9.85144E-003	-9.82748E-005	0.00000E+000	-9.68148E-007	-5.99601E-002	9.82189E-003	3.57910E+000	9	...........
	88	1.18667	2.55441E-003	-9.83373E-005	0.00000E+000	-2.51193E-007	-5.99601E-002	2.52034E-003	3.57910E+000	9	...........
STARTTIMEOFFSET	QUANT	780.3696	Start Time Offset (s)
