EXPLAIN
TAG	PWR800_DISCHARGE
TITLE	LABEL	PWR Cyclic Charge Discharge (Cell) - Discharge Step	Test &Identifier
DATE	LABEL	13-7-2017	Date
TIME	LABEL	15:02:56	Time
NOTES	NOTES	2	&Notes...
	supercap test cell
	6M KOH
PSTAT	PSTAT	IFC5000-01520	Potentiostat
CAPACITY	QUANT	1.00000E-003	Capacity (A-hr)
CELLTYPE	SELECTOR	1	&Cell Type
WORKINGCONNECTION	SELECTOR	0	&Working Lead
MAXDISCHARGETIME	VARIABLEANDUNITS	1.00000E+002	s	1.00000E+002	second(s)	Max &Discharge Time
DISCHARGEMODE	MULTIPARAM	0	1.00000E-004	&Discharge Mode	Constant Current	Amp(s)
SAMPLETIME	QUANT	1.00000E-002	Sa&mple Period (s)
DISCHARGESTOPAT1	MULTIPARAM	3	0.00000E+000	Discharge Stop At &1	Voltage < Limit	V
DISCHARGESTOPAT2	MULTIPARAM	0	0.00000E+000	Discharge Stop At &2	None	N/A
AESBHCSELECTOR	TOGGLE	F	Save Both Half Cells
IRCOMP	TOGGLE	F	IR &Measure
EOC	QUANT	0	Open Circuit (V)
SEQUENCER	TOGGLE	TRUE	Run as Sequence
PSTATMODEL	IQUANT	53	Pstat Model
PSTATSECTION	LABEL	IFC5000-01520	Pstat Section
PSTATSERIALNO	LABEL	01520	Pstat Serial Number
CTRLMODE	IQUANT	0	Control Mode
ELECTROMETER	IQUANT	1	RE=0 or CS=1
IESTAB	IQUANT	0	I/E Stability
CASPEED	IQUANT	4	Control Amp Speed
CONVENTION	IQUANT	1	Current Convention
ICHRANGE	IQUANT	2	Ich Range
ICHRANGEMODE	TOGGLE	T	Ich Auto Range
ICHOFFSETENABLE	TOGGLE	F	Ich Offset Enable
ICHOFFSET	QUANT	0	Ich Offset (V)
ICHFILTER	IQUANT	1	Ich Filter
VCHRANGE	IQUANT	2	Vch Range
VCHRANGEMODE	TOGGLE	T	Vch Auto Range
VCHOFFSETENABLE	TOGGLE	F	Vch Offset Enable
VCHOFFSET	QUANT	0	Vch Offset (V)
VCHFILTER	IQUANT	1	Vch Filter
IERANGELOWERLIMIT	IQUANT	9	I/E Range Lower Limit
IERANGEMODE	TOGGLE	F	I/E AutoRange
IERANGE	IQUANT	9	I/E Range
ACHSELECT	IQUANT	1	Ach Select
ACHRANGE	IQUANT	2	Ach Range
ACHOFFSETENABLE	TOGGLE	F	Ach Offset Enable
ACHOFFSET	QUANT	0	Ach Offset (V)
ACHFILTER	IQUANT	1	Ach Filter
CABLEID	IQUANT	14	Cable ID
DCCALDATE	LABEL	5-7-2017	DC Calibration Date
ACCALDATE	LABEL	12/3/2015	AC Calibration Date
FRAMEWORKVERSION	QUANT	7.01	Framework Version
INSTRUMENTVERSION	LABEL	4.00	Instrument Version
CURVE	TABLE	93
	Pt	T	Vf	Im	Vu	Pwr	Sig	Ach	Temp	IERange	Over
	#	s	V	A	V	W	V	V	deg C	#	bits
	0	0.013333	8.62020E-001	-9.96376E-005	0.00000E+000	-8.58896E-005	-5.99601E-002	8.62373E-001	3.57900E+000	9	...........
	1	0.026667	8.49897E-001	-9.79966E-005	0.00000E+000	-8.32870E-005	-5.99601E-002	8.50241E-001	3.57900E+000	9	...........
	2	0.04	8.38504E-001	-9.82706E-005	0.00000E+000	-8.24003E-005	-5.99601E-002	8.38854E-001	3.57900E+000	9	...........
	3	0.053333	8.27654E-001	-9.93000E-005	0.00000E+000	-8.21860E-005	-5.99601E-002	8.27991E-001	3.57900E+000	9	...........
	4	0.066667	8.17180E-001	-9.80143E-005	0.00000E+000	-8.00953E-005	-5.99601E-002	8.17530E-001	3.57900E+000	9	...........
	5	0.08	8.07026E-001	-9.85498E-005	0.00000E+000	-7.95323E-005	-5.99601E-002	8.07348E-001	3.57900E+000	9	...........
	6	0.093333	7.97097E-001	-9.82539E-005	0.00000E+000	-7.83179E-005	-5.99601E-002	7.97425E-001	3.57900E+000	9	...........
	7	0.106667	7.87304E-001	-9.93250E-005	0.00000E+000	-7.81989E-005	-5.99601E-002	7.87616E-001	3.57900E+000	9	...........
	8	0.12	7.77684E-001	-9.92239E-005	0.00000E+000	-7.71648E-005	-5.99601E-002	7.77990E-001	3.57900E+000	9	...........
	9	0.133333	7.68140E-001	-9.93656E-005	0.00000E+000	-7.63267E-005	-5.99601E-002	7.68469E-001	3.57900E+000	9	...........
	10	0.146667	7.58713E-001	-9.90822E-005	0.00000E+000	-7.51750E-005	-5.99601E-002	7.59029E-001	3.57900E+000	9	...........
	11	0.16	7.49340E-001	-9.86457E-005	0.00000E+000	-7.39191E-005	-5.99601E-002	7.49642E-001	3.57900E+000	9	...........
	12	0.173333	7.40009E-001	-9.82248E-005	0.00000E+000	-7.26872E-005	-5.99601E-002	7.40316E-001	3.57900E+000	9	...........
	13	0.186667	7.30740E-001	-9.83779E-005	0.00000E+000	-7.18887E-005	-5.99601E-002	7.31019E-001	3.57900E+000	9	...........
	14	0.2	7.21506E-001	-9.83519E-005	0.00000E+000	-7.09614E-005	-5.99601E-002	7.21784E-001	3.57900E+000	9	...........
	15	0.213333	7.12251E-001	-9.91218E-005	0.00000E+000	-7.05996E-005	-5.99601E-002	7.12535E-001	3.57900E+000	9	...........
	16	0.226667	7.03043E-001	-9.90520E-005	0.00000E+000	-6.96378E-005	-5.99601E-002	7.03315E-001	3.57900E+000	9	...........
	17	0.24	6.93863E-001	-9.84081E-005	0.00000E+000	-6.82817E-005	-5.99601E-002	6.94139E-001	3.57904E+000	9	...........
	18	0.253333	6.84694E-001	-9.89249E-005	0.00000E+000	-6.77333E-005	-5.99601E-002	6.84933E-001	3.57910E+000	9	...........
	19	0.266667	6.75490E-001	-9.89426E-005	0.00000E+000	-6.68347E-005	-5.99601E-002	6.75740E-001	3.57910E+000	9	...........
	20	0.28	6.66314E-001	-9.88207E-005	0.00000E+000	-6.58456E-005	-5.99601E-002	6.66579E-001	3.57910E+000	9	...........
	21	0.293333	6.57113E-001	-9.88436E-005	0.00000E+000	-6.49514E-005	-5.99601E-002	6.57342E-001	3.57910E+000	9	...........
	22	0.306667	6.47896E-001	-9.87488E-005	0.00000E+000	-6.39790E-005	-5.99601E-002	6.48172E-001	3.57910E+000	9	...........
	23	0.32	6.38700E-001	-9.85665E-005	0.00000E+000	-6.29544E-005	-5.99601E-002	6.38961E-001	3.57910E+000	9	...........
	24	0.333333	6.29464E-001	-9.86519E-005	0.00000E+000	-6.20978E-005	-5.99601E-002	6.29736E-001	3.57910E+000	9	...........
	25	0.346667	6.20252E-001	-9.97022E-005	0.00000E+000	-6.18405E-005	-5.99601E-002	6.20509E-001	3.57910E+000	9	...........
	26	0.36	6.10963E-001	-9.93760E-005	0.00000E+000	-6.07151E-005	-5.99601E-002	6.11277E-001	3.57910E+000	9	...........
	27	0.373333	6.01738E-001	-9.95803E-005	0.00000E+000	-5.99212E-005	-5.99601E-002	6.02032E-001	3.57910E+000	9	...........
	28	0.386667	5.92492E-001	-9.85540E-005	0.00000E+000	-5.83924E-005	-5.99601E-002	5.92781E-001	3.57910E+000	9	...........
	29	0.4	5.83154E-001	-9.83800E-005	0.00000E+000	-5.73707E-005	-5.99601E-002	5.83490E-001	3.57910E+000	9	...........
	30	0.413333	5.73905E-001	-9.85217E-005	0.00000E+000	-5.65421E-005	-5.99601E-002	5.74195E-001	3.57910E+000	9	...........
	31	0.426667	5.64616E-001	-9.90437E-005	0.00000E+000	-5.59217E-005	-5.99601E-002	5.64897E-001	3.57910E+000	9	...........
	32	0.44	5.55304E-001	-9.83946E-005	0.00000E+000	-5.46389E-005	-5.99601E-002	5.55530E-001	3.57910E+000	9	...........
	33	0.453333	5.45964E-001	-9.88061E-005	0.00000E+000	-5.39446E-005	-5.99601E-002	5.46211E-001	3.57910E+000	9	...........
	34	0.466667	5.36638E-001	-9.81748E-005	0.00000E+000	-5.26844E-005	-5.99601E-002	5.36885E-001	3.57910E+000	9	...........
	35	0.48	5.27291E-001	-9.79007E-005	0.00000E+000	-5.16222E-005	-5.99601E-002	5.27522E-001	3.57910E+000	9	...........
	36	0.493333	5.17924E-001	-9.87040E-005	0.00000E+000	-5.11212E-005	-5.99601E-002	5.18173E-001	3.57910E+000	9	...........
	37	0.506667	5.08539E-001	-9.82664E-005	0.00000E+000	-4.99724E-005	-5.99601E-002	5.08806E-001	3.57910E+000	9	...........
	38	0.52	4.99181E-001	-9.89874E-005	0.00000E+000	-4.94126E-005	-5.99601E-002	4.99413E-001	3.57910E+000	9	...........
	39	0.533333	4.89797E-001	-9.77945E-005	0.00000E+000	-4.78995E-005	-5.99601E-002	4.90044E-001	3.57910E+000	9	...........
	40	0.546667	4.80738E-001	-9.94125E-005	0.00000E+000	-4.77913E-005	-5.99601E-002	4.80853E-001	3.57910E+000	9	...........
	41	0.56	4.71383E-001	-9.91375E-005	0.00000E+000	-4.67317E-005	-5.99601E-002	4.71482E-001	3.57910E+000	9	...........
	42	0.573333	4.61983E-001	-9.89093E-005	0.00000E+000	-4.56945E-005	-5.99601E-002	4.62073E-001	3.57910E+000	9	...........
	43	0.586667	4.52576E-001	-9.84404E-005	0.00000E+000	-4.45518E-005	-5.99601E-002	4.52669E-001	3.57910E+000	9	...........
	44	0.6	4.43156E-001	-9.98678E-005	0.00000E+000	-4.42570E-005	-5.99601E-002	4.43251E-001	3.57910E+000	9	...........
	45	0.613333	4.33743E-001	-9.99126E-005	0.00000E+000	-4.33364E-005	-5.99601E-002	4.33831E-001	3.57910E+000	9	...........
	46	0.626667	4.24328E-001	-9.87103E-005	0.00000E+000	-4.18855E-005	-5.99601E-002	4.24413E-001	3.57910E+000	9	...........
	47	0.64	4.14908E-001	-9.93344E-005	0.00000E+000	-4.12146E-005	-5.99601E-002	4.14991E-001	3.57910E+000	9	...........
	48	0.653333	4.05491E-001	-9.89489E-005	0.00000E+000	-4.01229E-005	-5.99601E-002	4.05572E-001	3.57910E+000	9	...........
	49	0.666667	3.96073E-001	-9.83237E-005	0.00000E+000	-3.89434E-005	-5.99601E-002	3.96148E-001	3.57910E+000	9	...........
	50	0.68	3.86655E-001	-9.92562E-005	0.00000E+000	-3.83779E-005	-5.99601E-002	3.86729E-001	3.57910E+000	9	...........
	51	0.693333	3.77240E-001	-9.86040E-005	0.00000E+000	-3.71974E-005	-5.99601E-002	3.77312E-001	3.57910E+000	9	...........
	52	0.706667	3.67831E-001	-9.83435E-005	0.00000E+000	-3.61738E-005	-5.99601E-002	3.67894E-001	3.57910E+000	9	...........
	53	0.72	3.58417E-001	-9.93135E-005	0.00000E+000	-3.55957E-005	-5.99601E-002	3.58487E-001	3.57910E+000	9	...........
	54	0.733333	3.49008E-001	-9.87488E-005	0.00000E+000	-3.44641E-005	-5.99601E-002	3.49075E-001	3.57910E+000	9	...........
	55	0.746667	3.39595E-001	-9.90697E-005	0.00000E+000	-3.36436E-005	-5.99601E-002	3.39661E-001	3.57910E+000	9	...........
	56	0.76	3.30185E-001	-9.87770E-005	0.00000E+000	-3.26146E-005	-5.99601E-002	3.30250E-001	3.57910E+000	9	...........
	57	0.773333	3.20782E-001	-9.88155E-005	0.00000E+000	-3.16983E-005	-5.99601E-002	3.20842E-001	3.57910E+000	9	...........
	58	0.786667	3.11375E-001	-9.87853E-005	0.00000E+000	-3.07593E-005	-5.99601E-002	3.11435E-001	3.57910E+000	9	...........
	59	0.8	3.01969E-001	-9.96417E-005	0.00000E+000	-3.00887E-005	-5.99601E-002	3.02027E-001	3.57910E+000	9	...........
	60	0.813333	2.92573E-001	-9.92312E-005	0.00000E+000	-2.90324E-005	-5.99601E-002	2.92631E-001	3.57910E+000	9	...........
	61	0.826667	2.83172E-001	-9.93094E-005	0.00000E+000	-2.81217E-005	-5.99601E-002	2.83227E-001	3.57910E+000	9	...........
	62	0.84	2.73780E-001	-9.87624E-005	0.00000E+000	-2.70392E-005	-5.99601E-002	2.73830E-001	3.57910E+000	9	...........
	63	0.853333	2.64390E-001	-9.93938E-005	0.00000E+000	-2.62787E-005	-5.99601E-002	2.64437E-001	3.57910E+000	9	...........
	64	0.866667	2.55007E-001	-9.89635E-005	0.00000E+000	-2.52364E-005	-5.99601E-002	2.55056E-001	3.57910E+000	9	...........
	65	0.88	2.45627E-001	-9.84727E-005	0.00000E+000	-2.41876E-005	-5.99601E-002	2.45668E-001	3.57910E+000	9	...........
	66	0.893333	2.36255E-001	-9.90249E-005	0.00000E+000	-2.33952E-005	-5.99601E-002	2.36295E-001	3.57910E+000	9	...........
	67	0.906667	2.26892E-001	-9.81529E-005	0.00000E+000	-2.22701E-005	-5.99601E-002	2.26928E-001	3.57910E+000	9	...........
	68	0.92	2.17531E-001	-9.85269E-005	0.00000E+000	-2.14327E-005	-5.99601E-002	2.17565E-001	3.57910E+000	9	...........
	69	0.933333	2.08189E-001	-9.88082E-005	0.00000E+000	-2.05708E-005	-5.99601E-002	2.08219E-001	3.57910E+000	9	...........
	70	0.946667	1.98853E-001	-9.79580E-005	0.00000E+000	-1.94792E-005	-5.99601E-002	1.98886E-001	3.57910E+000	9	...........
	71	0.96	1.89531E-001	-9.96032E-005	0.00000E+000	-1.88779E-005	-5.99601E-002	1.89564E-001	3.57910E+000	9	...........
	72	0.97333	1.80231E-001	-9.85415E-005	0.00000E+000	-1.77602E-005	-5.99601E-002	1.80259E-001	3.57910E+000	9	...........
	73	0.98667	1.70947E-001	-9.87749E-005	0.00000E+000	-1.68853E-005	-5.99601E-002	1.70968E-001	3.57910E+000	9	...........
	74	1	1.61683E-001	-9.86707E-005	0.00000E+000	-1.59533E-005	-5.99601E-002	1.61705E-001	3.57910E+000	9	...........
	75	1.01333	1.52445E-001	-9.85186E-005	0.00000E+000	-1.50187E-005	-5.99601E-002	1.52458E-001	3.57910E+000	9	...........
	76	1.02667	1.43226E-001	-9.88530E-005	0.00000E+000	-1.41583E-005	-5.99601E-002	1.43239E-001	3.57910E+000	9	...........
	77	1.04	1.34030E-001	-9.85123E-005	0.00000E+000	-1.32036E-005	-5.99601E-002	1.34048E-001	3.57910E+000	9	...........
	78	1.05333	1.24874E-001	-9.88343E-005	0.00000E+000	-1.23419E-005	-5.99601E-002	1.24889E-001	3.57910E+000	9	...........
	79	1.06667	1.15751E-001	-9.90416E-005	0.00000E+000	-1.14642E-005	-5.99601E-002	1.15759E-001	3.57910E+000	9	...........
	80	1.08	1.06666E-001	-9.94875E-005	0.00000E+000	-1.06119E-005	-5.99601E-002	1.06664E-001	3.57910E+000	9	...........
	81	1.09333	9.76120E-002	-9.78059E-005	0.00000E+000	-9.54703E-006	-5.99601E-002	9.76184E-002	3.57910E+000	9	...........
	82	1.10667	8.86069E-002	-9.83560E-005	0.00000E+000	-8.71503E-006	-5.99601E-002	8.86056E-002	3.57910E+000	9	...........
	83	1.12	7.96580E-002	-9.90906E-005	0.00000E+000	-7.89336E-006	-5.99601E-002	7.96503E-002	3.57910E+000	9	...........
	84	1.13333	7.07506E-002	-9.79716E-005	0.00000E+000	-6.93155E-006	-5.99601E-002	7.07458E-002	3.57910E+000	9	...........
	85	1.14667	6.19014E-002	-9.85259E-005	0.00000E+000	-6.09889E-006	-5.99601E-002	6.18996E-002	3.57910E+000	9	...........
	86	1.16	5.31116E-002	-9.84488E-005	0.00000E+000	-5.22877E-006	-5.99601E-002	5.31070E-002	3.57910E+000	9	...........
	87	1.17333	4.44148E-002	-9.91062E-005	0.00000E+000	-4.40178E-006	-5.99601E-002	4.44047E-002	3.57910E+000	9	...........
	88	1.18667	3.57493E-002	-9.89176E-005	0.00000E+000	-3.53623E-006	-5.99601E-002	3.57348E-002	3.57910E+000	9	...........
	89	1.2	2.71434E-002	-9.91500E-005	0.00000E+000	-2.69127E-006	-5.99601E-002	2.71231E-002	3.57910E+000	9	...........
	90	1.21333	1.86070E-002	-9.83206E-005	0.00000E+000	-1.82946E-006	-5.99601E-002	1.85833E-002	3.57910E+000	9	...........
	91	1.22667	1.01316E-002	-9.83904E-005	0.00000E+000	-9.96854E-007	-5.99601E-002	1.01035E-002	3.57910E+000	9	...........
	92	1.23833	2.24666E-003	-9.93080E-005	0.00000E+000	-2.23111E-007	-5.99601E-002	2.20963E-003	3.57916E+000	9	...........
STARTTIMEOFFSET	QUANT	34.25	Start Time Offset (s)
