EXPLAIN
TAG	PWR800_DISCHARGE
TITLE	LABEL	PWR Cyclic Charge Discharge (Cell) - Discharge Step	Test &Identifier
DATE	LABEL	13-7-2017	Date
TIME	LABEL	15:12:49	Time
NOTES	NOTES	2	&Notes...
	supercap test cell
	6M KOH
PSTAT	PSTAT	IFC5000-01520	Potentiostat
CAPACITY	QUANT	1.00000E-003	Capacity (A-hr)
CELLTYPE	SELECTOR	1	&Cell Type
WORKINGCONNECTION	SELECTOR	0	&Working Lead
MAXDISCHARGETIME	VARIABLEANDUNITS	1.00000E+002	s	1.00000E+002	second(s)	Max &Discharge Time
DISCHARGEMODE	MULTIPARAM	0	1.00000E-004	&Discharge Mode	Constant Current	Amp(s)
SAMPLETIME	QUANT	1.00000E-002	Sa&mple Period (s)
DISCHARGESTOPAT1	MULTIPARAM	3	0.00000E+000	Discharge Stop At &1	Voltage < Limit	V
DISCHARGESTOPAT2	MULTIPARAM	0	0.00000E+000	Discharge Stop At &2	None	N/A
AESBHCSELECTOR	TOGGLE	F	Save Both Half Cells
IRCOMP	TOGGLE	F	IR &Measure
EOC	QUANT	0	Open Circuit (V)
SEQUENCER	TOGGLE	TRUE	Run as Sequence
PSTATMODEL	IQUANT	53	Pstat Model
PSTATSECTION	LABEL	IFC5000-01520	Pstat Section
PSTATSERIALNO	LABEL	01520	Pstat Serial Number
CTRLMODE	IQUANT	0	Control Mode
ELECTROMETER	IQUANT	1	RE=0 or CS=1
IESTAB	IQUANT	0	I/E Stability
CASPEED	IQUANT	4	Control Amp Speed
CONVENTION	IQUANT	1	Current Convention
ICHRANGE	IQUANT	2	Ich Range
ICHRANGEMODE	TOGGLE	T	Ich Auto Range
ICHOFFSETENABLE	TOGGLE	F	Ich Offset Enable
ICHOFFSET	QUANT	0	Ich Offset (V)
ICHFILTER	IQUANT	1	Ich Filter
VCHRANGE	IQUANT	2	Vch Range
VCHRANGEMODE	TOGGLE	T	Vch Auto Range
VCHOFFSETENABLE	TOGGLE	F	Vch Offset Enable
VCHOFFSET	QUANT	0	Vch Offset (V)
VCHFILTER	IQUANT	1	Vch Filter
IERANGELOWERLIMIT	IQUANT	9	I/E Range Lower Limit
IERANGEMODE	TOGGLE	F	I/E AutoRange
IERANGE	IQUANT	9	I/E Range
ACHSELECT	IQUANT	1	Ach Select
ACHRANGE	IQUANT	2	Ach Range
ACHOFFSETENABLE	TOGGLE	F	Ach Offset Enable
ACHOFFSET	QUANT	0	Ach Offset (V)
ACHFILTER	IQUANT	1	Ach Filter
CABLEID	IQUANT	14	Cable ID
DCCALDATE	LABEL	5-7-2017	DC Calibration Date
ACCALDATE	LABEL	12/3/2015	AC Calibration Date
FRAMEWORKVERSION	QUANT	7.01	Framework Version
INSTRUMENTVERSION	LABEL	4.00	Instrument Version
CURVE	TABLE	91
	Pt	T	Vf	Im	Vu	Pwr	Sig	Ach	Temp	IERange	Over
	#	s	V	A	V	W	V	V	deg C	#	bits
	0	0.013333	8.54345E-001	-9.95261E-005	0.00000E+000	-8.50296E-005	-5.99601E-002	8.54719E-001	3.57950E+000	9	...........
	1	0.026667	8.41003E-001	-9.80758E-005	0.00000E+000	-8.24821E-005	-5.99601E-002	8.41363E-001	3.57950E+000	9	...........
	2	0.04	8.28483E-001	-9.83290E-005	0.00000E+000	-8.14638E-005	-5.99601E-002	8.28800E-001	3.57950E+000	9	...........
	3	0.053333	8.16513E-001	-9.71745E-005	0.00000E+000	-7.93443E-005	-5.99601E-002	8.16830E-001	3.57950E+000	9	...........
	4	0.066667	8.04936E-001	-9.94813E-005	0.00000E+000	-8.00761E-005	-5.99601E-002	8.05248E-001	3.57950E+000	9	...........
	5	0.08	7.93671E-001	-9.84529E-005	0.00000E+000	-7.81392E-005	-5.99601E-002	7.93957E-001	3.57950E+000	9	...........
	6	0.093333	7.82598E-001	-9.85905E-005	0.00000E+000	-7.71567E-005	-5.99601E-002	7.82924E-001	3.57950E+000	9	...........
	7	0.106667	7.71724E-001	-9.89843E-005	0.00000E+000	-7.63886E-005	-5.99601E-002	7.72012E-001	3.57950E+000	9	...........
	8	0.12	7.60961E-001	-9.83550E-005	0.00000E+000	-7.48444E-005	-5.99601E-002	7.61231E-001	3.57950E+000	9	...........
	9	0.133333	7.50294E-001	-9.89551E-005	0.00000E+000	-7.42454E-005	-5.99601E-002	7.50575E-001	3.57950E+000	9	...........
	10	0.146667	7.39707E-001	-9.87853E-005	0.00000E+000	-7.30722E-005	-5.99601E-002	7.39964E-001	3.57950E+000	9	...........
	11	0.16	7.29188E-001	-9.91937E-005	0.00000E+000	-7.23309E-005	-5.99601E-002	7.29460E-001	3.57950E+000	9	...........
	12	0.173333	7.18697E-001	-9.83748E-005	0.00000E+000	-7.07017E-005	-5.99601E-002	7.18951E-001	3.57950E+000	9	...........
	13	0.186667	7.08231E-001	-9.79570E-005	0.00000E+000	-6.93762E-005	-5.99601E-002	7.08500E-001	3.57950E+000	9	...........
	14	0.2	6.97832E-001	-9.91771E-005	0.00000E+000	-6.92089E-005	-5.99601E-002	6.98099E-001	3.57950E+000	9	...........
	15	0.213333	6.87431E-001	-9.87426E-005	0.00000E+000	-6.78787E-005	-5.99601E-002	6.87709E-001	3.57950E+000	9	...........
	16	0.226667	6.77048E-001	-9.96021E-005	0.00000E+000	-6.74354E-005	-5.99601E-002	6.77342E-001	3.57950E+000	9	...........
	17	0.24	6.66694E-001	-9.85394E-005	0.00000E+000	-6.56956E-005	-5.99601E-002	6.66972E-001	3.57950E+000	9	...........
	18	0.253333	6.56339E-001	-9.89989E-005	0.00000E+000	-6.49768E-005	-5.99601E-002	6.56613E-001	3.57950E+000	9	...........
	19	0.266667	6.46003E-001	-9.88405E-005	0.00000E+000	-6.38512E-005	-5.99601E-002	6.46248E-001	3.57950E+000	9	...........
	20	0.28	6.35616E-001	-9.92760E-005	0.00000E+000	-6.31015E-005	-5.99601E-002	6.35884E-001	3.57950E+000	9	...........
	21	0.293333	6.25325E-001	-9.94063E-005	0.00000E+000	-6.21612E-005	-5.99601E-002	6.25561E-001	3.57950E+000	9	...........
	22	0.306667	6.14982E-001	-9.89207E-005	0.00000E+000	-6.08345E-005	-5.99601E-002	6.15272E-001	3.57950E+000	9	...........
	23	0.32	6.04621E-001	-9.84665E-005	0.00000E+000	-5.95349E-005	-5.99601E-002	6.04931E-001	3.57950E+000	9	...........
	24	0.333333	5.94336E-001	-9.98511E-005	0.00000E+000	-5.93451E-005	-5.99601E-002	5.94627E-001	3.57950E+000	9	...........
	25	0.346667	5.84040E-001	-9.93906E-005	0.00000E+000	-5.80481E-005	-5.99601E-002	5.84337E-001	3.57950E+000	9	...........
	26	0.36	5.73780E-001	-9.82696E-005	0.00000E+000	-5.63851E-005	-5.99601E-002	5.74057E-001	3.57950E+000	9	...........
	27	0.373333	5.63498E-001	-9.88593E-005	0.00000E+000	-5.57070E-005	-5.99601E-002	5.63782E-001	3.57950E+000	9	...........
	28	0.386667	5.53235E-001	-9.92208E-005	0.00000E+000	-5.48924E-005	-5.99601E-002	5.53505E-001	3.57950E+000	9	...........
	29	0.4	5.42998E-001	-9.87780E-005	0.00000E+000	-5.36363E-005	-5.99601E-002	5.43276E-001	3.57950E+000	9	...........
	30	0.413333	5.32781E-001	-9.83779E-005	0.00000E+000	-5.24139E-005	-5.99601E-002	5.33079E-001	3.57950E+000	9	...........
	31	0.426667	5.22596E-001	-9.94771E-005	0.00000E+000	-5.19863E-005	-5.99601E-002	5.22865E-001	3.57950E+000	9	...........
	32	0.44	5.12437E-001	-9.95803E-005	0.00000E+000	-5.10286E-005	-5.99601E-002	5.12718E-001	3.57950E+000	9	...........
	33	0.453333	5.02303E-001	-9.91906E-005	0.00000E+000	-4.98238E-005	-5.99601E-002	5.02586E-001	3.57950E+000	9	...........
	34	0.466667	4.92208E-001	-9.91447E-005	0.00000E+000	-4.87999E-005	-5.99601E-002	4.92500E-001	3.57950E+000	9	...........
	35	0.48	4.82460E-001	-9.96501E-005	0.00000E+000	-4.80772E-005	-5.99601E-002	4.82587E-001	3.57950E+000	9	...........
	36	0.493333	4.72561E-001	-9.85238E-005	0.00000E+000	-4.65585E-005	-5.99601E-002	4.72662E-001	3.57950E+000	9	...........
	37	0.506667	4.62584E-001	-9.84050E-005	0.00000E+000	-4.55206E-005	-5.99601E-002	4.62684E-001	3.57950E+000	9	...........
	38	0.52	4.52652E-001	-9.87593E-005	0.00000E+000	-4.47035E-005	-5.99601E-002	4.52752E-001	3.57950E+000	9	...........
	39	0.533333	4.42777E-001	-9.95115E-005	0.00000E+000	-4.40614E-005	-5.99601E-002	4.42868E-001	3.57950E+000	9	...........
	40	0.546667	4.32933E-001	-9.90395E-005	0.00000E+000	-4.28775E-005	-5.99601E-002	4.33024E-001	3.57950E+000	9	...........
	41	0.56	4.23139E-001	-9.82883E-005	0.00000E+000	-4.15896E-005	-5.99601E-002	4.23233E-001	3.57950E+000	9	...........
	42	0.573333	4.13395E-001	-9.88905E-005	0.00000E+000	-4.08809E-005	-5.99601E-002	4.13483E-001	3.57950E+000	9	...........
	43	0.586667	4.03693E-001	-9.85332E-005	0.00000E+000	-3.97772E-005	-5.99601E-002	4.03774E-001	3.57950E+000	9	...........
	44	0.6	3.94045E-001	-9.92229E-005	0.00000E+000	-3.90982E-005	-5.99601E-002	3.94117E-001	3.57950E+000	9	...........
	45	0.613333	3.84437E-001	-9.92698E-005	0.00000E+000	-3.81630E-005	-5.99601E-002	3.84513E-001	3.57950E+000	9	...........
	46	0.626667	3.74885E-001	-9.83519E-005	0.00000E+000	-3.68706E-005	-5.99601E-002	3.74957E-001	3.57950E+000	9	...........
	47	0.64	3.65382E-001	-9.91302E-005	0.00000E+000	-3.62204E-005	-5.99601E-002	3.65450E-001	3.57950E+000	9	...........
	48	0.653333	3.55922E-001	-9.77945E-005	0.00000E+000	-3.48072E-005	-5.99601E-002	3.55988E-001	3.57950E+000	9	...........
	49	0.666667	3.46508E-001	-9.86280E-005	0.00000E+000	-3.41754E-005	-5.99601E-002	3.46571E-001	3.57950E+000	9	...........
	50	0.68	3.37134E-001	-9.85717E-005	0.00000E+000	-3.32318E-005	-5.99601E-002	3.37196E-001	3.57950E+000	9	...........
	51	0.693333	3.27808E-001	-9.92562E-005	0.00000E+000	-3.25370E-005	-5.99601E-002	3.27869E-001	3.57987E+000	9	...........
	52	0.706667	3.18529E-001	-9.93906E-005	0.00000E+000	-3.16588E-005	-5.99601E-002	3.18587E-001	3.58010E+000	9	...........
	53	0.72	3.09290E-001	-9.88228E-005	0.00000E+000	-3.05649E-005	-5.99601E-002	3.09347E-001	3.58010E+000	9	...........
	54	0.733333	3.00088E-001	-9.89197E-005	0.00000E+000	-2.96846E-005	-5.99601E-002	3.00144E-001	3.58010E+000	9	...........
	55	0.746667	2.90931E-001	-9.98366E-005	0.00000E+000	-2.90455E-005	-5.99601E-002	2.90978E-001	3.58010E+000	9	...........
	56	0.76	2.81810E-001	-9.87915E-005	0.00000E+000	-2.78404E-005	-5.99601E-002	2.81864E-001	3.58010E+000	9	...........
	57	0.773333	2.72732E-001	-9.82352E-005	0.00000E+000	-2.67919E-005	-5.99601E-002	2.72780E-001	3.58010E+000	9	...........
	58	0.786667	2.63688E-001	-9.94907E-005	0.00000E+000	-2.62344E-005	-5.99601E-002	2.63743E-001	3.58010E+000	9	...........
	59	0.8	2.54685E-001	-9.95146E-005	0.00000E+000	-2.53449E-005	-5.99601E-002	2.54733E-001	3.58010E+000	9	...........
	60	0.813333	2.45727E-001	-9.84008E-005	0.00000E+000	-2.41797E-005	-5.99601E-002	2.45773E-001	3.58010E+000	9	...........
	61	0.826667	2.36801E-001	-9.86676E-005	0.00000E+000	-2.33645E-005	-5.99601E-002	2.36845E-001	3.58010E+000	9	...........
	62	0.84	2.27917E-001	-9.83727E-005	0.00000E+000	-2.24208E-005	-5.99601E-002	2.27954E-001	3.58010E+000	9	...........
	63	0.853333	2.19060E-001	-9.92677E-005	0.00000E+000	-2.17455E-005	-5.99601E-002	2.19098E-001	3.58010E+000	9	...........
	64	0.866667	2.10252E-001	-9.83998E-005	0.00000E+000	-2.06888E-005	-5.99601E-002	2.10281E-001	3.58010E+000	9	...........
	65	0.88	2.01470E-001	-9.91187E-005	0.00000E+000	-1.99695E-005	-5.99601E-002	2.01501E-001	3.58010E+000	9	...........
	66	0.893333	1.92740E-001	-9.88634E-005	0.00000E+000	-1.90549E-005	-5.99601E-002	1.92770E-001	3.58010E+000	9	...........
	67	0.906667	1.84052E-001	-9.78101E-005	0.00000E+000	-1.80022E-005	-5.99601E-002	1.84080E-001	3.58010E+000	9	...........
	68	0.92	1.75408E-001	-9.94396E-005	0.00000E+000	-1.74425E-005	-5.99601E-002	1.75433E-001	3.58010E+000	9	...........
	69	0.933333	1.66817E-001	-9.87019E-005	0.00000E+000	-1.64652E-005	-5.99601E-002	1.66842E-001	3.58010E+000	9	...........
	70	0.946667	1.58280E-001	-1.00226E-004	0.00000E+000	-1.58639E-005	-5.99601E-002	1.58304E-001	3.58010E+000	9	...........
	71	0.96	1.49795E-001	-9.73183E-005	0.00000E+000	-1.45778E-005	-5.99601E-002	1.49818E-001	3.58010E+000	9	...........
	72	0.97333	1.41365E-001	-9.81966E-005	0.00000E+000	-1.38816E-005	-5.99601E-002	1.41386E-001	3.58010E+000	9	...........
	73	0.98667	1.32996E-001	-9.84186E-005	0.00000E+000	-1.30893E-005	-5.99601E-002	1.33011E-001	3.58010E+000	9	...........
	74	1	1.24685E-001	-9.97272E-005	0.00000E+000	-1.24345E-005	-5.99601E-002	1.24698E-001	3.58010E+000	9	...........
	75	1.01333	1.16432E-001	-9.87478E-005	0.00000E+000	-1.14974E-005	-5.99601E-002	1.16453E-001	3.58010E+000	9	...........
	76	1.02667	1.08250E-001	-9.93604E-005	0.00000E+000	-1.07558E-005	-5.99601E-002	1.08267E-001	3.58010E+000	9	...........
	77	1.04	1.00126E-001	-9.88176E-005	0.00000E+000	-9.89424E-006	-5.99601E-002	1.00139E-001	3.58010E+000	9	...........
	78	1.05333	9.20730E-002	-9.86082E-005	0.00000E+000	-9.07915E-006	-5.99601E-002	9.20827E-002	3.58010E+000	9	...........
	79	1.06667	8.40815E-002	-9.89166E-005	0.00000E+000	-8.31705E-006	-5.99601E-002	8.40891E-002	3.58010E+000	9	...........
	80	1.08	7.61647E-002	-9.85561E-005	0.00000E+000	-7.50649E-006	-5.99601E-002	7.61616E-002	3.58010E+000	9	...........
	81	1.09333	6.83037E-002	-9.81310E-005	0.00000E+000	-6.70271E-006	-5.99601E-002	6.83025E-002	3.58010E+000	9	...........
	82	1.10667	6.05116E-002	-9.92479E-005	0.00000E+000	-6.00565E-006	-5.99601E-002	6.05017E-002	3.58010E+000	9	...........
	83	1.12	5.27785E-002	-9.84706E-005	0.00000E+000	-5.19713E-006	-5.99601E-002	5.27680E-002	3.58010E+000	9	...........
	84	1.13333	4.51432E-002	-9.96188E-005	0.00000E+000	-4.49711E-006	-5.99601E-002	4.51339E-002	3.58010E+000	9	...........
	85	1.14667	3.75441E-002	-9.84436E-005	0.00000E+000	-3.69598E-006	-5.99601E-002	3.75321E-002	3.58010E+000	9	...........
	86	1.16	3.00002E-002	-9.87749E-005	0.00000E+000	-2.96326E-006	-5.99601E-002	2.99857E-002	3.58010E+000	9	...........
	87	1.17333	2.25188E-002	-9.92625E-005	0.00000E+000	-2.23527E-006	-5.99601E-002	2.24951E-002	3.58010E+000	9	...........
	88	1.18667	1.50972E-002	-9.88957E-005	0.00000E+000	-1.49305E-006	-5.99601E-002	1.50669E-002	3.58010E+000	9	...........
	89	1.2	7.73040E-003	-9.95375E-005	0.00000E+000	-7.69465E-007	-5.99601E-002	7.70151E-003	3.58010E+000	9	...........
	90	1.20833	1.79270E-003	-9.76434E-005	0.00000E+000	-1.75045E-007	-5.99601E-002	1.75335E-003	3.58010E+000	9	...........
STARTTIMEOFFSET	QUANT	487.4682	Start Time Offset (s)
