EXPLAIN
TAG	PWR800_DISCHARGE
TITLE	LABEL	PWR Cyclic Charge Discharge (Cell) - Discharge Step	Test &Identifier
DATE	LABEL	13-7-2017	Date
TIME	LABEL	15:45:02	Time
NOTES	NOTES	2	&Notes...
	supercap test cell
	6M KOH
PSTAT	PSTAT	IFC5000-01520	Potentiostat
CAPACITY	QUANT	1.00000E-003	Capacity (A-hr)
CELLTYPE	SELECTOR	1	&Cell Type
WORKINGCONNECTION	SELECTOR	0	&Working Lead
MAXDISCHARGETIME	VARIABLEANDUNITS	1.00000E+002	s	1.00000E+002	second(s)	Max &Discharge Time
DISCHARGEMODE	MULTIPARAM	0	1.00000E-004	&Discharge Mode	Constant Current	Amp(s)
SAMPLETIME	QUANT	1.00000E-002	Sa&mple Period (s)
DISCHARGESTOPAT1	MULTIPARAM	3	0.00000E+000	Discharge Stop At &1	Voltage < Limit	V
DISCHARGESTOPAT2	MULTIPARAM	0	0.00000E+000	Discharge Stop At &2	None	N/A
AESBHCSELECTOR	TOGGLE	F	Save Both Half Cells
IRCOMP	TOGGLE	F	IR &Measure
EOC	QUANT	0	Open Circuit (V)
SEQUENCER	TOGGLE	TRUE	Run as Sequence
PSTATMODEL	IQUANT	53	Pstat Model
PSTATSECTION	LABEL	IFC5000-01520	Pstat Section
PSTATSERIALNO	LABEL	01520	Pstat Serial Number
CTRLMODE	IQUANT	0	Control Mode
ELECTROMETER	IQUANT	1	RE=0 or CS=1
IESTAB	IQUANT	0	I/E Stability
CASPEED	IQUANT	4	Control Amp Speed
CONVENTION	IQUANT	1	Current Convention
ICHRANGE	IQUANT	2	Ich Range
ICHRANGEMODE	TOGGLE	T	Ich Auto Range
ICHOFFSETENABLE	TOGGLE	F	Ich Offset Enable
ICHOFFSET	QUANT	0	Ich Offset (V)
ICHFILTER	IQUANT	1	Ich Filter
VCHRANGE	IQUANT	2	Vch Range
VCHRANGEMODE	TOGGLE	T	Vch Auto Range
VCHOFFSETENABLE	TOGGLE	F	Vch Offset Enable
VCHOFFSET	QUANT	0	Vch Offset (V)
VCHFILTER	IQUANT	1	Vch Filter
IERANGELOWERLIMIT	IQUANT	9	I/E Range Lower Limit
IERANGEMODE	TOGGLE	F	I/E AutoRange
IERANGE	IQUANT	9	I/E Range
ACHSELECT	IQUANT	1	Ach Select
ACHRANGE	IQUANT	2	Ach Range
ACHOFFSETENABLE	TOGGLE	F	Ach Offset Enable
ACHOFFSET	QUANT	0	Ach Offset (V)
ACHFILTER	IQUANT	1	Ach Filter
CABLEID	IQUANT	14	Cable ID
DCCALDATE	LABEL	5-7-2017	DC Calibration Date
ACCALDATE	LABEL	12/3/2015	AC Calibration Date
FRAMEWORKVERSION	QUANT	7.01	Framework Version
INSTRUMENTVERSION	LABEL	4.00	Instrument Version
CURVE	TABLE	86
	Pt	T	Vf	Im	Vu	Pwr	Sig	Ach	Temp	IERange	Over
	#	s	V	A	V	W	V	V	deg C	#	bits
	0	0.013333	8.45375E-001	-9.89259E-005	0.00000E+000	-8.36295E-005	-5.99601E-002	8.45692E-001	3.58000E+000	9	...........
	1	0.026667	8.31052E-001	-9.91281E-005	0.00000E+000	-8.23806E-005	-5.99601E-002	8.31353E-001	3.58000E+000	9	...........
	2	0.04	8.17600E-001	-9.95386E-005	0.00000E+000	-8.13827E-005	-5.99601E-002	8.17892E-001	3.58000E+000	9	...........
	3	0.053333	8.04721E-001	-9.88520E-005	0.00000E+000	-7.95483E-005	-5.99601E-002	8.04981E-001	3.58000E+000	9	...........
	4	0.066667	7.92235E-001	-9.86259E-005	0.00000E+000	-7.81349E-005	-5.99601E-002	7.92521E-001	3.58000E+000	9	...........
	5	0.08	7.80037E-001	-9.97574E-005	0.00000E+000	-7.78145E-005	-5.99601E-002	7.80324E-001	3.58000E+000	9	...........
	6	0.093333	7.68054E-001	-9.87415E-005	0.00000E+000	-7.58388E-005	-5.99601E-002	7.68334E-001	3.58000E+000	9	...........
	7	0.106667	7.56246E-001	-9.86571E-005	0.00000E+000	-7.46091E-005	-5.99601E-002	7.56505E-001	3.58000E+000	9	...........
	8	0.12	7.44537E-001	-9.87322E-005	0.00000E+000	-7.35097E-005	-5.99601E-002	7.44808E-001	3.58000E+000	9	...........
	9	0.133333	7.32915E-001	-9.91854E-005	0.00000E+000	-7.26944E-005	-5.99601E-002	7.33181E-001	3.58000E+000	9	...........
	10	0.146667	7.21391E-001	-9.96886E-005	0.00000E+000	-7.19144E-005	-5.99601E-002	7.21684E-001	3.58000E+000	9	...........
	11	0.16	7.09873E-001	-9.87311E-005	0.00000E+000	-7.00865E-005	-5.99601E-002	7.10180E-001	3.58000E+000	9	...........
	12	0.173333	6.98451E-001	-9.84384E-005	0.00000E+000	-6.87543E-005	-5.99601E-002	6.98727E-001	3.58000E+000	9	...........
	13	0.186667	6.87059E-001	-9.88155E-005	0.00000E+000	-6.78921E-005	-5.99601E-002	6.87353E-001	3.58000E+000	9	...........
	14	0.2	6.75719E-001	-9.89020E-005	0.00000E+000	-6.68299E-005	-5.99601E-002	6.75995E-001	3.58000E+000	9	...........
	15	0.213333	6.64394E-001	-9.85675E-005	0.00000E+000	-6.54877E-005	-5.99601E-002	6.64672E-001	3.58000E+000	9	...........
	16	0.226667	6.53084E-001	-9.95073E-005	0.00000E+000	-6.49866E-005	-5.99601E-002	6.53359E-001	3.58000E+000	9	...........
	17	0.24	6.41807E-001	-9.85311E-005	0.00000E+000	-6.32380E-005	-5.99601E-002	6.42093E-001	3.58000E+000	9	...........
	18	0.253333	6.30541E-001	-9.80393E-005	0.00000E+000	-6.18178E-005	-5.99601E-002	6.30813E-001	3.57870E+000	9	...........
	19	0.266667	6.19342E-001	-9.83852E-005	0.00000E+000	-6.09341E-005	-5.99601E-002	6.19576E-001	3.57870E+000	9	...........
	20	0.28	6.08072E-001	-9.86311E-005	0.00000E+000	-5.99748E-005	-5.99601E-002	6.08378E-001	3.57870E+000	9	...........
	21	0.293333	5.96917E-001	-9.88916E-005	0.00000E+000	-5.90301E-005	-5.99601E-002	5.97190E-001	3.57870E+000	9	...........
	22	0.306667	5.85743E-001	-9.93448E-005	0.00000E+000	-5.81905E-005	-5.99601E-002	5.86023E-001	3.57870E+000	9	...........
	23	0.32	5.74638E-001	-9.92458E-005	0.00000E+000	-5.70304E-005	-5.99601E-002	5.74888E-001	3.57870E+000	9	...........
	24	0.333333	5.63556E-001	-9.89416E-005	0.00000E+000	-5.57591E-005	-5.99601E-002	5.63805E-001	3.57870E+000	9	...........
	25	0.346667	5.52478E-001	-9.85644E-005	0.00000E+000	-5.44547E-005	-5.99601E-002	5.52736E-001	3.57870E+000	9	...........
	26	0.36	5.41480E-001	-9.90228E-005	0.00000E+000	-5.36189E-005	-5.99601E-002	5.41721E-001	3.57870E+000	9	...........
	27	0.373333	5.30508E-001	-9.87311E-005	0.00000E+000	-5.23776E-005	-5.99601E-002	5.30759E-001	3.57870E+000	9	...........
	28	0.386667	5.19597E-001	-9.78049E-005	0.00000E+000	-5.08191E-005	-5.99601E-002	5.19824E-001	3.57870E+000	9	...........
	29	0.4	5.08726E-001	-9.88968E-005	0.00000E+000	-5.03113E-005	-5.99601E-002	5.08971E-001	3.57870E+000	9	...........
	30	0.413333	4.97893E-001	-9.86530E-005	0.00000E+000	-4.91186E-005	-5.99601E-002	4.98154E-001	3.57870E+000	9	...........
	31	0.426667	4.87266E-001	-9.90041E-005	0.00000E+000	-4.82413E-005	-5.99601E-002	4.87451E-001	3.57870E+000	9	...........
	32	0.44	4.76840E-001	-9.97511E-005	0.00000E+000	-4.75653E-005	-5.99601E-002	4.76937E-001	3.57870E+000	9	...........
	33	0.453333	4.66216E-001	-9.85009E-005	0.00000E+000	-4.59226E-005	-5.99601E-002	4.66306E-001	3.57870E+000	9	...........
	34	0.466667	4.55649E-001	-9.94854E-005	0.00000E+000	-4.53304E-005	-5.99601E-002	4.55743E-001	3.57870E+000	9	...........
	35	0.48	4.45152E-001	-9.89218E-005	0.00000E+000	-4.40352E-005	-5.99601E-002	4.45246E-001	3.57870E+000	9	...........
	36	0.493333	4.34722E-001	-9.93375E-005	0.00000E+000	-4.31842E-005	-5.99601E-002	4.34807E-001	3.57870E+000	9	...........
	37	0.506667	4.24358E-001	-9.85415E-005	0.00000E+000	-4.18169E-005	-5.99601E-002	4.24450E-001	3.57870E+000	9	...........
	38	0.52	4.14071E-001	-9.97303E-005	0.00000E+000	-4.12954E-005	-5.99601E-002	4.14149E-001	3.57870E+000	9	...........
	39	0.533333	4.03851E-001	-9.93448E-005	0.00000E+000	-4.01205E-005	-5.99601E-002	4.03925E-001	3.57870E+000	9	...........
	40	0.546667	3.93698E-001	-9.87759E-005	0.00000E+000	-3.88879E-005	-5.99601E-002	3.93774E-001	3.57870E+000	9	...........
	41	0.56	3.83608E-001	-9.84259E-005	0.00000E+000	-3.77569E-005	-5.99601E-002	3.83682E-001	3.57870E+000	9	...........
	42	0.573333	3.73585E-001	-9.85154E-005	0.00000E+000	-3.68039E-005	-5.99601E-002	3.73662E-001	3.57870E+000	9	...........
	43	0.586667	3.63637E-001	-9.88353E-005	0.00000E+000	-3.59401E-005	-5.99601E-002	3.63707E-001	3.57870E+000	9	...........
	44	0.6	3.53742E-001	-9.91927E-005	0.00000E+000	-3.50886E-005	-5.99601E-002	3.53811E-001	3.57870E+000	9	...........
	45	0.613333	3.43909E-001	-9.90937E-005	0.00000E+000	-3.40793E-005	-5.99601E-002	3.43976E-001	3.57870E+000	9	...........
	46	0.626667	3.34142E-001	-9.83675E-005	0.00000E+000	-3.28687E-005	-5.99601E-002	3.34210E-001	3.57870E+000	9	...........
	47	0.64	3.24436E-001	-1.00051E-004	0.00000E+000	-3.24602E-005	-5.99601E-002	3.24497E-001	3.57870E+000	9	...........
	48	0.653333	3.14782E-001	-9.90979E-005	0.00000E+000	-3.11943E-005	-5.99601E-002	3.14843E-001	3.57870E+000	9	...........
	49	0.666667	3.05187E-001	-9.97824E-005	0.00000E+000	-3.04523E-005	-5.99601E-002	3.05244E-001	3.57870E+000	9	...........
	50	0.68	2.95645E-001	-9.85165E-005	0.00000E+000	-2.91259E-005	-5.99601E-002	2.95700E-001	3.57870E+000	9	...........
	51	0.693333	2.86150E-001	-9.87936E-005	0.00000E+000	-2.82698E-005	-5.99601E-002	2.86204E-001	3.57870E+000	9	...........
	52	0.706667	2.76716E-001	-9.91427E-005	0.00000E+000	-2.74343E-005	-5.99601E-002	2.76761E-001	3.57870E+000	9	...........
	53	0.72	2.67330E-001	-9.84800E-005	0.00000E+000	-2.63266E-005	-5.99601E-002	2.67373E-001	3.57870E+000	9	...........
	54	0.733333	2.57991E-001	-9.90426E-005	0.00000E+000	-2.55521E-005	-5.99601E-002	2.58037E-001	3.57870E+000	9	...........
	55	0.746667	2.48711E-001	-9.84279E-005	0.00000E+000	-2.44801E-005	-5.99601E-002	2.48747E-001	3.57870E+000	9	...........
	56	0.76	2.39480E-001	-9.84550E-005	0.00000E+000	-2.35780E-005	-5.99601E-002	2.39509E-001	3.57870E+000	9	...........
	57	0.773333	2.30299E-001	-9.90228E-005	0.00000E+000	-2.28048E-005	-5.99601E-002	2.30326E-001	3.57870E+000	9	...........
	58	0.786667	2.21168E-001	-9.83602E-005	0.00000E+000	-2.17541E-005	-5.99601E-002	2.21197E-001	3.57870E+000	9	...........
	59	0.8	2.12088E-001	-9.88499E-005	0.00000E+000	-2.09649E-005	-5.99601E-002	2.12113E-001	3.57870E+000	9	...........
	60	0.813333	2.03064E-001	-9.95375E-005	0.00000E+000	-2.02125E-005	-5.99601E-002	2.03094E-001	3.57870E+000	9	...........
	61	0.826667	1.94101E-001	-9.92687E-005	0.00000E+000	-1.92682E-005	-5.99601E-002	1.94126E-001	3.57870E+000	9	...........
	62	0.84	1.85198E-001	-9.87290E-005	0.00000E+000	-1.82844E-005	-5.99601E-002	1.85223E-001	3.57870E+000	9	...........
	63	0.853333	1.76352E-001	-1.00089E-004	0.00000E+000	-1.76508E-005	-5.99601E-002	1.76376E-001	3.57870E+000	9	...........
	64	0.866667	1.67573E-001	-9.91197E-005	0.00000E+000	-1.66098E-005	-5.99601E-002	1.67595E-001	3.57870E+000	9	...........
	65	0.88	1.58861E-001	-9.87186E-005	0.00000E+000	-1.56826E-005	-5.99601E-002	1.58881E-001	3.57870E+000	9	...........
	66	0.893333	1.50212E-001	-9.88999E-005	0.00000E+000	-1.48559E-005	-5.99601E-002	1.50230E-001	3.57870E+000	9	...........
	67	0.906667	1.41631E-001	-9.91062E-005	0.00000E+000	-1.40365E-005	-5.99601E-002	1.41650E-001	3.57870E+000	9	...........
	68	0.92	1.33127E-001	-9.95448E-005	0.00000E+000	-1.32521E-005	-5.99601E-002	1.33147E-001	3.57870E+000	9	...........
	69	0.933333	1.24702E-001	-9.90114E-005	0.00000E+000	-1.23469E-005	-5.99601E-002	1.24719E-001	3.57870E+000	9	...........
	70	0.946667	1.16344E-001	-9.96813E-005	0.00000E+000	-1.15974E-005	-5.99601E-002	1.16360E-001	3.57870E+000	9	...........
	71	0.96	1.08072E-001	-9.87728E-005	0.00000E+000	-1.06746E-005	-5.99601E-002	1.08080E-001	3.57870E+000	9	...........
	72	0.97333	9.98650E-002	-9.84581E-005	0.00000E+000	-9.83252E-006	-5.99601E-002	9.98819E-002	3.57870E+000	9	...........
	73	0.98667	9.17384E-002	-9.85248E-005	0.00000E+000	-9.03851E-006	-5.99601E-002	9.17511E-002	3.57870E+000	9	...........
	74	1	8.36905E-002	-9.87124E-005	0.00000E+000	-8.26128E-006	-5.99601E-002	8.36954E-002	3.57870E+000	9	...........
	75	1.01333	7.57155E-002	-9.88311E-005	0.00000E+000	-7.48305E-006	-5.99601E-002	7.57174E-002	3.57870E+000	9	...........
	76	1.02667	6.78103E-002	-9.93208E-005	0.00000E+000	-6.73497E-006	-5.99601E-002	6.78095E-002	3.57870E+000	9	...........
	77	1.04	5.99751E-002	-9.94511E-005	0.00000E+000	-5.96459E-006	-5.99601E-002	5.99689E-002	3.57870E+000	9	...........
	78	1.05333	5.22108E-002	-9.93750E-005	0.00000E+000	-5.18844E-006	-5.99601E-002	5.22043E-002	3.57870E+000	9	...........
	79	1.06667	4.45602E-002	-9.90989E-005	0.00000E+000	-4.41587E-006	-5.99601E-002	4.45482E-002	3.57870E+000	9	...........
	80	1.08	3.69335E-002	-9.93635E-005	0.00000E+000	-3.66985E-006	-5.99601E-002	3.69239E-002	3.57870E+000	9	...........
	81	1.09333	2.93818E-002	-9.89134E-005	0.00000E+000	-2.90625E-006	-5.99601E-002	2.93622E-002	3.57870E+000	9	...........
	82	1.10667	2.18910E-002	-9.94802E-005	0.00000E+000	-2.17772E-006	-5.99601E-002	2.18727E-002	3.57870E+000	9	...........
	83	1.12	1.44724E-002	-9.87801E-005	0.00000E+000	-1.42958E-006	-5.99601E-002	1.44447E-002	3.57870E+000	9	...........
	84	1.13333	7.11434E-003	-9.87530E-005	0.00000E+000	-7.02563E-007	-5.99601E-002	7.08254E-003	3.57870E+000	9	...........
	85	1.14167	1.18459E-003	-9.88637E-005	0.00000E+000	-1.17113E-007	-5.99601E-002	1.14768E-003	3.57870E+000	9	...........
STARTTIMEOFFSET	QUANT	1944.355	Start Time Offset (s)
