EXPLAIN
TAG	PWR800_DISCHARGE
TITLE	LABEL	PWR Cyclic Charge Discharge (Cell) - Discharge Step	Test &Identifier
DATE	LABEL	13-7-2017	Date
TIME	LABEL	15:29:32	Time
NOTES	NOTES	2	&Notes...
	supercap test cell
	6M KOH
PSTAT	PSTAT	IFC5000-01520	Potentiostat
CAPACITY	QUANT	1.00000E-003	Capacity (A-hr)
CELLTYPE	SELECTOR	1	&Cell Type
WORKINGCONNECTION	SELECTOR	0	&Working Lead
MAXDISCHARGETIME	VARIABLEANDUNITS	1.00000E+002	s	1.00000E+002	second(s)	Max &Discharge Time
DISCHARGEMODE	MULTIPARAM	0	1.00000E-004	&Discharge Mode	Constant Current	Amp(s)
SAMPLETIME	QUANT	1.00000E-002	Sa&mple Period (s)
DISCHARGESTOPAT1	MULTIPARAM	3	0.00000E+000	Discharge Stop At &1	Voltage < Limit	V
DISCHARGESTOPAT2	MULTIPARAM	0	0.00000E+000	Discharge Stop At &2	None	N/A
AESBHCSELECTOR	TOGGLE	F	Save Both Half Cells
IRCOMP	TOGGLE	F	IR &Measure
EOC	QUANT	0	Open Circuit (V)
SEQUENCER	TOGGLE	TRUE	Run as Sequence
PSTATMODEL	IQUANT	53	Pstat Model
PSTATSECTION	LABEL	IFC5000-01520	Pstat Section
PSTATSERIALNO	LABEL	01520	Pstat Serial Number
CTRLMODE	IQUANT	0	Control Mode
ELECTROMETER	IQUANT	1	RE=0 or CS=1
IESTAB	IQUANT	0	I/E Stability
CASPEED	IQUANT	4	Control Amp Speed
CONVENTION	IQUANT	1	Current Convention
ICHRANGE	IQUANT	2	Ich Range
ICHRANGEMODE	TOGGLE	T	Ich Auto Range
ICHOFFSETENABLE	TOGGLE	F	Ich Offset Enable
ICHOFFSET	QUANT	0	Ich Offset (V)
ICHFILTER	IQUANT	1	Ich Filter
VCHRANGE	IQUANT	2	Vch Range
VCHRANGEMODE	TOGGLE	T	Vch Auto Range
VCHOFFSETENABLE	TOGGLE	F	Vch Offset Enable
VCHOFFSET	QUANT	0	Vch Offset (V)
VCHFILTER	IQUANT	1	Vch Filter
IERANGELOWERLIMIT	IQUANT	9	I/E Range Lower Limit
IERANGEMODE	TOGGLE	F	I/E AutoRange
IERANGE	IQUANT	9	I/E Range
ACHSELECT	IQUANT	1	Ach Select
ACHRANGE	IQUANT	2	Ach Range
ACHOFFSETENABLE	TOGGLE	F	Ach Offset Enable
ACHOFFSET	QUANT	0	Ach Offset (V)
ACHFILTER	IQUANT	1	Ach Filter
CABLEID	IQUANT	14	Cable ID
DCCALDATE	LABEL	5-7-2017	DC Calibration Date
ACCALDATE	LABEL	12/3/2015	AC Calibration Date
FRAMEWORKVERSION	QUANT	7.01	Framework Version
INSTRUMENTVERSION	LABEL	4.00	Instrument Version
CURVE	TABLE	88
	Pt	T	Vf	Im	Vu	Pwr	Sig	Ach	Temp	IERange	Over
	#	s	V	A	V	W	V	V	deg C	#	bits
	0	0.013333	8.49061E-001	-9.90916E-005	0.00000E+000	-8.41349E-005	-5.99601E-002	8.49384E-001	3.57890E+000	9	...........
	1	0.026667	8.35101E-001	-9.89468E-005	0.00000E+000	-8.26306E-005	-5.99601E-002	8.35451E-001	3.57890E+000	9	...........
	2	0.04	8.22021E-001	-9.82071E-005	0.00000E+000	-8.07283E-005	-5.99601E-002	8.22332E-001	3.57890E+000	9	...........
	3	0.053333	8.09463E-001	-9.94406E-005	0.00000E+000	-8.04935E-005	-5.99601E-002	8.09763E-001	3.57890E+000	9	...........
	4	0.066667	7.97336E-001	-9.84925E-005	0.00000E+000	-7.85317E-005	-5.99601E-002	7.97642E-001	3.57890E+000	9	...........
	5	0.08	7.85486E-001	-9.87040E-005	0.00000E+000	-7.75306E-005	-5.99601E-002	7.85765E-001	3.57890E+000	9	...........
	6	0.093333	7.73856E-001	-9.92427E-005	0.00000E+000	-7.67996E-005	-5.99601E-002	7.74122E-001	3.57890E+000	9	...........
	7	0.106667	7.62377E-001	-9.84779E-005	0.00000E+000	-7.50773E-005	-5.99601E-002	7.62640E-001	3.57890E+000	9	...........
	8	0.12	7.51030E-001	-9.77799E-005	0.00000E+000	-7.34357E-005	-5.99601E-002	7.51312E-001	3.57890E+000	9	...........
	9	0.133333	7.39749E-001	-9.78611E-005	0.00000E+000	-7.23926E-005	-5.99601E-002	7.40044E-001	3.57890E+000	9	...........
	10	0.146667	7.28589E-001	-9.86978E-005	0.00000E+000	-7.19102E-005	-5.99601E-002	7.28864E-001	3.57890E+000	9	...........
	11	0.16	7.17444E-001	-9.86030E-005	0.00000E+000	-7.07421E-005	-5.99601E-002	7.17745E-001	3.57890E+000	9	...........
	12	0.173333	7.06370E-001	-9.91114E-005	0.00000E+000	-7.00093E-005	-5.99601E-002	7.06641E-001	3.57890E+000	9	...........
	13	0.186667	6.95308E-001	-9.96042E-005	0.00000E+000	-6.92557E-005	-5.99601E-002	6.95623E-001	3.57890E+000	9	...........
	14	0.2	6.84309E-001	-9.95532E-005	0.00000E+000	-6.81252E-005	-5.99601E-002	6.84594E-001	3.57890E+000	9	...........
	15	0.213333	6.73337E-001	-9.90906E-005	0.00000E+000	-6.67213E-005	-5.99601E-002	6.73627E-001	3.57890E+000	9	...........
	16	0.226667	6.62359E-001	-9.89364E-005	0.00000E+000	-6.55314E-005	-5.99601E-002	6.62645E-001	3.57890E+000	9	...........
	17	0.24	6.51406E-001	-9.87426E-005	0.00000E+000	-6.43215E-005	-5.99601E-002	6.51688E-001	3.57890E+000	9	...........
	18	0.253333	6.40481E-001	-9.82091E-005	0.00000E+000	-6.29011E-005	-5.99601E-002	6.40763E-001	3.57890E+000	9	...........
	19	0.266667	6.29567E-001	-9.92979E-005	0.00000E+000	-6.25146E-005	-5.99601E-002	6.29826E-001	3.57890E+000	9	...........
	20	0.28	6.18688E-001	-9.89187E-005	0.00000E+000	-6.11997E-005	-5.99601E-002	6.18944E-001	3.57890E+000	9	...........
	21	0.293333	6.07751E-001	-9.89447E-005	0.00000E+000	-6.01337E-005	-5.99601E-002	6.08046E-001	3.57890E+000	9	...........
	22	0.306667	5.96926E-001	-9.86936E-005	0.00000E+000	-5.89128E-005	-5.99601E-002	5.97218E-001	3.57890E+000	9	...........
	23	0.32	5.86088E-001	-9.89562E-005	0.00000E+000	-5.79970E-005	-5.99601E-002	5.86366E-001	3.57890E+000	9	...........
	24	0.333333	5.75288E-001	-9.79726E-005	0.00000E+000	-5.63625E-005	-5.99601E-002	5.75556E-001	3.57890E+000	9	...........
	25	0.346667	5.64511E-001	-9.89374E-005	0.00000E+000	-5.58513E-005	-5.99601E-002	5.64798E-001	3.57890E+000	9	...........
	26	0.36	5.53742E-001	-9.86863E-005	0.00000E+000	-5.46468E-005	-5.99601E-002	5.53997E-001	3.57890E+000	9	...........
	27	0.373333	5.43017E-001	-9.88853E-005	0.00000E+000	-5.36964E-005	-5.99601E-002	5.43287E-001	3.57890E+000	9	...........
	28	0.386667	5.32313E-001	-9.83685E-005	0.00000E+000	-5.23629E-005	-5.99601E-002	5.32576E-001	3.57890E+000	9	...........
	29	0.4	5.21667E-001	-9.89009E-005	0.00000E+000	-5.15933E-005	-5.99601E-002	5.21925E-001	3.57890E+000	9	...........
	30	0.413333	5.11062E-001	-9.87624E-005	0.00000E+000	-5.04737E-005	-5.99601E-002	5.11321E-001	3.57890E+000	9	...........
	31	0.426667	5.00483E-001	-9.89801E-005	0.00000E+000	-4.95378E-005	-5.99601E-002	5.00743E-001	3.57890E+000	9	...........
	32	0.44	4.89989E-001	-9.86103E-005	0.00000E+000	-4.83179E-005	-5.99601E-002	4.90236E-001	3.57890E+000	9	...........
	33	0.453333	4.79877E-001	-9.97355E-005	0.00000E+000	-4.78607E-005	-5.99601E-002	4.79953E-001	3.57890E+000	9	...........
	34	0.466667	4.69472E-001	-9.82967E-005	0.00000E+000	-4.61475E-005	-5.99601E-002	4.69568E-001	3.57890E+000	9	...........
	35	0.48	4.59116E-001	-9.90051E-005	0.00000E+000	-4.54548E-005	-5.99601E-002	4.59212E-001	3.57890E+000	9	...........
	36	0.493333	4.48816E-001	-9.98418E-005	0.00000E+000	-4.48106E-005	-5.99601E-002	4.48912E-001	3.57890E+000	9	...........
	37	0.506667	4.38575E-001	-9.82466E-005	0.00000E+000	-4.30885E-005	-5.99601E-002	4.38674E-001	3.57890E+000	9	...........
	38	0.52	4.28400E-001	-9.84394E-005	0.00000E+000	-4.21714E-005	-5.99601E-002	4.28492E-001	3.57890E+000	9	...........
	39	0.533333	4.18282E-001	-9.86915E-005	0.00000E+000	-4.12809E-005	-5.99601E-002	4.18367E-001	3.57890E+000	9	...........
	40	0.546667	4.08224E-001	-9.88676E-005	0.00000E+000	-4.03601E-005	-5.99601E-002	4.08304E-001	3.57890E+000	9	...........
	41	0.56	3.98234E-001	-9.94354E-005	0.00000E+000	-3.95986E-005	-5.99601E-002	3.98307E-001	3.57890E+000	9	...........
	42	0.573333	3.88300E-001	-9.84873E-005	0.00000E+000	-3.82426E-005	-5.99601E-002	3.88369E-001	3.57890E+000	9	...........
	43	0.586667	3.78416E-001	-9.90854E-005	0.00000E+000	-3.74955E-005	-5.99601E-002	3.78495E-001	3.57890E+000	9	...........
	44	0.6	3.68601E-001	-9.89728E-005	0.00000E+000	-3.64815E-005	-5.99601E-002	3.68676E-001	3.57890E+000	9	...........
	45	0.613333	3.58848E-001	-9.87822E-005	0.00000E+000	-3.54478E-005	-5.99601E-002	3.58911E-001	3.57890E+000	9	...........
	46	0.626667	3.49145E-001	-9.86123E-005	0.00000E+000	-3.44300E-005	-5.99601E-002	3.49212E-001	3.57890E+000	9	...........
	47	0.64	3.39498E-001	-9.88916E-005	0.00000E+000	-3.35735E-005	-5.99601E-002	3.39562E-001	3.57890E+000	9	...........
	48	0.653333	3.29906E-001	-9.90541E-005	0.00000E+000	-3.26785E-005	-5.99601E-002	3.29968E-001	3.57890E+000	9	...........
	49	0.666667	3.20368E-001	-9.94688E-005	0.00000E+000	-3.18666E-005	-5.99601E-002	3.20429E-001	3.57890E+000	9	...........
	50	0.68	3.10875E-001	-9.97157E-005	0.00000E+000	-3.09991E-005	-5.99601E-002	3.10935E-001	3.57890E+000	9	...........
	51	0.693333	3.01438E-001	-9.94959E-005	0.00000E+000	-2.99918E-005	-5.99601E-002	3.01495E-001	3.57890E+000	9	...........
	52	0.706667	2.92050E-001	-9.83967E-005	0.00000E+000	-2.87367E-005	-5.99601E-002	2.92099E-001	3.57890E+000	9	...........
	53	0.72	2.82705E-001	-9.96615E-005	0.00000E+000	-2.81748E-005	-5.99601E-002	2.82761E-001	3.57890E+000	9	...........
	54	0.733333	2.73413E-001	-9.90374E-005	0.00000E+000	-2.70781E-005	-5.99601E-002	2.73457E-001	3.57890E+000	9	...........
	55	0.746667	2.64155E-001	-9.84727E-005	0.00000E+000	-2.60121E-005	-5.99601E-002	2.64209E-001	3.57890E+000	9	...........
	56	0.76	2.54954E-001	-9.76882E-005	0.00000E+000	-2.49060E-005	-5.99601E-002	2.54993E-001	3.57890E+000	9	...........
	57	0.773333	2.45794E-001	-9.85926E-005	0.00000E+000	-2.42335E-005	-5.99601E-002	2.45833E-001	3.57890E+000	9	...........
	58	0.786667	2.36674E-001	-9.87978E-005	0.00000E+000	-2.33829E-005	-5.99601E-002	2.36714E-001	3.57890E+000	9	...........
	59	0.8	2.27606E-001	-9.88884E-005	0.00000E+000	-2.25076E-005	-5.99601E-002	2.27642E-001	3.57890E+000	9	...........
	60	0.813333	2.18583E-001	-9.77715E-005	0.00000E+000	-2.13712E-005	-5.99601E-002	2.18619E-001	3.57890E+000	9	...........
	61	0.826667	2.09609E-001	-9.97365E-005	0.00000E+000	-2.09057E-005	-5.99601E-002	2.09640E-001	3.57890E+000	9	...........
	62	0.84	2.00678E-001	-9.83331E-005	0.00000E+000	-1.97333E-005	-5.99601E-002	2.00713E-001	3.57890E+000	9	...........
	63	0.853333	1.91803E-001	-9.84342E-005	0.00000E+000	-1.88800E-005	-5.99601E-002	1.91837E-001	3.57890E+000	9	...........
	64	0.866667	1.82981E-001	-9.87780E-005	0.00000E+000	-1.80745E-005	-5.99601E-002	1.83014E-001	3.57890E+000	9	...........
	65	0.88	1.74215E-001	-9.89603E-005	0.00000E+000	-1.72404E-005	-5.99601E-002	1.74247E-001	3.57890E+000	9	...........
	66	0.893333	1.65515E-001	-9.84029E-005	0.00000E+000	-1.62871E-005	-5.99601E-002	1.65539E-001	3.57890E+000	9	...........
	67	0.906667	1.56872E-001	-9.87874E-005	0.00000E+000	-1.54969E-005	-5.99601E-002	1.56889E-001	3.57890E+000	9	...........
	68	0.92	1.48290E-001	-9.94938E-005	0.00000E+000	-1.47539E-005	-5.99601E-002	1.48308E-001	3.57890E+000	9	...........
	69	0.933333	1.39777E-001	-9.83133E-005	0.00000E+000	-1.37420E-005	-5.99601E-002	1.39791E-001	3.57890E+000	9	...........
	70	0.946667	1.31329E-001	-9.87342E-005	0.00000E+000	-1.29667E-005	-5.99601E-002	1.31340E-001	3.57890E+000	9	...........
	71	0.96	1.22952E-001	-9.87426E-005	0.00000E+000	-1.21406E-005	-5.99601E-002	1.22963E-001	3.57890E+000	9	...........
	72	0.97333	1.14640E-001	-9.92729E-005	0.00000E+000	-1.13806E-005	-5.99601E-002	1.14652E-001	3.57890E+000	9	...........
	73	0.98667	1.06404E-001	-9.89385E-005	0.00000E+000	-1.05275E-005	-5.99601E-002	1.06420E-001	3.57890E+000	9	...........
	74	1	9.82408E-002	-9.85363E-005	0.00000E+000	-9.68028E-006	-5.99601E-002	9.82522E-002	3.57890E+000	9	...........
	75	1.01333	9.01507E-002	-9.86238E-005	0.00000E+000	-8.89101E-006	-5.99601E-002	9.01556E-002	3.57890E+000	9	...........
	76	1.02667	8.21308E-002	-9.93417E-005	0.00000E+000	-8.15901E-006	-5.99601E-002	8.21364E-002	3.57890E+000	9	...........
	77	1.04	7.41847E-002	-9.85238E-005	0.00000E+000	-7.30896E-006	-5.99601E-002	7.41904E-002	3.57890E+000	9	...........
	78	1.05333	6.63071E-002	-9.91927E-005	0.00000E+000	-6.57718E-006	-5.99601E-002	6.63090E-002	3.57890E+000	9	...........
	79	1.06667	5.84981E-002	-9.96282E-005	0.00000E+000	-5.82806E-006	-5.99601E-002	5.84988E-002	3.57890E+000	9	...........
	80	1.08	5.07686E-002	-9.89322E-005	0.00000E+000	-5.02265E-006	-5.99601E-002	5.07612E-002	3.57890E+000	9	...........
	81	1.09333	4.31303E-002	-9.85686E-005	0.00000E+000	-4.25130E-006	-5.99601E-002	4.31285E-002	3.57890E+000	9	...........
	82	1.10667	3.55351E-002	-9.88968E-005	0.00000E+000	-3.51431E-006	-5.99601E-002	3.55220E-002	3.57890E+000	9	...........
	83	1.12	2.80004E-002	-9.88478E-005	0.00000E+000	-2.76778E-006	-5.99601E-002	2.79841E-002	3.57890E+000	9	...........
	84	1.13333	2.05318E-002	-9.89718E-005	0.00000E+000	-2.03207E-006	-5.99601E-002	2.05125E-002	3.57890E+000	9	...........
	85	1.14667	1.31313E-002	-9.88832E-005	0.00000E+000	-1.29846E-006	-5.99601E-002	1.30995E-002	3.57890E+000	9	...........
	86	1.16	5.79028E-003	-9.98876E-005	0.00000E+000	-5.78378E-007	-5.99601E-002	5.75587E-003	3.57890E+000	9	...........
	87	1.165	7.79591E-004	-9.97855E-005	0.00000E+000	-7.77919E-008	-5.99601E-002	7.42486E-004	3.57890E+000	9	...........
STARTTIMEOFFSET	QUANT	1245.818	Start Time Offset (s)
