EXPLAIN
TAG	PWR800_DISCHARGE
TITLE	LABEL	PWR Cyclic Charge Discharge (Cell) - Discharge Step	Test &Identifier
DATE	LABEL	13-7-2017	Date
TIME	LABEL	15:51:13	Time
NOTES	NOTES	2	&Notes...
	supercap test cell
	6M KOH
PSTAT	PSTAT	IFC5000-01520	Potentiostat
CAPACITY	QUANT	1.00000E-003	Capacity (A-hr)
CELLTYPE	SELECTOR	1	&Cell Type
WORKINGCONNECTION	SELECTOR	0	&Working Lead
MAXDISCHARGETIME	VARIABLEANDUNITS	1.00000E+002	s	1.00000E+002	second(s)	Max &Discharge Time
DISCHARGEMODE	MULTIPARAM	0	1.00000E-004	&Discharge Mode	Constant Current	Amp(s)
SAMPLETIME	QUANT	1.00000E-002	Sa&mple Period (s)
DISCHARGESTOPAT1	MULTIPARAM	3	0.00000E+000	Discharge Stop At &1	Voltage < Limit	V
DISCHARGESTOPAT2	MULTIPARAM	0	0.00000E+000	Discharge Stop At &2	None	N/A
AESBHCSELECTOR	TOGGLE	F	Save Both Half Cells
IRCOMP	TOGGLE	F	IR &Measure
EOC	QUANT	0	Open Circuit (V)
SEQUENCER	TOGGLE	TRUE	Run as Sequence
PSTATMODEL	IQUANT	53	Pstat Model
PSTATSECTION	LABEL	IFC5000-01520	Pstat Section
PSTATSERIALNO	LABEL	01520	Pstat Serial Number
CTRLMODE	IQUANT	0	Control Mode
ELECTROMETER	IQUANT	1	RE=0 or CS=1
IESTAB	IQUANT	0	I/E Stability
CASPEED	IQUANT	4	Control Amp Speed
CONVENTION	IQUANT	1	Current Convention
ICHRANGE	IQUANT	2	Ich Range
ICHRANGEMODE	TOGGLE	T	Ich Auto Range
ICHOFFSETENABLE	TOGGLE	F	Ich Offset Enable
ICHOFFSET	QUANT	0	Ich Offset (V)
ICHFILTER	IQUANT	1	Ich Filter
VCHRANGE	IQUANT	2	Vch Range
VCHRANGEMODE	TOGGLE	T	Vch Auto Range
VCHOFFSETENABLE	TOGGLE	F	Vch Offset Enable
VCHOFFSET	QUANT	0	Vch Offset (V)
VCHFILTER	IQUANT	1	Vch Filter
IERANGELOWERLIMIT	IQUANT	9	I/E Range Lower Limit
IERANGEMODE	TOGGLE	F	I/E AutoRange
IERANGE	IQUANT	9	I/E Range
ACHSELECT	IQUANT	1	Ach Select
ACHRANGE	IQUANT	2	Ach Range
ACHOFFSETENABLE	TOGGLE	F	Ach Offset Enable
ACHOFFSET	QUANT	0	Ach Offset (V)
ACHFILTER	IQUANT	1	Ach Filter
CABLEID	IQUANT	14	Cable ID
DCCALDATE	LABEL	5-7-2017	DC Calibration Date
ACCALDATE	LABEL	12/3/2015	AC Calibration Date
FRAMEWORKVERSION	QUANT	7.01	Framework Version
INSTRUMENTVERSION	LABEL	4.00	Instrument Version
CURVE	TABLE	86
	Pt	T	Vf	Im	Vu	Pwr	Sig	Ach	Temp	IERange	Over
	#	s	V	A	V	W	V	V	deg C	#	bits
	0	0.013333	8.46235E-001	-9.83613E-005	0.00000E+000	-8.32368E-005	-5.99601E-002	8.46588E-001	3.57940E+000	9	...........
	1	0.026667	8.31964E-001	-9.90687E-005	0.00000E+000	-8.24216E-005	-5.99601E-002	8.32292E-001	3.57940E+000	9	...........
	2	0.04	8.18519E-001	-9.88666E-005	0.00000E+000	-8.09242E-005	-5.99601E-002	8.18857E-001	3.57940E+000	9	...........
	3	0.053333	8.05642E-001	-9.89103E-005	0.00000E+000	-7.96863E-005	-5.99601E-002	8.05937E-001	3.57940E+000	9	...........
	4	0.066667	7.93120E-001	-9.89864E-005	0.00000E+000	-7.85080E-005	-5.99601E-002	7.93436E-001	3.57940E+000	9	...........
	5	0.08	7.80892E-001	-9.97397E-005	0.00000E+000	-7.78860E-005	-5.99601E-002	7.81205E-001	3.57940E+000	9	...........
	6	0.093333	7.68884E-001	-9.92010E-005	0.00000E+000	-7.62741E-005	-5.99601E-002	7.69181E-001	3.57940E+000	9	...........
	7	0.106667	7.57006E-001	-9.92396E-005	0.00000E+000	-7.51250E-005	-5.99601E-002	7.57320E-001	3.57940E+000	9	...........
	8	0.12	7.45258E-001	-9.85561E-005	0.00000E+000	-7.34497E-005	-5.99601E-002	7.45556E-001	3.57940E+000	9	...........
	9	0.133333	7.33596E-001	-9.87978E-005	0.00000E+000	-7.24777E-005	-5.99601E-002	7.33879E-001	3.57940E+000	9	...........
	10	0.146667	7.21992E-001	-9.88291E-005	0.00000E+000	-7.13538E-005	-5.99601E-002	7.22271E-001	3.57940E+000	9	...........
	11	0.16	7.10423E-001	-9.90062E-005	0.00000E+000	-7.03362E-005	-5.99601E-002	7.10695E-001	3.57940E+000	9	...........
	12	0.173333	6.98935E-001	-9.93563E-005	0.00000E+000	-6.94435E-005	-5.99601E-002	6.99187E-001	3.57940E+000	9	...........
	13	0.186667	6.87476E-001	-9.86280E-005	0.00000E+000	-6.78043E-005	-5.99601E-002	6.87708E-001	3.57940E+000	9	...........
	14	0.2	6.76059E-001	-9.94792E-005	0.00000E+000	-6.72538E-005	-5.99601E-002	6.76268E-001	3.57940E+000	9	...........
	15	0.213333	6.64623E-001	-9.84154E-005	0.00000E+000	-6.54092E-005	-5.99601E-002	6.64845E-001	3.57940E+000	9	...........
	16	0.226667	6.53239E-001	-9.96126E-005	0.00000E+000	-6.50708E-005	-5.99601E-002	6.53466E-001	3.57940E+000	9	...........
	17	0.24	6.41865E-001	-9.92364E-005	0.00000E+000	-6.36964E-005	-5.99601E-002	6.42083E-001	3.57940E+000	9	...........
	18	0.253333	6.30517E-001	-9.87988E-005	0.00000E+000	-6.22943E-005	-5.99601E-002	6.30712E-001	3.57940E+000	9	...........
	19	0.266667	6.19215E-001	-9.89791E-005	0.00000E+000	-6.12894E-005	-5.99601E-002	6.19402E-001	3.57940E+000	9	...........
	20	0.28	6.07867E-001	-9.86113E-005	0.00000E+000	-5.99426E-005	-5.99601E-002	6.08117E-001	3.57940E+000	9	...........
	21	0.293333	5.96607E-001	-9.83717E-005	0.00000E+000	-5.86892E-005	-5.99601E-002	5.96858E-001	3.57940E+000	9	...........
	22	0.306667	5.85344E-001	-9.97417E-005	0.00000E+000	-5.83832E-005	-5.99601E-002	5.85613E-001	3.57940E+000	9	...........
	23	0.32	5.74149E-001	-9.92062E-005	0.00000E+000	-5.69591E-005	-5.99601E-002	5.74386E-001	3.57940E+000	9	...........
	24	0.333333	5.62963E-001	-9.89822E-005	0.00000E+000	-5.57234E-005	-5.99601E-002	5.63252E-001	3.57940E+000	9	...........
	25	0.346667	5.51827E-001	-9.80164E-005	0.00000E+000	-5.40881E-005	-5.99601E-002	5.52080E-001	3.57940E+000	9	...........
	26	0.36	5.40725E-001	-9.93115E-005	0.00000E+000	-5.37002E-005	-5.99601E-002	5.41001E-001	3.57940E+000	9	...........
	27	0.373333	5.29695E-001	-9.81862E-005	0.00000E+000	-5.20087E-005	-5.99601E-002	5.29940E-001	3.57940E+000	9	...........
	28	0.386667	5.18694E-001	-9.84998E-005	0.00000E+000	-5.10913E-005	-5.99601E-002	5.18940E-001	3.57940E+000	9	...........
	29	0.4	5.07733E-001	-9.85801E-005	0.00000E+000	-5.00523E-005	-5.99601E-002	5.07986E-001	3.57940E+000	9	...........
	30	0.413333	4.96856E-001	-9.89416E-005	0.00000E+000	-4.91597E-005	-5.99601E-002	4.97096E-001	3.57940E+000	9	...........
	31	0.426667	4.86165E-001	-9.90583E-005	0.00000E+000	-4.81587E-005	-5.99601E-002	4.86335E-001	3.57940E+000	9	...........
	32	0.44	4.75635E-001	-9.91249E-005	0.00000E+000	-4.71473E-005	-5.99601E-002	4.75733E-001	3.57940E+000	9	...........
	33	0.453333	4.64933E-001	-9.92333E-005	0.00000E+000	-4.61368E-005	-5.99601E-002	4.65028E-001	3.57940E+000	9	...........
	34	0.466667	4.54296E-001	-9.96594E-005	0.00000E+000	-4.52749E-005	-5.99601E-002	4.54391E-001	3.57940E+000	9	...........
	35	0.48	4.43733E-001	-9.89530E-005	0.00000E+000	-4.39088E-005	-5.99601E-002	4.43825E-001	3.57940E+000	9	...........
	36	0.493333	4.33236E-001	-9.92844E-005	0.00000E+000	-4.30136E-005	-5.99601E-002	4.33323E-001	3.57940E+000	9	...........
	37	0.506667	4.22806E-001	-9.86957E-005	0.00000E+000	-4.17291E-005	-5.99601E-002	4.22895E-001	3.57940E+000	9	...........
	38	0.52	4.12463E-001	-9.85519E-005	0.00000E+000	-4.06490E-005	-5.99601E-002	4.12547E-001	3.57940E+000	9	...........
	39	0.533333	4.02187E-001	-9.85186E-005	0.00000E+000	-3.96229E-005	-5.99601E-002	4.02262E-001	3.57940E+000	9	...........
	40	0.546667	3.91977E-001	-9.83050E-005	0.00000E+000	-3.85333E-005	-5.99601E-002	3.92052E-001	3.57940E+000	9	...........
	41	0.56	3.81841E-001	-9.93448E-005	0.00000E+000	-3.79339E-005	-5.99601E-002	3.81908E-001	3.57940E+000	9	...........
	42	0.573333	3.71772E-001	-9.90343E-005	0.00000E+000	-3.68182E-005	-5.99601E-002	3.71834E-001	3.57940E+000	9	...........
	43	0.586667	3.61763E-001	-9.93344E-005	0.00000E+000	-3.59355E-005	-5.99601E-002	3.61833E-001	3.57940E+000	9	...........
	44	0.6	3.51828E-001	-9.86905E-005	0.00000E+000	-3.47221E-005	-5.99601E-002	3.51895E-001	3.57940E+000	9	...........
	45	0.613333	3.41950E-001	-9.85519E-005	0.00000E+000	-3.36998E-005	-5.99601E-002	3.42015E-001	3.57931E+000	9	...........
	46	0.626667	3.32136E-001	-9.84196E-005	0.00000E+000	-3.26887E-005	-5.99601E-002	3.32198E-001	3.57870E+000	9	...........
	47	0.64	3.22386E-001	-1.00132E-004	0.00000E+000	-3.22813E-005	-5.99601E-002	3.22446E-001	3.57870E+000	9	...........
	48	0.653333	3.12693E-001	-9.79841E-005	0.00000E+000	-3.06389E-005	-5.99601E-002	3.12755E-001	3.57870E+000	9	...........
	49	0.666667	3.03051E-001	-9.92427E-005	0.00000E+000	-3.00756E-005	-5.99601E-002	3.03113E-001	3.57870E+000	9	...........
	50	0.68	2.93473E-001	-9.90197E-005	0.00000E+000	-2.90596E-005	-5.99601E-002	2.93525E-001	3.57870E+000	9	...........
	51	0.693333	2.83944E-001	-9.86884E-005	0.00000E+000	-2.80220E-005	-5.99601E-002	2.84000E-001	3.57870E+000	9	...........
	52	0.706667	2.74470E-001	-9.90051E-005	0.00000E+000	-2.71739E-005	-5.99601E-002	2.74523E-001	3.57870E+000	9	...........
	53	0.72	2.65048E-001	-9.83581E-005	0.00000E+000	-2.60696E-005	-5.99601E-002	2.65096E-001	3.57870E+000	9	...........
	54	0.733333	2.55679E-001	-9.84998E-005	0.00000E+000	-2.51843E-005	-5.99601E-002	2.55723E-001	3.57870E+000	9	...........
	55	0.746667	2.46361E-001	-9.90968E-005	0.00000E+000	-2.44136E-005	-5.99601E-002	2.46410E-001	3.57870E+000	9	...........
	56	0.76	2.37097E-001	-9.94896E-005	0.00000E+000	-2.35887E-005	-5.99601E-002	2.37140E-001	3.57870E+000	9	...........
	57	0.773333	2.27889E-001	-9.81383E-005	0.00000E+000	-2.23647E-005	-5.99601E-002	2.27927E-001	3.57870E+000	9	...........
	58	0.786667	2.18735E-001	-9.89926E-005	0.00000E+000	-2.16532E-005	-5.99601E-002	2.18770E-001	3.57870E+000	9	...........
	59	0.8	2.09634E-001	-9.97188E-005	0.00000E+000	-2.09045E-005	-5.99601E-002	2.09659E-001	3.57870E+000	9	...........
	60	0.813333	2.00586E-001	-9.81289E-005	0.00000E+000	-1.96833E-005	-5.99601E-002	2.00623E-001	3.57870E+000	9	...........
	61	0.826667	1.91605E-001	-9.88905E-005	0.00000E+000	-1.89479E-005	-5.99601E-002	1.91634E-001	3.57870E+000	9	...........
	62	0.84	1.82679E-001	-9.90739E-005	0.00000E+000	-1.80987E-005	-5.99601E-002	1.82711E-001	3.57870E+000	9	...........
	63	0.853333	1.73817E-001	-9.86019E-005	0.00000E+000	-1.71387E-005	-5.99601E-002	1.73843E-001	3.57870E+000	9	...........
	64	0.866667	1.65026E-001	-9.95344E-005	0.00000E+000	-1.64258E-005	-5.99601E-002	1.65049E-001	3.57870E+000	9	...........
	65	0.88	1.56310E-001	-9.93813E-005	0.00000E+000	-1.55343E-005	-5.99601E-002	1.56325E-001	3.57870E+000	9	...........
	66	0.893333	1.47657E-001	-9.85759E-005	0.00000E+000	-1.45554E-005	-5.99601E-002	1.47672E-001	3.57870E+000	9	...........
	67	0.906667	1.39069E-001	-9.87572E-005	0.00000E+000	-1.37341E-005	-5.99601E-002	1.39091E-001	3.57870E+000	9	...........
	68	0.92	1.30573E-001	-9.84384E-005	0.00000E+000	-1.28534E-005	-5.99601E-002	1.30588E-001	3.57870E+000	9	...........
	69	0.933333	1.22138E-001	-1.00156E-004	0.00000E+000	-1.22329E-005	-5.99601E-002	1.22151E-001	3.57870E+000	9	...........
	70	0.946667	1.13784E-001	-9.91333E-005	0.00000E+000	-1.12797E-005	-5.99601E-002	1.13793E-001	3.57870E+000	9	...........
	71	0.96	1.05510E-001	-9.88238E-005	0.00000E+000	-1.04269E-005	-5.99601E-002	1.05519E-001	3.57870E+000	9	...........
	72	0.97333	9.73084E-002	-9.90593E-005	0.00000E+000	-9.63930E-006	-5.99601E-002	9.73190E-002	3.57870E+000	9	...........
	73	0.98667	8.91872E-002	-9.82519E-005	0.00000E+000	-8.76281E-006	-5.99601E-002	8.91943E-002	3.57870E+000	9	...........
	74	1	8.11419E-002	-9.96459E-005	0.00000E+000	-8.08546E-006	-5.99601E-002	8.11449E-002	3.57870E+000	9	...........
	75	1.01333	7.31640E-002	-9.89030E-005	0.00000E+000	-7.23614E-006	-5.99601E-002	7.31680E-002	3.57870E+000	9	...........
	76	1.02667	6.52668E-002	-9.90822E-005	0.00000E+000	-6.46678E-006	-5.99601E-002	6.52629E-002	3.57870E+000	9	...........
	77	1.04	5.74332E-002	-9.86988E-005	0.00000E+000	-5.66858E-006	-5.99601E-002	5.74294E-002	3.57870E+000	9	...........
	78	1.05333	4.96800E-002	-9.89655E-005	0.00000E+000	-4.91661E-006	-5.99601E-002	4.96763E-002	3.57870E+000	9	...........
	79	1.06667	4.20184E-002	-9.91896E-005	0.00000E+000	-4.16779E-006	-5.99601E-002	4.20064E-002	3.57870E+000	9	...........
	80	1.08	3.43909E-002	-9.96584E-005	0.00000E+000	-3.42735E-006	-5.99601E-002	3.43759E-002	3.57870E+000	9	...........
	81	1.09333	2.68385E-002	-9.92271E-005	0.00000E+000	-2.66311E-006	-5.99601E-002	2.68183E-002	3.57870E+000	9	...........
	82	1.10667	1.93487E-002	-9.84415E-005	0.00000E+000	-1.90472E-006	-5.99601E-002	1.93257E-002	3.57870E+000	9	...........
	83	1.12	1.19301E-002	-9.90739E-005	0.00000E+000	-1.18196E-006	-5.99601E-002	1.19043E-002	3.57870E+000	9	...........
	84	1.13333	4.58019E-003	-9.85467E-005	0.00000E+000	-4.51363E-007	-5.99601E-002	4.54505E-003	3.57870E+000	9	...........
	85	1.13667	1.36807E-005	-9.91395E-005	0.00000E+000	-1.35630E-009	-5.99601E-002	-2.15678E-005	3.57870E+000	9	...........
STARTTIMEOFFSET	QUANT	2221.901	Start Time Offset (s)
