EXPLAIN
TAG	PWR800_DISCHARGE
TITLE	LABEL	PWR Cyclic Charge Discharge (Cell) - Discharge Step	Test &Identifier
DATE	LABEL	13-7-2017	Date
TIME	LABEL	15:34:23	Time
NOTES	NOTES	2	&Notes...
	supercap test cell
	6M KOH
PSTAT	PSTAT	IFC5000-01520	Potentiostat
CAPACITY	QUANT	1.00000E-003	Capacity (A-hr)
CELLTYPE	SELECTOR	1	&Cell Type
WORKINGCONNECTION	SELECTOR	0	&Working Lead
MAXDISCHARGETIME	VARIABLEANDUNITS	1.00000E+002	s	1.00000E+002	second(s)	Max &Discharge Time
DISCHARGEMODE	MULTIPARAM	0	1.00000E-004	&Discharge Mode	Constant Current	Amp(s)
SAMPLETIME	QUANT	1.00000E-002	Sa&mple Period (s)
DISCHARGESTOPAT1	MULTIPARAM	3	0.00000E+000	Discharge Stop At &1	Voltage < Limit	V
DISCHARGESTOPAT2	MULTIPARAM	0	0.00000E+000	Discharge Stop At &2	None	N/A
AESBHCSELECTOR	TOGGLE	F	Save Both Half Cells
IRCOMP	TOGGLE	F	IR &Measure
EOC	QUANT	0	Open Circuit (V)
SEQUENCER	TOGGLE	TRUE	Run as Sequence
PSTATMODEL	IQUANT	53	Pstat Model
PSTATSECTION	LABEL	IFC5000-01520	Pstat Section
PSTATSERIALNO	LABEL	01520	Pstat Serial Number
CTRLMODE	IQUANT	0	Control Mode
ELECTROMETER	IQUANT	1	RE=0 or CS=1
IESTAB	IQUANT	0	I/E Stability
CASPEED	IQUANT	4	Control Amp Speed
CONVENTION	IQUANT	1	Current Convention
ICHRANGE	IQUANT	2	Ich Range
ICHRANGEMODE	TOGGLE	T	Ich Auto Range
ICHOFFSETENABLE	TOGGLE	F	Ich Offset Enable
ICHOFFSET	QUANT	0	Ich Offset (V)
ICHFILTER	IQUANT	1	Ich Filter
VCHRANGE	IQUANT	2	Vch Range
VCHRANGEMODE	TOGGLE	T	Vch Auto Range
VCHOFFSETENABLE	TOGGLE	F	Vch Offset Enable
VCHOFFSET	QUANT	0	Vch Offset (V)
VCHFILTER	IQUANT	1	Vch Filter
IERANGELOWERLIMIT	IQUANT	9	I/E Range Lower Limit
IERANGEMODE	TOGGLE	F	I/E AutoRange
IERANGE	IQUANT	9	I/E Range
ACHSELECT	IQUANT	1	Ach Select
ACHRANGE	IQUANT	2	Ach Range
ACHOFFSETENABLE	TOGGLE	F	Ach Offset Enable
ACHOFFSET	QUANT	0	Ach Offset (V)
ACHFILTER	IQUANT	1	Ach Filter
CABLEID	IQUANT	14	Cable ID
DCCALDATE	LABEL	5-7-2017	DC Calibration Date
ACCALDATE	LABEL	12/3/2015	AC Calibration Date
FRAMEWORKVERSION	QUANT	7.01	Framework Version
INSTRUMENTVERSION	LABEL	4.00	Instrument Version
CURVE	TABLE	87
	Pt	T	Vf	Im	Vu	Pwr	Sig	Ach	Temp	IERange	Over
	#	s	V	A	V	W	V	V	deg C	#	bits
	0	0.013333	8.48999E-001	-9.86728E-005	0.00000E+000	-8.37731E-005	-5.99601E-002	8.49274E-001	3.57980E+000	9	...........
	1	0.026667	8.34855E-001	-9.85300E-005	0.00000E+000	-8.22583E-005	-5.99601E-002	8.35158E-001	3.57980E+000	9	...........
	2	0.04	8.21606E-001	-9.90114E-005	0.00000E+000	-8.13484E-005	-5.99601E-002	8.21902E-001	3.57980E+000	9	...........
	3	0.053333	8.08905E-001	-9.87884E-005	0.00000E+000	-7.99105E-005	-5.99601E-002	8.09215E-001	3.57980E+000	9	...........
	4	0.066667	7.96633E-001	-9.95032E-005	0.00000E+000	-7.92675E-005	-5.99601E-002	7.96951E-001	3.57980E+000	9	...........
	5	0.08	7.84659E-001	-9.97761E-005	0.00000E+000	-7.82902E-005	-5.99601E-002	7.84944E-001	3.57980E+000	9	...........
	6	0.093333	7.72875E-001	-9.88926E-005	0.00000E+000	-7.64316E-005	-5.99601E-002	7.73142E-001	3.57980E+000	9	...........
	7	0.106667	7.61248E-001	-9.91927E-005	0.00000E+000	-7.55102E-005	-5.99601E-002	7.61515E-001	3.57980E+000	9	...........
	8	0.12	7.49784E-001	-9.80591E-005	0.00000E+000	-7.35231E-005	-5.99601E-002	7.50051E-001	3.57980E+000	9	...........
	9	0.133333	7.38396E-001	-9.91020E-005	0.00000E+000	-7.31765E-005	-5.99601E-002	7.38664E-001	3.57980E+000	9	...........
	10	0.146667	7.27086E-001	-9.94917E-005	0.00000E+000	-7.23391E-005	-5.99601E-002	7.27369E-001	3.57980E+000	9	...........
	11	0.16	7.15812E-001	-9.87113E-005	0.00000E+000	-7.06588E-005	-5.99601E-002	7.16091E-001	3.57980E+000	9	...........
	12	0.173333	7.04608E-001	-9.80081E-005	0.00000E+000	-6.90573E-005	-5.99601E-002	7.04881E-001	3.57980E+000	9	...........
	13	0.186667	6.93435E-001	-9.87092E-005	0.00000E+000	-6.84485E-005	-5.99601E-002	6.93708E-001	3.57980E+000	9	...........
	14	0.2	6.82284E-001	-9.84769E-005	0.00000E+000	-6.71892E-005	-5.99601E-002	6.82559E-001	3.57980E+000	9	...........
	15	0.213333	6.71167E-001	-1.00141E-004	0.00000E+000	-6.72112E-005	-5.99601E-002	6.71453E-001	3.57980E+000	9	...........
	16	0.226667	6.60059E-001	-9.85853E-005	0.00000E+000	-6.50721E-005	-5.99601E-002	6.60339E-001	3.57980E+000	9	...........
	17	0.24	6.49009E-001	-9.87488E-005	0.00000E+000	-6.40889E-005	-5.99601E-002	6.49256E-001	3.57980E+000	9	...........
	18	0.253333	6.37926E-001	-9.96292E-005	0.00000E+000	-6.35561E-005	-5.99601E-002	6.38197E-001	3.57980E+000	9	...........
	19	0.266667	6.26892E-001	-9.89416E-005	0.00000E+000	-6.20257E-005	-5.99601E-002	6.27173E-001	3.57980E+000	9	...........
	20	0.28	6.15869E-001	-9.91312E-005	0.00000E+000	-6.10518E-005	-5.99601E-002	6.16161E-001	3.57980E+000	9	...........
	21	0.293333	6.04826E-001	-9.91229E-005	0.00000E+000	-5.99521E-005	-5.99601E-002	6.05137E-001	3.57980E+000	9	...........
	22	0.306667	5.93907E-001	-9.82800E-005	0.00000E+000	-5.83692E-005	-5.99601E-002	5.94182E-001	3.57980E+000	9	...........
	23	0.32	5.82948E-001	-9.85227E-005	0.00000E+000	-5.74337E-005	-5.99601E-002	5.83216E-001	3.57980E+000	9	...........
	24	0.333333	5.72040E-001	-9.82633E-005	0.00000E+000	-5.62106E-005	-5.99601E-002	5.72300E-001	3.57980E+000	9	...........
	25	0.346667	5.61138E-001	-9.82373E-005	0.00000E+000	-5.51246E-005	-5.99601E-002	5.61411E-001	3.57980E+000	9	...........
	26	0.36	5.50277E-001	-9.90520E-005	0.00000E+000	-5.45061E-005	-5.99601E-002	5.50537E-001	3.57980E+000	9	...........
	27	0.373333	5.39461E-001	-9.94761E-005	0.00000E+000	-5.36634E-005	-5.99601E-002	5.39707E-001	3.57980E+000	9	...........
	28	0.386667	5.28676E-001	-9.94323E-005	0.00000E+000	-5.25674E-005	-5.99601E-002	5.28934E-001	3.57980E+000	9	...........
	29	0.4	5.17955E-001	-9.89510E-005	0.00000E+000	-5.12522E-005	-5.99601E-002	5.18194E-001	3.57980E+000	9	...........
	30	0.413333	5.07245E-001	-9.90385E-005	0.00000E+000	-5.02368E-005	-5.99601E-002	5.07490E-001	3.57980E+000	9	...........
	31	0.426667	4.96585E-001	-9.97699E-005	0.00000E+000	-4.95442E-005	-5.99601E-002	4.96845E-001	3.57980E+000	9	...........
	32	0.44	4.86144E-001	-9.92062E-005	0.00000E+000	-4.82285E-005	-5.99601E-002	4.86319E-001	3.57980E+000	9	...........
	33	0.453333	4.75849E-001	-9.89030E-005	0.00000E+000	-4.70629E-005	-5.99601E-002	4.75954E-001	3.57980E+000	9	...........
	34	0.466667	4.65375E-001	-9.86863E-005	0.00000E+000	-4.59261E-005	-5.99601E-002	4.65476E-001	3.57980E+000	9	...........
	35	0.48	4.54963E-001	-9.88572E-005	0.00000E+000	-4.49764E-005	-5.99601E-002	4.55061E-001	3.57980E+000	9	...........
	36	0.493333	4.44611E-001	-9.81539E-005	0.00000E+000	-4.36404E-005	-5.99601E-002	4.44710E-001	3.57980E+000	9	...........
	37	0.506667	4.34327E-001	-9.89739E-005	0.00000E+000	-4.29871E-005	-5.99601E-002	4.34415E-001	3.57980E+000	9	...........
	38	0.52	4.24105E-001	-9.97240E-005	0.00000E+000	-4.22935E-005	-5.99601E-002	4.24189E-001	3.57980E+000	9	...........
	39	0.533333	4.13942E-001	-9.93437E-005	0.00000E+000	-4.11225E-005	-5.99601E-002	4.14026E-001	3.57980E+000	9	...........
	40	0.546667	4.03847E-001	-9.83185E-005	0.00000E+000	-3.97056E-005	-5.99601E-002	4.03928E-001	3.57980E+000	9	...........
	41	0.56	3.93812E-001	-9.88468E-005	0.00000E+000	-3.89270E-005	-5.99601E-002	3.93892E-001	3.57980E+000	9	...........
	42	0.573333	3.83841E-001	-9.97991E-005	0.00000E+000	-3.83070E-005	-5.99601E-002	3.83914E-001	3.57980E+000	9	...........
	43	0.586667	3.73930E-001	-9.86665E-005	0.00000E+000	-3.68944E-005	-5.99601E-002	3.74000E-001	3.57980E+000	9	...........
	44	0.6	3.64082E-001	-9.84008E-005	0.00000E+000	-3.58259E-005	-5.99601E-002	3.64149E-001	3.57883E+000	9	...........
	45	0.613333	3.54284E-001	-9.85728E-005	0.00000E+000	-3.49227E-005	-5.99601E-002	3.54357E-001	3.57850E+000	9	...........
	46	0.626667	3.44553E-001	-9.83842E-005	0.00000E+000	-3.38985E-005	-5.99601E-002	3.44615E-001	3.57850E+000	9	...........
	47	0.64	3.34876E-001	-9.85488E-005	0.00000E+000	-3.30016E-005	-5.99601E-002	3.34943E-001	3.57850E+000	9	...........
	48	0.653333	3.25266E-001	-9.86884E-005	0.00000E+000	-3.21000E-005	-5.99601E-002	3.25323E-001	3.57850E+000	9	...........
	49	0.666667	3.15697E-001	-9.80851E-005	0.00000E+000	-3.09652E-005	-5.99601E-002	3.15760E-001	3.57850E+000	9	...........
	50	0.68	3.06187E-001	-9.99105E-005	0.00000E+000	-3.05913E-005	-5.99601E-002	3.06246E-001	3.57850E+000	9	...........
	51	0.693333	2.96729E-001	-9.84498E-005	0.00000E+000	-2.92130E-005	-5.99601E-002	2.96787E-001	3.57850E+000	9	...........
	52	0.706667	2.87324E-001	-9.89437E-005	0.00000E+000	-2.84289E-005	-5.99601E-002	2.87378E-001	3.57850E+000	9	...........
	53	0.72	2.77966E-001	-9.88353E-005	0.00000E+000	-2.74728E-005	-5.99601E-002	2.78019E-001	3.57850E+000	9	...........
	54	0.733333	2.68656E-001	-9.84113E-005	0.00000E+000	-2.64388E-005	-5.99601E-002	2.68708E-001	3.57850E+000	9	...........
	55	0.746667	2.59394E-001	-9.86999E-005	0.00000E+000	-2.56022E-005	-5.99601E-002	2.59445E-001	3.57850E+000	9	...........
	56	0.76	2.50181E-001	-9.84706E-005	0.00000E+000	-2.46355E-005	-5.99601E-002	2.50228E-001	3.57850E+000	9	...........
	57	0.773333	2.41020E-001	-9.87020E-005	0.00000E+000	-2.37891E-005	-5.99601E-002	2.41056E-001	3.57850E+000	9	...........
	58	0.786667	2.31896E-001	-9.86540E-005	0.00000E+000	-2.28775E-005	-5.99601E-002	2.31934E-001	3.57850E+000	9	...........
	59	0.8	2.22817E-001	-9.91635E-005	0.00000E+000	-2.20953E-005	-5.99601E-002	2.22854E-001	3.57850E+000	9	...........
	60	0.813333	2.13795E-001	-9.87197E-005	0.00000E+000	-2.11058E-005	-5.99601E-002	2.13832E-001	3.57850E+000	9	...........
	61	0.826667	2.04827E-001	-9.96886E-005	0.00000E+000	-2.04189E-005	-5.99601E-002	2.04858E-001	3.57850E+000	9	...........
	62	0.84	1.95909E-001	-9.91364E-005	0.00000E+000	-1.94217E-005	-5.99601E-002	1.95940E-001	3.57850E+000	9	...........
	63	0.853333	1.87047E-001	-9.92469E-005	0.00000E+000	-1.85638E-005	-5.99601E-002	1.87074E-001	3.57850E+000	9	...........
	64	0.866667	1.78245E-001	-9.83779E-005	0.00000E+000	-1.75353E-005	-5.99601E-002	1.78269E-001	3.57850E+000	9	...........
	65	0.88	1.69496E-001	-9.84081E-005	0.00000E+000	-1.66797E-005	-5.99601E-002	1.69522E-001	3.57850E+000	9	...........
	66	0.893333	1.60820E-001	-9.86686E-005	0.00000E+000	-1.58679E-005	-5.99601E-002	1.60842E-001	3.57850E+000	9	...........
	67	0.906667	1.52207E-001	-9.91875E-005	0.00000E+000	-1.50971E-005	-5.99601E-002	1.52228E-001	3.57850E+000	9	...........
	68	0.92	1.43654E-001	-9.89603E-005	0.00000E+000	-1.42161E-005	-5.99601E-002	1.43677E-001	3.57850E+000	9	...........
	69	0.933333	1.35174E-001	-9.82831E-005	0.00000E+000	-1.32853E-005	-5.99601E-002	1.35195E-001	3.57850E+000	9	...........
	70	0.946667	1.26768E-001	-9.86259E-005	0.00000E+000	-1.25026E-005	-5.99601E-002	1.26781E-001	3.57850E+000	9	...........
	71	0.96	1.18423E-001	-9.88759E-005	0.00000E+000	-1.17092E-005	-5.99601E-002	1.18438E-001	3.57850E+000	9	...........
	72	0.97333	1.10160E-001	-9.84217E-005	0.00000E+000	-1.08422E-005	-5.99601E-002	1.10171E-001	3.57850E+000	9	...........
	73	0.98667	1.01970E-001	-9.92510E-005	0.00000E+000	-1.01206E-005	-5.99601E-002	1.01981E-001	3.57850E+000	9	...........
	74	1	9.38562E-002	-9.90541E-005	0.00000E+000	-9.29684E-006	-5.99601E-002	9.38604E-002	3.57850E+000	9	...........
	75	1.01333	8.58038E-002	-9.98418E-005	0.00000E+000	-8.56680E-006	-5.99601E-002	8.58162E-002	3.57850E+000	9	...........
	76	1.02667	7.78339E-002	-9.94448E-005	0.00000E+000	-7.74018E-006	-5.99601E-002	7.78352E-002	3.57850E+000	9	...........
	77	1.04	6.99345E-002	-9.85780E-005	0.00000E+000	-6.89400E-006	-5.99601E-002	6.99305E-002	3.57850E+000	9	...........
	78	1.05333	6.21026E-002	-9.80977E-005	0.00000E+000	-6.09211E-006	-5.99601E-002	6.20999E-002	3.57850E+000	9	...........
	79	1.06667	5.43408E-002	-9.81800E-005	0.00000E+000	-5.33518E-006	-5.99601E-002	5.43388E-002	3.57850E+000	9	...........
	80	1.08	4.66773E-002	-9.91041E-005	0.00000E+000	-4.62591E-006	-5.99601E-002	4.66718E-002	3.57850E+000	9	...........
	81	1.09333	3.90725E-002	-9.83998E-005	0.00000E+000	-3.84473E-006	-5.99601E-002	3.90611E-002	3.57850E+000	9	...........
	82	1.10667	3.15154E-002	-9.90906E-005	0.00000E+000	-3.12288E-006	-5.99601E-002	3.15001E-002	3.57850E+000	9	...........
	83	1.12	2.40243E-002	-9.83071E-005	0.00000E+000	-2.36176E-006	-5.99601E-002	2.40042E-002	3.57850E+000	9	...........
	84	1.13333	1.65935E-002	-9.81216E-005	0.00000E+000	-1.62818E-006	-5.99601E-002	1.65703E-002	3.57850E+000	9	...........
	85	1.14667	9.23557E-003	-9.89843E-005	0.00000E+000	-9.14176E-007	-5.99601E-002	9.20682E-003	3.57850E+000	9	...........
	86	1.15833	2.39339E-003	-9.94366E-005	0.00000E+000	-2.37991E-007	-5.99601E-002	2.36109E-003	3.57850E+000	9	...........
STARTTIMEOFFSET	QUANT	1464.636	Start Time Offset (s)
