EXPLAIN
TAG	PWR800_DISCHARGE
TITLE	LABEL	PWR Cyclic Charge Discharge (Cell) - Discharge Step	Test &Identifier
DATE	LABEL	13-7-2017	Date
TIME	LABEL	15:31:23	Time
NOTES	NOTES	2	&Notes...
	supercap test cell
	6M KOH
PSTAT	PSTAT	IFC5000-01520	Potentiostat
CAPACITY	QUANT	1.00000E-003	Capacity (A-hr)
CELLTYPE	SELECTOR	1	&Cell Type
WORKINGCONNECTION	SELECTOR	0	&Working Lead
MAXDISCHARGETIME	VARIABLEANDUNITS	1.00000E+002	s	1.00000E+002	second(s)	Max &Discharge Time
DISCHARGEMODE	MULTIPARAM	0	1.00000E-004	&Discharge Mode	Constant Current	Amp(s)
SAMPLETIME	QUANT	1.00000E-002	Sa&mple Period (s)
DISCHARGESTOPAT1	MULTIPARAM	3	0.00000E+000	Discharge Stop At &1	Voltage < Limit	V
DISCHARGESTOPAT2	MULTIPARAM	0	0.00000E+000	Discharge Stop At &2	None	N/A
AESBHCSELECTOR	TOGGLE	F	Save Both Half Cells
IRCOMP	TOGGLE	F	IR &Measure
EOC	QUANT	0	Open Circuit (V)
SEQUENCER	TOGGLE	TRUE	Run as Sequence
PSTATMODEL	IQUANT	53	Pstat Model
PSTATSECTION	LABEL	IFC5000-01520	Pstat Section
PSTATSERIALNO	LABEL	01520	Pstat Serial Number
CTRLMODE	IQUANT	0	Control Mode
ELECTROMETER	IQUANT	1	RE=0 or CS=1
IESTAB	IQUANT	0	I/E Stability
CASPEED	IQUANT	4	Control Amp Speed
CONVENTION	IQUANT	1	Current Convention
ICHRANGE	IQUANT	2	Ich Range
ICHRANGEMODE	TOGGLE	T	Ich Auto Range
ICHOFFSETENABLE	TOGGLE	F	Ich Offset Enable
ICHOFFSET	QUANT	0	Ich Offset (V)
ICHFILTER	IQUANT	1	Ich Filter
VCHRANGE	IQUANT	2	Vch Range
VCHRANGEMODE	TOGGLE	T	Vch Auto Range
VCHOFFSETENABLE	TOGGLE	F	Vch Offset Enable
VCHOFFSET	QUANT	0	Vch Offset (V)
VCHFILTER	IQUANT	1	Vch Filter
IERANGELOWERLIMIT	IQUANT	9	I/E Range Lower Limit
IERANGEMODE	TOGGLE	F	I/E AutoRange
IERANGE	IQUANT	9	I/E Range
ACHSELECT	IQUANT	1	Ach Select
ACHRANGE	IQUANT	2	Ach Range
ACHOFFSETENABLE	TOGGLE	F	Ach Offset Enable
ACHOFFSET	QUANT	0	Ach Offset (V)
ACHFILTER	IQUANT	1	Ach Filter
CABLEID	IQUANT	14	Cable ID
DCCALDATE	LABEL	5-7-2017	DC Calibration Date
ACCALDATE	LABEL	12/3/2015	AC Calibration Date
FRAMEWORKVERSION	QUANT	7.01	Framework Version
INSTRUMENTVERSION	LABEL	4.00	Instrument Version
CURVE	TABLE	88
	Pt	T	Vf	Im	Vu	Pwr	Sig	Ach	Temp	IERange	Over
	#	s	V	A	V	W	V	V	deg C	#	bits
	0	0.013333	8.48251E-001	-9.84811E-005	0.00000E+000	-8.35367E-005	-5.99601E-002	8.48637E-001	3.58000E+000	9	...........
	1	0.026667	8.34240E-001	-9.81998E-005	0.00000E+000	-8.19221E-005	-5.99601E-002	8.34581E-001	3.58000E+000	9	...........
	2	0.04	8.21102E-001	-9.90364E-005	0.00000E+000	-8.13190E-005	-5.99601E-002	8.21410E-001	3.58000E+000	9	...........
	3	0.053333	8.08503E-001	-9.93583E-005	0.00000E+000	-8.03315E-005	-5.99601E-002	8.08788E-001	3.58000E+000	9	...........
	4	0.066667	7.96331E-001	-9.88301E-005	0.00000E+000	-7.87015E-005	-5.99601E-002	7.96605E-001	3.58000E+000	9	...........
	5	0.08	7.84429E-001	-9.88645E-005	0.00000E+000	-7.75521E-005	-5.99601E-002	7.84705E-001	3.58000E+000	9	...........
	6	0.093333	7.72741E-001	-9.80591E-005	0.00000E+000	-7.57743E-005	-5.99601E-002	7.73039E-001	3.58000E+000	9	...........
	7	0.106667	7.61220E-001	-9.88666E-005	0.00000E+000	-7.52592E-005	-5.99601E-002	7.61495E-001	3.58000E+000	9	...........
	8	0.12	7.49835E-001	-9.84946E-005	0.00000E+000	-7.38547E-005	-5.99601E-002	7.50109E-001	3.58000E+000	9	...........
	9	0.133333	7.38528E-001	-9.87572E-005	0.00000E+000	-7.29349E-005	-5.99601E-002	7.38819E-001	3.58000E+000	9	...........
	10	0.146667	7.27314E-001	-9.85405E-005	0.00000E+000	-7.16698E-005	-5.99601E-002	7.27584E-001	3.58000E+000	9	...........
	11	0.16	7.16115E-001	-9.93187E-005	0.00000E+000	-7.11236E-005	-5.99601E-002	7.16411E-001	3.58000E+000	9	...........
	12	0.173333	7.05011E-001	-9.90301E-005	0.00000E+000	-6.98173E-005	-5.99601E-002	7.05269E-001	3.58000E+000	9	...........
	13	0.186667	6.93915E-001	-9.88551E-005	0.00000E+000	-6.85971E-005	-5.99601E-002	6.94209E-001	3.58000E+000	9	...........
	14	0.2	6.82866E-001	-9.84300E-005	0.00000E+000	-6.72145E-005	-5.99601E-002	6.83140E-001	3.58000E+000	9	...........
	15	0.213333	6.71841E-001	-9.91750E-005	0.00000E+000	-6.66298E-005	-5.99601E-002	6.72089E-001	3.58000E+000	9	...........
	16	0.226667	6.60802E-001	-9.87311E-005	0.00000E+000	-6.52417E-005	-5.99601E-002	6.61073E-001	3.58000E+000	9	...........
	17	0.24	6.49803E-001	-9.91823E-005	0.00000E+000	-6.44489E-005	-5.99601E-002	6.50069E-001	3.58000E+000	9	...........
	18	0.253333	6.38836E-001	-9.83894E-005	0.00000E+000	-6.28547E-005	-5.99601E-002	6.39086E-001	3.58000E+000	9	...........
	19	0.266667	6.27872E-001	-9.87134E-005	0.00000E+000	-6.19794E-005	-5.99601E-002	6.28144E-001	3.58000E+000	9	...........
	20	0.28	6.16951E-001	-9.91166E-005	0.00000E+000	-6.11501E-005	-5.99601E-002	6.17192E-001	3.58000E+000	9	...........
	21	0.293333	6.05988E-001	-9.87301E-005	0.00000E+000	-5.98292E-005	-5.99601E-002	6.06257E-001	3.58000E+000	9	...........
	22	0.306667	5.95125E-001	-9.80841E-005	0.00000E+000	-5.83723E-005	-5.99601E-002	5.95368E-001	3.58000E+000	9	...........
	23	0.32	5.84241E-001	-9.89551E-005	0.00000E+000	-5.78136E-005	-5.99601E-002	5.84491E-001	3.57955E+000	9	...........
	24	0.333333	5.73407E-001	-9.94896E-005	0.00000E+000	-5.70481E-005	-5.99601E-002	5.73646E-001	3.57940E+000	9	...........
	25	0.346667	5.62572E-001	-9.90010E-005	0.00000E+000	-5.56952E-005	-5.99601E-002	5.62842E-001	3.57940E+000	9	...........
	26	0.36	5.51783E-001	-9.86832E-005	0.00000E+000	-5.44517E-005	-5.99601E-002	5.52041E-001	3.57940E+000	9	...........
	27	0.373333	5.41023E-001	-9.87384E-005	0.00000E+000	-5.34197E-005	-5.99601E-002	5.41302E-001	3.57940E+000	9	...........
	28	0.386667	5.30292E-001	-9.86071E-005	0.00000E+000	-5.22906E-005	-5.99601E-002	5.30561E-001	3.57940E+000	9	...........
	29	0.4	5.19657E-001	-9.87665E-005	0.00000E+000	-5.13248E-005	-5.99601E-002	5.19884E-001	3.57940E+000	9	...........
	30	0.413333	5.08952E-001	-9.87353E-005	0.00000E+000	-5.02515E-005	-5.99601E-002	5.09211E-001	3.57940E+000	9	...........
	31	0.426667	4.98379E-001	-9.85207E-005	0.00000E+000	-4.91007E-005	-5.99601E-002	4.98615E-001	3.57940E+000	9	...........
	32	0.44	4.87910E-001	-9.96646E-005	0.00000E+000	-4.86274E-005	-5.99601E-002	4.88109E-001	3.57940E+000	9	...........
	33	0.453333	4.77762E-001	-9.84498E-005	0.00000E+000	-4.70356E-005	-5.99601E-002	4.77860E-001	3.57940E+000	9	...........
	34	0.466667	4.67334E-001	-9.94448E-005	0.00000E+000	-4.64739E-005	-5.99601E-002	4.67423E-001	3.57940E+000	9	...........
	35	0.48	4.56964E-001	-9.92844E-005	0.00000E+000	-4.53694E-005	-5.99601E-002	4.57053E-001	3.57940E+000	9	...........
	36	0.493333	4.46656E-001	-9.86051E-005	0.00000E+000	-4.40425E-005	-5.99601E-002	4.46748E-001	3.57940E+000	9	...........
	37	0.506667	4.36412E-001	-9.77434E-005	0.00000E+000	-4.26564E-005	-5.99601E-002	4.36505E-001	3.57940E+000	9	...........
	38	0.52	4.26230E-001	-9.87134E-005	0.00000E+000	-4.20746E-005	-5.99601E-002	4.26317E-001	3.57940E+000	9	...........
	39	0.533333	4.16105E-001	-9.90656E-005	0.00000E+000	-4.12216E-005	-5.99601E-002	4.16186E-001	3.57940E+000	9	...........
	40	0.546667	4.06043E-001	-9.81893E-005	0.00000E+000	-3.98691E-005	-5.99601E-002	4.06128E-001	3.57940E+000	9	...........
	41	0.56	3.96046E-001	-9.86540E-005	0.00000E+000	-3.90715E-005	-5.99601E-002	3.96123E-001	3.57940E+000	9	...........
	42	0.573333	3.86099E-001	-9.92177E-005	0.00000E+000	-3.83079E-005	-5.99601E-002	3.86172E-001	3.57940E+000	9	...........
	43	0.586667	3.76224E-001	-9.94448E-005	0.00000E+000	-3.74135E-005	-5.99601E-002	3.76291E-001	3.57940E+000	9	...........
	44	0.6	3.66402E-001	-9.89645E-005	0.00000E+000	-3.62607E-005	-5.99601E-002	3.66467E-001	3.57940E+000	9	...........
	45	0.613333	3.56637E-001	-9.93115E-005	0.00000E+000	-3.54182E-005	-5.99601E-002	3.56708E-001	3.57940E+000	9	...........
	46	0.626667	3.46940E-001	-9.85613E-005	0.00000E+000	-3.41949E-005	-5.99601E-002	3.47002E-001	3.57940E+000	9	...........
	47	0.64	3.37288E-001	-9.78914E-005	0.00000E+000	-3.30176E-005	-5.99601E-002	3.37348E-001	3.57940E+000	9	...........
	48	0.653333	3.27698E-001	-9.97449E-005	0.00000E+000	-3.26862E-005	-5.99601E-002	3.27755E-001	3.57940E+000	9	...........
	49	0.666667	3.18155E-001	-9.96209E-005	0.00000E+000	-3.16949E-005	-5.99601E-002	3.18216E-001	3.57940E+000	9	...........
	50	0.68	3.08668E-001	-9.91510E-005	0.00000E+000	-3.06047E-005	-5.99601E-002	3.08724E-001	3.57940E+000	9	...........
	51	0.693333	2.99239E-001	-9.87801E-005	0.00000E+000	-2.95589E-005	-5.99601E-002	2.99291E-001	3.57940E+000	9	...........
	52	0.706667	2.89847E-001	-9.95480E-005	0.00000E+000	-2.88537E-005	-5.99601E-002	2.89899E-001	3.57940E+000	9	...........
	53	0.72	2.80510E-001	-9.95000E-005	0.00000E+000	-2.79107E-005	-5.99601E-002	2.80553E-001	3.57940E+000	9	...........
	54	0.733333	2.71214E-001	-9.91333E-005	0.00000E+000	-2.68863E-005	-5.99601E-002	2.71268E-001	3.57940E+000	9	...........
	55	0.746667	2.61965E-001	-9.79653E-005	0.00000E+000	-2.56635E-005	-5.99601E-002	2.62016E-001	3.57940E+000	9	...........
	56	0.76	2.52767E-001	-9.87186E-005	0.00000E+000	-2.49528E-005	-5.99601E-002	2.52815E-001	3.57940E+000	9	...........
	57	0.773333	2.43619E-001	-9.85623E-005	0.00000E+000	-2.40116E-005	-5.99601E-002	2.43654E-001	3.57940E+000	9	...........
	58	0.786667	2.34506E-001	-9.89134E-005	0.00000E+000	-2.31958E-005	-5.99601E-002	2.34547E-001	3.57940E+000	9	...........
	59	0.8	2.25442E-001	-9.85801E-005	0.00000E+000	-2.22241E-005	-5.99601E-002	2.25479E-001	3.57940E+000	9	...........
	60	0.813333	2.16427E-001	-9.88270E-005	0.00000E+000	-2.13888E-005	-5.99601E-002	2.16464E-001	3.57940E+000	9	...........
	61	0.826667	2.07460E-001	-9.86967E-005	0.00000E+000	-2.04757E-005	-5.99601E-002	2.07499E-001	3.57940E+000	9	...........
	62	0.84	1.98546E-001	-9.88572E-005	0.00000E+000	-1.96277E-005	-5.99601E-002	1.98578E-001	3.57940E+000	9	...........
	63	0.853333	1.89689E-001	-9.95511E-005	0.00000E+000	-1.88837E-005	-5.99601E-002	1.89721E-001	3.57940E+000	9	...........
	64	0.866667	1.80887E-001	-9.87384E-005	0.00000E+000	-1.78605E-005	-5.99601E-002	1.80911E-001	3.57940E+000	9	...........
	65	0.88	1.72141E-001	-9.91104E-005	0.00000E+000	-1.70609E-005	-5.99601E-002	1.72162E-001	3.57940E+000	9	...........
	66	0.893333	1.63462E-001	-9.93552E-005	0.00000E+000	-1.62408E-005	-5.99601E-002	1.63476E-001	3.57940E+000	9	...........
	67	0.906667	1.54838E-001	-9.83498E-005	0.00000E+000	-1.52283E-005	-5.99601E-002	1.54858E-001	3.57940E+000	9	...........
	68	0.92	1.46279E-001	-9.77351E-005	0.00000E+000	-1.42966E-005	-5.99601E-002	1.46297E-001	3.57940E+000	9	...........
	69	0.933333	1.37787E-001	-9.88009E-005	0.00000E+000	-1.36135E-005	-5.99601E-002	1.37801E-001	3.57940E+000	9	...........
	70	0.946667	1.29361E-001	-9.94104E-005	0.00000E+000	-1.28598E-005	-5.99601E-002	1.29380E-001	3.57940E+000	9	...........
	71	0.96	1.21015E-001	-9.81664E-005	0.00000E+000	-1.18796E-005	-5.99601E-002	1.21029E-001	3.57940E+000	9	...........
	72	0.97333	1.12736E-001	-9.89541E-005	0.00000E+000	-1.11557E-005	-5.99601E-002	1.12745E-001	3.57940E+000	9	...........
	73	0.98667	1.04528E-001	-9.88291E-005	0.00000E+000	-1.03304E-005	-5.99601E-002	1.04538E-001	3.57940E+000	9	...........
	74	1	9.63865E-002	-9.95063E-005	0.00000E+000	-9.59106E-006	-5.99601E-002	9.63957E-002	3.57940E+000	9	...........
	75	1.01333	8.83222E-002	-9.93365E-005	0.00000E+000	-8.77362E-006	-5.99601E-002	8.83274E-002	3.57940E+000	9	...........
	76	1.02667	8.03385E-002	-9.86822E-005	0.00000E+000	-7.92797E-006	-5.99601E-002	8.03388E-002	3.57940E+000	9	...........
	77	1.04	7.24188E-002	-9.91958E-005	0.00000E+000	-7.18364E-006	-5.99601E-002	7.24152E-002	3.57940E+000	9	...........
	78	1.05333	6.45687E-002	-9.94386E-005	0.00000E+000	-6.42062E-006	-5.99601E-002	6.45669E-002	3.57940E+000	9	...........
	79	1.06667	5.67877E-002	-9.88697E-005	0.00000E+000	-5.61458E-006	-5.99601E-002	5.67788E-002	3.57940E+000	9	...........
	80	1.08	4.90916E-002	-9.94521E-005	0.00000E+000	-4.88227E-006	-5.99601E-002	4.90842E-002	3.57940E+000	9	...........
	81	1.09333	4.14725E-002	-9.91458E-005	0.00000E+000	-4.11182E-006	-5.99601E-002	4.14661E-002	3.57940E+000	9	...........
	82	1.10667	3.38993E-002	-9.83217E-005	0.00000E+000	-3.33304E-006	-5.99601E-002	3.38840E-002	3.57940E+000	9	...........
	83	1.12	2.63893E-002	-9.92948E-005	0.00000E+000	-2.62032E-006	-5.99601E-002	2.63717E-002	3.57940E+000	9	...........
	84	1.13333	1.89499E-002	-9.82466E-005	0.00000E+000	-1.86176E-006	-5.99601E-002	1.89263E-002	3.57940E+000	9	...........
	85	1.14667	1.15667E-002	-9.83644E-005	0.00000E+000	-1.13776E-006	-5.99601E-002	1.15368E-002	3.57940E+000	9	...........
	86	1.16	4.24957E-003	-9.87874E-005	0.00000E+000	-4.19804E-007	-5.99601E-002	4.22143E-003	3.57940E+000	9	...........
	87	1.16333	-2.94959E-004	-9.94146E-005	0.00000E+000	2.93233E-008	-5.99601E-002	-3.23098E-004	3.57940E+000	9	...........
STARTTIMEOFFSET	QUANT	1329.246	Start Time Offset (s)
