EXPLAIN
TAG	PWR800_DISCHARGE
TITLE	LABEL	PWR Cyclic Charge Discharge (Cell) - Discharge Step	Test &Identifier
DATE	LABEL	13-7-2017	Date
TIME	LABEL	15:05:29	Time
NOTES	NOTES	2	&Notes...
	supercap test cell
	6M KOH
PSTAT	PSTAT	IFC5000-01520	Potentiostat
CAPACITY	QUANT	1.00000E-003	Capacity (A-hr)
CELLTYPE	SELECTOR	1	&Cell Type
WORKINGCONNECTION	SELECTOR	0	&Working Lead
MAXDISCHARGETIME	VARIABLEANDUNITS	1.00000E+002	s	1.00000E+002	second(s)	Max &Discharge Time
DISCHARGEMODE	MULTIPARAM	0	1.00000E-004	&Discharge Mode	Constant Current	Amp(s)
SAMPLETIME	QUANT	1.00000E-002	Sa&mple Period (s)
DISCHARGESTOPAT1	MULTIPARAM	3	0.00000E+000	Discharge Stop At &1	Voltage < Limit	V
DISCHARGESTOPAT2	MULTIPARAM	0	0.00000E+000	Discharge Stop At &2	None	N/A
AESBHCSELECTOR	TOGGLE	F	Save Both Half Cells
IRCOMP	TOGGLE	F	IR &Measure
EOC	QUANT	0	Open Circuit (V)
SEQUENCER	TOGGLE	TRUE	Run as Sequence
PSTATMODEL	IQUANT	53	Pstat Model
PSTATSECTION	LABEL	IFC5000-01520	Pstat Section
PSTATSERIALNO	LABEL	01520	Pstat Serial Number
CTRLMODE	IQUANT	0	Control Mode
ELECTROMETER	IQUANT	1	RE=0 or CS=1
IESTAB	IQUANT	0	I/E Stability
CASPEED	IQUANT	4	Control Amp Speed
CONVENTION	IQUANT	1	Current Convention
ICHRANGE	IQUANT	2	Ich Range
ICHRANGEMODE	TOGGLE	T	Ich Auto Range
ICHOFFSETENABLE	TOGGLE	F	Ich Offset Enable
ICHOFFSET	QUANT	0	Ich Offset (V)
ICHFILTER	IQUANT	1	Ich Filter
VCHRANGE	IQUANT	2	Vch Range
VCHRANGEMODE	TOGGLE	T	Vch Auto Range
VCHOFFSETENABLE	TOGGLE	F	Vch Offset Enable
VCHOFFSET	QUANT	0	Vch Offset (V)
VCHFILTER	IQUANT	1	Vch Filter
IERANGELOWERLIMIT	IQUANT	9	I/E Range Lower Limit
IERANGEMODE	TOGGLE	F	I/E AutoRange
IERANGE	IQUANT	9	I/E Range
ACHSELECT	IQUANT	1	Ach Select
ACHRANGE	IQUANT	2	Ach Range
ACHOFFSETENABLE	TOGGLE	F	Ach Offset Enable
ACHOFFSET	QUANT	0	Ach Offset (V)
ACHFILTER	IQUANT	1	Ach Filter
CABLEID	IQUANT	14	Cable ID
DCCALDATE	LABEL	5-7-2017	DC Calibration Date
ACCALDATE	LABEL	12/3/2015	AC Calibration Date
FRAMEWORKVERSION	QUANT	7.01	Framework Version
INSTRUMENTVERSION	LABEL	4.00	Instrument Version
CURVE	TABLE	94
	Pt	T	Vf	Im	Vu	Pwr	Sig	Ach	Temp	IERange	Over
	#	s	V	A	V	W	V	V	deg C	#	bits
	0	0.013333	8.57666E-001	-9.95907E-005	0.00000E+000	-8.54155E-005	-5.99601E-002	8.58026E-001	3.58050E+000	9	...........
	1	0.026667	8.44920E-001	-9.84238E-005	0.00000E+000	-8.31602E-005	-5.99601E-002	8.45274E-001	3.58050E+000	9	...........
	2	0.04	8.32952E-001	-9.94323E-005	0.00000E+000	-8.28223E-005	-5.99601E-002	8.33293E-001	3.58050E+000	9	...........
	3	0.053333	8.21540E-001	-9.93646E-005	0.00000E+000	-8.16320E-005	-5.99601E-002	8.21863E-001	3.58050E+000	9	...........
	4	0.066667	8.10506E-001	-9.84602E-005	0.00000E+000	-7.98026E-005	-5.99601E-002	8.10817E-001	3.58050E+000	9	...........
	5	0.08	7.99801E-001	-9.84706E-005	0.00000E+000	-7.87569E-005	-5.99601E-002	8.00079E-001	3.58050E+000	9	...........
	6	0.093333	7.89276E-001	-9.84936E-005	0.00000E+000	-7.77386E-005	-5.99601E-002	7.89580E-001	3.58050E+000	9	...........
	7	0.106667	7.78908E-001	-9.92823E-005	0.00000E+000	-7.73318E-005	-5.99601E-002	7.79224E-001	3.58050E+000	9	...........
	8	0.12	7.68722E-001	-9.92437E-005	0.00000E+000	-7.62908E-005	-5.99601E-002	7.69016E-001	3.58050E+000	9	...........
	9	0.133333	7.58638E-001	-9.91020E-005	0.00000E+000	-7.51826E-005	-5.99601E-002	7.58892E-001	3.58050E+000	9	...........
	10	0.146667	7.48598E-001	-9.94021E-005	0.00000E+000	-7.44122E-005	-5.99601E-002	7.48871E-001	3.58050E+000	9	...........
	11	0.16	7.38606E-001	-9.91302E-005	0.00000E+000	-7.32181E-005	-5.99601E-002	7.38919E-001	3.58050E+000	9	...........
	12	0.173333	7.28719E-001	-9.99387E-005	0.00000E+000	-7.28273E-005	-5.99601E-002	7.28981E-001	3.58050E+000	9	...........
	13	0.186667	7.18816E-001	-9.97178E-005	0.00000E+000	-7.16787E-005	-5.99601E-002	7.19113E-001	3.58050E+000	9	...........
	14	0.2	7.08962E-001	-9.91375E-005	0.00000E+000	-7.02847E-005	-5.99601E-002	7.09240E-001	3.58050E+000	9	...........
	15	0.213333	6.99145E-001	-9.82060E-005	0.00000E+000	-6.86602E-005	-5.99601E-002	6.99423E-001	3.58050E+000	9	...........
	16	0.226667	6.89339E-001	-9.88426E-005	0.00000E+000	-6.81360E-005	-5.99601E-002	6.89613E-001	3.58050E+000	9	...........
	17	0.24	6.79551E-001	-9.90656E-005	0.00000E+000	-6.73201E-005	-5.99601E-002	6.79823E-001	3.58050E+000	9	...........
	18	0.253333	6.69756E-001	-9.82237E-005	0.00000E+000	-6.57860E-005	-5.99601E-002	6.70025E-001	3.58050E+000	9	...........
	19	0.266667	6.59945E-001	-9.86269E-005	0.00000E+000	-6.50884E-005	-5.99601E-002	6.60238E-001	3.58050E+000	9	...........
	20	0.28	6.50159E-001	-9.88489E-005	0.00000E+000	-6.42675E-005	-5.99601E-002	6.50456E-001	3.58050E+000	9	...........
	21	0.293333	6.40373E-001	-9.87655E-005	0.00000E+000	-6.32468E-005	-5.99601E-002	6.40653E-001	3.58050E+000	9	...........
	22	0.306667	6.30588E-001	-9.83612E-005	0.00000E+000	-6.20254E-005	-5.99601E-002	6.30872E-001	3.58050E+000	9	...........
	23	0.32	6.20823E-001	-9.84019E-005	0.00000E+000	-6.10902E-005	-5.99601E-002	6.21081E-001	3.58050E+000	9	...........
	24	0.333333	6.10981E-001	-9.80904E-005	0.00000E+000	-5.99313E-005	-5.99601E-002	6.11311E-001	3.58050E+000	9	...........
	25	0.346667	6.01217E-001	-9.86707E-005	0.00000E+000	-5.93225E-005	-5.99601E-002	6.01496E-001	3.58050E+000	9	...........
	26	0.36	5.91474E-001	-9.80799E-005	0.00000E+000	-5.80117E-005	-5.99601E-002	5.91731E-001	3.58050E+000	9	...........
	27	0.373333	5.81654E-001	-9.89551E-005	0.00000E+000	-5.75576E-005	-5.99601E-002	5.81936E-001	3.58050E+000	9	...........
	28	0.386667	5.71927E-001	-9.91333E-005	0.00000E+000	-5.66970E-005	-5.99601E-002	5.72180E-001	3.58050E+000	9	...........
	29	0.4	5.62145E-001	-9.88801E-005	0.00000E+000	-5.55850E-005	-5.99601E-002	5.62416E-001	3.58050E+000	9	...........
	30	0.413333	5.52366E-001	-9.94000E-005	0.00000E+000	-5.49051E-005	-5.99601E-002	5.52632E-001	3.58050E+000	9	...........
	31	0.426667	5.42651E-001	-9.87395E-005	0.00000E+000	-5.35810E-005	-5.99601E-002	5.42900E-001	3.58050E+000	9	...........
	32	0.44	5.32890E-001	-9.83675E-005	0.00000E+000	-5.24190E-005	-5.99601E-002	5.33152E-001	3.58050E+000	9	...........
	33	0.453333	5.23166E-001	-9.87978E-005	0.00000E+000	-5.16876E-005	-5.99601E-002	5.23397E-001	3.58050E+000	9	...........
	34	0.466667	5.13451E-001	-9.91468E-005	0.00000E+000	-5.09071E-005	-5.99601E-002	5.13695E-001	3.58050E+000	9	...........
	35	0.48	5.03723E-001	-9.92896E-005	0.00000E+000	-5.00144E-005	-5.99601E-002	5.03978E-001	3.58050E+000	9	...........
	36	0.493333	4.94053E-001	-9.92958E-005	0.00000E+000	-4.90574E-005	-5.99601E-002	4.94288E-001	3.58050E+000	9	...........
	37	0.506667	4.84603E-001	-9.84186E-005	0.00000E+000	-4.76940E-005	-5.99601E-002	4.84741E-001	3.58050E+000	9	...........
	38	0.52	4.75159E-001	-9.88759E-005	0.00000E+000	-4.69818E-005	-5.99601E-002	4.75255E-001	3.58050E+000	9	...........
	39	0.533333	4.65543E-001	-9.84279E-005	0.00000E+000	-4.58225E-005	-5.99601E-002	4.65645E-001	3.58050E+000	9	...........
	40	0.546667	4.55957E-001	-9.81373E-005	0.00000E+000	-4.47464E-005	-5.99601E-002	4.56052E-001	3.58050E+000	9	...........
	41	0.56	4.46388E-001	-9.96646E-005	0.00000E+000	-4.44891E-005	-5.99601E-002	4.46487E-001	3.58031E+000	9	...........
	42	0.573333	4.36854E-001	-9.94136E-005	0.00000E+000	-4.34292E-005	-5.99601E-002	4.36945E-001	3.57880E+000	9	...........
	43	0.586667	4.27341E-001	-9.88311E-005	0.00000E+000	-4.22346E-005	-5.99601E-002	4.27434E-001	3.57880E+000	9	...........
	44	0.6	4.17861E-001	-9.90072E-005	0.00000E+000	-4.13712E-005	-5.99601E-002	4.17950E-001	3.57880E+000	9	...........
	45	0.613333	4.08420E-001	-9.82998E-005	0.00000E+000	-4.01476E-005	-5.99601E-002	4.08508E-001	3.57880E+000	9	...........
	46	0.626667	3.99004E-001	-9.83102E-005	0.00000E+000	-3.92262E-005	-5.99601E-002	3.99083E-001	3.57880E+000	9	...........
	47	0.64	3.89619E-001	-9.92844E-005	0.00000E+000	-3.86831E-005	-5.99601E-002	3.89695E-001	3.57880E+000	9	...........
	48	0.653333	3.80264E-001	-9.80476E-005	0.00000E+000	-3.72840E-005	-5.99601E-002	3.80337E-001	3.57880E+000	9	...........
	49	0.666667	3.70937E-001	-9.89426E-005	0.00000E+000	-3.67015E-005	-5.99601E-002	3.71014E-001	3.57880E+000	9	...........
	50	0.68	3.61644E-001	-9.92594E-005	0.00000E+000	-3.58966E-005	-5.99601E-002	3.61715E-001	3.57880E+000	9	...........
	51	0.693333	3.52391E-001	-9.95230E-005	0.00000E+000	-3.50710E-005	-5.99601E-002	3.52450E-001	3.57880E+000	9	...........
	52	0.706667	3.43156E-001	-9.89301E-005	0.00000E+000	-3.39485E-005	-5.99601E-002	3.43219E-001	3.57880E+000	9	...........
	53	0.72	3.33958E-001	-9.89041E-005	0.00000E+000	-3.30298E-005	-5.99601E-002	3.34020E-001	3.57880E+000	9	...........
	54	0.733333	3.24791E-001	-1.00081E-004	0.00000E+000	-3.25056E-005	-5.99601E-002	3.24850E-001	3.57880E+000	9	...........
	55	0.746667	3.15654E-001	-9.75382E-005	0.00000E+000	-3.07883E-005	-5.99601E-002	3.15717E-001	3.57880E+000	9	...........
	56	0.76	3.06543E-001	-9.81081E-005	0.00000E+000	-3.00744E-005	-5.99601E-002	3.06604E-001	3.57880E+000	9	...........
	57	0.773333	2.97459E-001	-9.95605E-005	0.00000E+000	-2.96152E-005	-5.99601E-002	2.97514E-001	3.57880E+000	9	...........
	58	0.786667	2.88407E-001	-9.88530E-005	0.00000E+000	-2.85099E-005	-5.99601E-002	2.88464E-001	3.57880E+000	9	...........
	59	0.8	2.79382E-001	-9.93719E-005	0.00000E+000	-2.77627E-005	-5.99601E-002	2.79437E-001	3.57880E+000	9	...........
	60	0.813333	2.70384E-001	-9.84800E-005	0.00000E+000	-2.66274E-005	-5.99601E-002	2.70436E-001	3.57880E+000	9	...........
	61	0.826667	2.61411E-001	-9.89228E-005	0.00000E+000	-2.58595E-005	-5.99601E-002	2.61466E-001	3.57880E+000	9	...........
	62	0.84	2.52472E-001	-9.88499E-005	0.00000E+000	-2.49568E-005	-5.99601E-002	2.52523E-001	3.57880E+000	9	...........
	63	0.853333	2.43561E-001	-9.92854E-005	0.00000E+000	-2.41820E-005	-5.99601E-002	2.43606E-001	3.57880E+000	9	...........
	64	0.866667	2.34676E-001	-9.93427E-005	0.00000E+000	-2.33133E-005	-5.99601E-002	2.34713E-001	3.57880E+000	9	...........
	65	0.88	2.25823E-001	-9.88718E-005	0.00000E+000	-2.23275E-005	-5.99601E-002	2.25865E-001	3.57880E+000	9	...........
	66	0.893333	2.16994E-001	-9.87957E-005	0.00000E+000	-2.14381E-005	-5.99601E-002	2.17031E-001	3.57880E+000	9	...........
	67	0.906667	2.08200E-001	-9.76278E-005	0.00000E+000	-2.03261E-005	-5.99601E-002	2.08235E-001	3.57880E+000	9	...........
	68	0.92	1.99437E-001	-9.92354E-005	0.00000E+000	-1.97912E-005	-5.99601E-002	1.99468E-001	3.57880E+000	9	...........
	69	0.933333	1.90703E-001	-9.85582E-005	0.00000E+000	-1.87953E-005	-5.99601E-002	1.90731E-001	3.57880E+000	9	...........
	70	0.946667	1.82004E-001	-9.83769E-005	0.00000E+000	-1.79050E-005	-5.99601E-002	1.82035E-001	3.57880E+000	9	...........
	71	0.96	1.73348E-001	-9.95490E-005	0.00000E+000	-1.72566E-005	-5.99601E-002	1.73373E-001	3.57880E+000	9	...........
	72	0.97333	1.64725E-001	-9.85373E-005	0.00000E+000	-1.62315E-005	-5.99601E-002	1.64751E-001	3.57880E+000	9	...........
	73	0.98667	1.56146E-001	-9.81570E-005	0.00000E+000	-1.53268E-005	-5.99601E-002	1.56166E-001	3.57880E+000	9	...........
	74	1	1.47608E-001	-9.79122E-005	0.00000E+000	-1.44526E-005	-5.99601E-002	1.47629E-001	3.57880E+000	9	...........
	75	1.01333	1.39114E-001	-9.88311E-005	0.00000E+000	-1.37488E-005	-5.99601E-002	1.39128E-001	3.57880E+000	9	...........
	76	1.02667	1.30672E-001	-9.78632E-005	0.00000E+000	-1.27880E-005	-5.99601E-002	1.30684E-001	3.57880E+000	9	...........
	77	1.04	1.22282E-001	-9.91197E-005	0.00000E+000	-1.21205E-005	-5.99601E-002	1.22289E-001	3.57880E+000	9	...........
	78	1.05333	1.13944E-001	-9.90697E-005	0.00000E+000	-1.12884E-005	-5.99601E-002	1.13957E-001	3.57880E+000	9	...........
	79	1.06667	1.05662E-001	-9.89426E-005	0.00000E+000	-1.04545E-005	-5.99601E-002	1.05674E-001	3.57880E+000	9	...........
	80	1.08	9.74411E-002	-9.92260E-005	0.00000E+000	-9.66869E-006	-5.99601E-002	9.74512E-002	3.57880E+000	9	...........
	81	1.09333	8.92770E-002	-9.83467E-005	0.00000E+000	-8.78009E-006	-5.99601E-002	8.92850E-002	3.57880E+000	9	...........
	82	1.10667	8.11767E-002	-9.92104E-005	0.00000E+000	-8.05357E-006	-5.99601E-002	8.11790E-002	3.57880E+000	9	...........
	83	1.12	7.31384E-002	-9.89437E-005	0.00000E+000	-7.23658E-006	-5.99601E-002	7.31372E-002	3.57880E+000	9	...........
	84	1.13333	6.51636E-002	-9.88291E-005	0.00000E+000	-6.44006E-006	-5.99601E-002	6.51574E-002	3.57880E+000	9	...........
	85	1.14667	5.72419E-002	-9.80278E-005	0.00000E+000	-5.61130E-006	-5.99601E-002	5.72348E-002	3.57880E+000	9	...........
	86	1.16	4.94035E-002	-9.86332E-005	0.00000E+000	-4.87282E-006	-5.99601E-002	4.93944E-002	3.57880E+000	9	...........
	87	1.17333	4.16435E-002	-9.88301E-005	0.00000E+000	-4.11563E-006	-5.99601E-002	4.16332E-002	3.57880E+000	9	...........
	88	1.18667	3.39115E-002	-9.82789E-005	0.00000E+000	-3.33279E-006	-5.99601E-002	3.38971E-002	3.57880E+000	9	...........
	89	1.2	2.62424E-002	-9.82810E-005	0.00000E+000	-2.57913E-006	-5.99601E-002	2.62211E-002	3.57880E+000	9	...........
	90	1.21333	1.86318E-002	-9.83831E-005	0.00000E+000	-1.83305E-006	-5.99601E-002	1.86068E-002	3.57880E+000	9	...........
	91	1.22667	1.10789E-002	-9.92479E-005	0.00000E+000	-1.09956E-006	-5.99601E-002	1.10487E-002	3.57880E+000	9	...........
	92	1.24	3.58183E-003	-9.86436E-005	0.00000E+000	-3.53324E-007	-5.99601E-002	3.55042E-003	3.57880E+000	9	...........
	93	1.24167	-6.10808E-004	-9.94771E-005	0.00000E+000	6.07614E-008	-5.99601E-002	-6.49406E-004	3.57880E+000	9	...........
STARTTIMEOFFSET	QUANT	151.3333	Start Time Offset (s)
