EXPLAIN
TAG	PWR800_DISCHARGE
TITLE	LABEL	PWR Cyclic Charge Discharge (Cell) - Discharge Step	Test &Identifier
DATE	LABEL	13-7-2017	Date
TIME	LABEL	15:13:25	Time
NOTES	NOTES	2	&Notes...
	supercap test cell
	6M KOH
PSTAT	PSTAT	IFC5000-01520	Potentiostat
CAPACITY	QUANT	1.00000E-003	Capacity (A-hr)
CELLTYPE	SELECTOR	1	&Cell Type
WORKINGCONNECTION	SELECTOR	0	&Working Lead
MAXDISCHARGETIME	VARIABLEANDUNITS	1.00000E+002	s	1.00000E+002	second(s)	Max &Discharge Time
DISCHARGEMODE	MULTIPARAM	0	1.00000E-004	&Discharge Mode	Constant Current	Amp(s)
SAMPLETIME	QUANT	1.00000E-002	Sa&mple Period (s)
DISCHARGESTOPAT1	MULTIPARAM	3	0.00000E+000	Discharge Stop At &1	Voltage < Limit	V
DISCHARGESTOPAT2	MULTIPARAM	0	0.00000E+000	Discharge Stop At &2	None	N/A
AESBHCSELECTOR	TOGGLE	F	Save Both Half Cells
IRCOMP	TOGGLE	F	IR &Measure
EOC	QUANT	0	Open Circuit (V)
SEQUENCER	TOGGLE	TRUE	Run as Sequence
PSTATMODEL	IQUANT	53	Pstat Model
PSTATSECTION	LABEL	IFC5000-01520	Pstat Section
PSTATSERIALNO	LABEL	01520	Pstat Serial Number
CTRLMODE	IQUANT	0	Control Mode
ELECTROMETER	IQUANT	1	RE=0 or CS=1
IESTAB	IQUANT	0	I/E Stability
CASPEED	IQUANT	4	Control Amp Speed
CONVENTION	IQUANT	1	Current Convention
ICHRANGE	IQUANT	2	Ich Range
ICHRANGEMODE	TOGGLE	T	Ich Auto Range
ICHOFFSETENABLE	TOGGLE	F	Ich Offset Enable
ICHOFFSET	QUANT	0	Ich Offset (V)
ICHFILTER	IQUANT	1	Ich Filter
VCHRANGE	IQUANT	2	Vch Range
VCHRANGEMODE	TOGGLE	T	Vch Auto Range
VCHOFFSETENABLE	TOGGLE	F	Vch Offset Enable
VCHOFFSET	QUANT	0	Vch Offset (V)
VCHFILTER	IQUANT	1	Vch Filter
IERANGELOWERLIMIT	IQUANT	9	I/E Range Lower Limit
IERANGEMODE	TOGGLE	F	I/E AutoRange
IERANGE	IQUANT	9	I/E Range
ACHSELECT	IQUANT	1	Ach Select
ACHRANGE	IQUANT	2	Ach Range
ACHOFFSETENABLE	TOGGLE	F	Ach Offset Enable
ACHOFFSET	QUANT	0	Ach Offset (V)
ACHFILTER	IQUANT	1	Ach Filter
CABLEID	IQUANT	14	Cable ID
DCCALDATE	LABEL	5-7-2017	DC Calibration Date
ACCALDATE	LABEL	12/3/2015	AC Calibration Date
FRAMEWORKVERSION	QUANT	7.01	Framework Version
INSTRUMENTVERSION	LABEL	4.00	Instrument Version
CURVE	TABLE	91
	Pt	T	Vf	Im	Vu	Pwr	Sig	Ach	Temp	IERange	Over
	#	s	V	A	V	W	V	V	deg C	#	bits
	0	0.013333	8.53227E-001	-9.82602E-005	0.00000E+000	-8.38382E-005	-5.99601E-002	8.53583E-001	3.58010E+000	9	...........
	1	0.026667	8.39841E-001	-1.00036E-004	0.00000E+000	-8.40139E-005	-5.99601E-002	8.40197E-001	3.58010E+000	9	...........
	2	0.04	8.27298E-001	-9.93396E-005	0.00000E+000	-8.21835E-005	-5.99601E-002	8.27631E-001	3.58010E+000	9	...........
	3	0.053333	8.15309E-001	-9.89864E-005	0.00000E+000	-8.07045E-005	-5.99601E-002	8.15631E-001	3.58010E+000	9	...........
	4	0.066667	8.03723E-001	-9.83071E-005	0.00000E+000	-7.90117E-005	-5.99601E-002	8.04046E-001	3.58010E+000	9	...........
	5	0.08	7.92432E-001	-9.92989E-005	0.00000E+000	-7.86876E-005	-5.99601E-002	7.92751E-001	3.58010E+000	9	...........
	6	0.093333	7.81339E-001	-9.92760E-005	0.00000E+000	-7.75682E-005	-5.99601E-002	7.81672E-001	3.58010E+000	9	...........
	7	0.106667	7.70436E-001	-9.89562E-005	0.00000E+000	-7.62394E-005	-5.99601E-002	7.70765E-001	3.58010E+000	9	...........
	8	0.12	7.59638E-001	-9.95000E-005	0.00000E+000	-7.55840E-005	-5.99601E-002	7.59944E-001	3.58010E+000	9	...........
	9	0.133333	7.48947E-001	-9.88884E-005	0.00000E+000	-7.40622E-005	-5.99601E-002	7.49252E-001	3.58010E+000	9	...........
	10	0.146667	7.38342E-001	-9.78049E-005	0.00000E+000	-7.22134E-005	-5.99601E-002	7.38651E-001	3.58010E+000	9	...........
	11	0.16	7.27805E-001	-9.84029E-005	0.00000E+000	-7.16182E-005	-5.99601E-002	7.28083E-001	3.58010E+000	9	...........
	12	0.173333	7.17270E-001	-9.92093E-005	0.00000E+000	-7.11599E-005	-5.99601E-002	7.17575E-001	3.58010E+000	9	...........
	13	0.186667	7.06816E-001	-9.90083E-005	0.00000E+000	-6.99807E-005	-5.99601E-002	7.07066E-001	3.58010E+000	9	...........
	14	0.2	6.96373E-001	-9.92698E-005	0.00000E+000	-6.91287E-005	-5.99601E-002	6.96628E-001	3.58010E+000	9	...........
	15	0.213333	6.85956E-001	-9.87343E-005	0.00000E+000	-6.77274E-005	-5.99601E-002	6.86214E-001	3.58010E+000	9	...........
	16	0.226667	6.75582E-001	-9.91395E-005	0.00000E+000	-6.69769E-005	-5.99601E-002	6.75825E-001	3.58010E+000	9	...........
	17	0.24	6.65193E-001	-9.82102E-005	0.00000E+000	-6.53288E-005	-5.99601E-002	6.65467E-001	3.58010E+000	9	...........
	18	0.253333	6.54797E-001	-9.86738E-005	0.00000E+000	-6.46113E-005	-5.99601E-002	6.55072E-001	3.58010E+000	9	...........
	19	0.266667	6.44433E-001	-9.89218E-005	0.00000E+000	-6.37485E-005	-5.99601E-002	6.44701E-001	3.57870E+000	9	...........
	20	0.28	6.34057E-001	-9.90572E-005	0.00000E+000	-6.28079E-005	-5.99601E-002	6.34318E-001	3.57870E+000	9	...........
	21	0.293333	6.23724E-001	-9.85884E-005	0.00000E+000	-6.14920E-005	-5.99601E-002	6.23991E-001	3.57870E+000	9	...........
	22	0.306667	6.13364E-001	-9.90572E-005	0.00000E+000	-6.07582E-005	-5.99601E-002	6.13631E-001	3.57870E+000	9	...........
	23	0.32	6.02999E-001	-9.88905E-005	0.00000E+000	-5.96309E-005	-5.99601E-002	6.03315E-001	3.57870E+000	9	...........
	24	0.333333	5.92695E-001	-9.92010E-005	0.00000E+000	-5.87960E-005	-5.99601E-002	5.92976E-001	3.57870E+000	9	...........
	25	0.346667	5.82357E-001	-9.81716E-005	0.00000E+000	-5.71709E-005	-5.99601E-002	5.82632E-001	3.57870E+000	9	...........
	26	0.36	5.72082E-001	-9.87540E-005	0.00000E+000	-5.64954E-005	-5.99601E-002	5.72376E-001	3.57870E+000	9	...........
	27	0.373333	5.61785E-001	-9.94396E-005	0.00000E+000	-5.58637E-005	-5.99601E-002	5.62075E-001	3.57870E+000	9	...........
	28	0.386667	5.51513E-001	-9.87311E-005	0.00000E+000	-5.44515E-005	-5.99601E-002	5.51769E-001	3.57870E+000	9	...........
	29	0.4	5.41275E-001	-9.87353E-005	0.00000E+000	-5.34430E-005	-5.99601E-002	5.41531E-001	3.57870E+000	9	...........
	30	0.413333	5.31050E-001	-9.93156E-005	0.00000E+000	-5.27416E-005	-5.99601E-002	5.31276E-001	3.57870E+000	9	...........
	31	0.426667	5.20861E-001	-9.99137E-005	0.00000E+000	-5.20412E-005	-5.99601E-002	5.21076E-001	3.57870E+000	9	...........
	32	0.44	5.10693E-001	-9.92792E-005	0.00000E+000	-5.07011E-005	-5.99601E-002	5.10925E-001	3.57870E+000	9	...........
	33	0.453333	5.00550E-001	-9.88957E-005	0.00000E+000	-4.95023E-005	-5.99601E-002	5.00788E-001	3.57870E+000	9	...........
	34	0.466667	4.90483E-001	-9.92469E-005	0.00000E+000	-4.86789E-005	-5.99601E-002	4.90701E-001	3.57870E+000	9	...........
	35	0.48	4.80723E-001	-9.82852E-005	0.00000E+000	-4.72479E-005	-5.99601E-002	4.80846E-001	3.57870E+000	9	...........
	36	0.493333	4.70746E-001	-9.93375E-005	0.00000E+000	-4.67627E-005	-5.99601E-002	4.70847E-001	3.57870E+000	9	...........
	37	0.506667	4.60768E-001	-9.81393E-005	0.00000E+000	-4.52194E-005	-5.99601E-002	4.60861E-001	3.57870E+000	9	...........
	38	0.52	4.50826E-001	-9.91354E-005	0.00000E+000	-4.46928E-005	-5.99601E-002	4.50920E-001	3.57870E+000	9	...........
	39	0.533333	4.40933E-001	-9.87061E-005	0.00000E+000	-4.35228E-005	-5.99601E-002	4.41028E-001	3.57870E+000	9	...........
	40	0.546667	4.31094E-001	-9.88801E-005	0.00000E+000	-4.26266E-005	-5.99601E-002	4.31182E-001	3.57870E+000	9	...........
	41	0.56	4.21290E-001	-9.88238E-005	0.00000E+000	-4.16335E-005	-5.99601E-002	4.21380E-001	3.57870E+000	9	...........
	42	0.573333	4.11538E-001	-9.85509E-005	0.00000E+000	-4.05574E-005	-5.99601E-002	4.11623E-001	3.57870E+000	9	...........
	43	0.586667	4.01838E-001	-9.91416E-005	0.00000E+000	-3.98388E-005	-5.99601E-002	4.01918E-001	3.57870E+000	9	...........
	44	0.6	3.92186E-001	-9.84477E-005	0.00000E+000	-3.86098E-005	-5.99601E-002	3.92265E-001	3.57870E+000	9	...........
	45	0.613333	3.82582E-001	-9.85675E-005	0.00000E+000	-3.77101E-005	-5.99601E-002	3.82659E-001	3.57870E+000	9	...........
	46	0.626667	3.73030E-001	-9.86186E-005	0.00000E+000	-3.67877E-005	-5.99601E-002	3.73099E-001	3.57870E+000	9	...........
	47	0.64	3.63522E-001	-9.95771E-005	0.00000E+000	-3.61985E-005	-5.99601E-002	3.63587E-001	3.57870E+000	9	...........
	48	0.653333	3.54055E-001	-9.97324E-005	0.00000E+000	-3.53108E-005	-5.99601E-002	3.54126E-001	3.57870E+000	9	...........
	49	0.666667	3.44641E-001	-9.82341E-005	0.00000E+000	-3.38555E-005	-5.99601E-002	3.44711E-001	3.57870E+000	9	...........
	50	0.68	3.35273E-001	-9.87290E-005	0.00000E+000	-3.31012E-005	-5.99601E-002	3.35335E-001	3.57870E+000	9	...........
	51	0.693333	3.25948E-001	-9.85915E-005	0.00000E+000	-3.21357E-005	-5.99601E-002	3.26015E-001	3.57870E+000	9	...........
	52	0.706667	3.16666E-001	-9.88145E-005	0.00000E+000	-3.12912E-005	-5.99601E-002	3.16725E-001	3.57870E+000	9	...........
	53	0.72	3.07428E-001	-9.81331E-005	0.00000E+000	-3.01688E-005	-5.99601E-002	3.07484E-001	3.57870E+000	9	...........
	54	0.733333	2.98226E-001	-9.87707E-005	0.00000E+000	-2.94559E-005	-5.99601E-002	2.98282E-001	3.57870E+000	9	...........
	55	0.746667	2.89066E-001	-9.92614E-005	0.00000E+000	-2.86931E-005	-5.99601E-002	2.89120E-001	3.57870E+000	9	...........
	56	0.76	2.79950E-001	-9.84863E-005	0.00000E+000	-2.75712E-005	-5.99601E-002	2.80009E-001	3.57870E+000	9	...........
	57	0.773333	2.70876E-001	-9.90426E-005	0.00000E+000	-2.68283E-005	-5.99601E-002	2.70929E-001	3.57870E+000	9	...........
	58	0.786667	2.61837E-001	-9.82925E-005	0.00000E+000	-2.57366E-005	-5.99601E-002	2.61890E-001	3.57870E+000	9	...........
	59	0.8	2.52835E-001	-9.89582E-005	0.00000E+000	-2.50201E-005	-5.99601E-002	2.52888E-001	3.57870E+000	9	...........
	60	0.813333	2.43877E-001	-9.91520E-005	0.00000E+000	-2.41809E-005	-5.99601E-002	2.43921E-001	3.57870E+000	9	...........
	61	0.826667	2.34955E-001	-9.80529E-005	0.00000E+000	-2.30380E-005	-5.99601E-002	2.34993E-001	3.57870E+000	9	...........
	62	0.84	2.26067E-001	-9.85498E-005	0.00000E+000	-2.22789E-005	-5.99601E-002	2.26107E-001	3.57870E+000	9	...........
	63	0.853333	2.17221E-001	-9.78757E-005	0.00000E+000	-2.12606E-005	-5.99601E-002	2.17253E-001	3.57870E+000	9	...........
	64	0.866667	2.08412E-001	-9.91968E-005	0.00000E+000	-2.06738E-005	-5.99601E-002	2.08444E-001	3.57870E+000	9	...........
	65	0.88	1.99640E-001	-9.81164E-005	0.00000E+000	-1.95880E-005	-5.99601E-002	1.99674E-001	3.57870E+000	9	...........
	66	0.893333	1.90914E-001	-9.94177E-005	0.00000E+000	-1.89802E-005	-5.99601E-002	1.90951E-001	3.57870E+000	9	...........
	67	0.906667	1.82239E-001	-9.88853E-005	0.00000E+000	-1.80208E-005	-5.99601E-002	1.82268E-001	3.57870E+000	9	...........
	68	0.92	1.73609E-001	-9.95740E-005	0.00000E+000	-1.72869E-005	-5.99601E-002	1.73631E-001	3.57870E+000	9	...........
	69	0.933333	1.65028E-001	-9.87165E-005	0.00000E+000	-1.62910E-005	-5.99601E-002	1.65055E-001	3.57870E+000	9	...........
	70	0.946667	1.56495E-001	-9.98168E-005	0.00000E+000	-1.56208E-005	-5.99601E-002	1.56518E-001	3.57870E+000	9	...........
	71	0.96	1.48023E-001	-9.90864E-005	0.00000E+000	-1.46670E-005	-5.99601E-002	1.48040E-001	3.57870E+000	9	...........
	72	0.97333	1.39603E-001	-9.89624E-005	0.00000E+000	-1.38154E-005	-5.99601E-002	1.39621E-001	3.57870E+000	9	...........
	73	0.98667	1.31239E-001	-9.90291E-005	0.00000E+000	-1.29965E-005	-5.99601E-002	1.31257E-001	3.57870E+000	9	...........
	74	1	1.22939E-001	-9.79070E-005	0.00000E+000	-1.20366E-005	-5.99601E-002	1.22953E-001	3.57870E+000	9	...........
	75	1.01333	1.14700E-001	-9.87613E-005	0.00000E+000	-1.13279E-005	-5.99601E-002	1.14713E-001	3.57870E+000	9	...........
	76	1.02667	1.06527E-001	-9.90979E-005	0.00000E+000	-1.05566E-005	-5.99601E-002	1.06538E-001	3.57870E+000	9	...........
	77	1.04	9.84183E-002	-9.80591E-005	0.00000E+000	-9.65081E-006	-5.99601E-002	9.84254E-002	3.57870E+000	9	...........
	78	1.05333	9.03755E-002	-9.97511E-005	0.00000E+000	-9.01506E-006	-5.99601E-002	9.03803E-002	3.57870E+000	9	...........
	79	1.06667	8.24017E-002	-9.90510E-005	0.00000E+000	-8.16197E-006	-5.99601E-002	8.24038E-002	3.57870E+000	9	...........
	80	1.08	7.44985E-002	-9.95500E-005	0.00000E+000	-7.41633E-006	-5.99601E-002	7.44951E-002	3.57870E+000	9	...........
	81	1.09333	6.66541E-002	-9.98220E-005	0.00000E+000	-6.65355E-006	-5.99601E-002	6.66460E-002	3.57870E+000	9	...........
	82	1.10667	5.88734E-002	-9.91562E-005	0.00000E+000	-5.83766E-006	-5.99601E-002	5.88663E-002	3.57870E+000	9	...........
	83	1.12	5.11608E-002	-9.84696E-005	0.00000E+000	-5.03779E-006	-5.99601E-002	5.11542E-002	3.57870E+000	9	...........
	84	1.13333	4.35471E-002	-9.87957E-005	0.00000E+000	-4.30227E-006	-5.99601E-002	4.35390E-002	3.57870E+000	9	...........
	85	1.14667	3.59581E-002	-9.77153E-005	0.00000E+000	-3.51366E-006	-5.99601E-002	3.59454E-002	3.57870E+000	9	...........
	86	1.16	2.84264E-002	-9.93323E-005	0.00000E+000	-2.82366E-006	-5.99601E-002	2.84078E-002	3.57870E+000	9	...........
	87	1.17333	2.09601E-002	-9.90593E-005	0.00000E+000	-2.07629E-006	-5.99601E-002	2.09394E-002	3.57870E+000	9	...........
	88	1.18667	1.35511E-002	-9.93094E-005	0.00000E+000	-1.34575E-006	-5.99601E-002	1.35304E-002	3.57870E+000	9	...........
	89	1.2	6.21025E-003	-9.76851E-005	0.00000E+000	-6.06648E-007	-5.99601E-002	6.17983E-003	3.57870E+000	9	...........
	90	1.20667	7.36052E-004	-9.95688E-005	0.00000E+000	-7.32878E-008	-5.99601E-002	7.01700E-004	3.57870E+000	9	...........
STARTTIMEOFFSET	QUANT	514.7732	Start Time Offset (s)
