EXPLAIN
TAG	PWR800_DISCHARGE
TITLE	LABEL	PWR Cyclic Charge Discharge (Cell) - Discharge Step	Test &Identifier
DATE	LABEL	13-7-2017	Date
TIME	LABEL	15:38:44	Time
NOTES	NOTES	2	&Notes...
	supercap test cell
	6M KOH
PSTAT	PSTAT	IFC5000-01520	Potentiostat
CAPACITY	QUANT	1.00000E-003	Capacity (A-hr)
CELLTYPE	SELECTOR	1	&Cell Type
WORKINGCONNECTION	SELECTOR	0	&Working Lead
MAXDISCHARGETIME	VARIABLEANDUNITS	1.00000E+002	s	1.00000E+002	second(s)	Max &Discharge Time
DISCHARGEMODE	MULTIPARAM	0	1.00000E-004	&Discharge Mode	Constant Current	Amp(s)
SAMPLETIME	QUANT	1.00000E-002	Sa&mple Period (s)
DISCHARGESTOPAT1	MULTIPARAM	3	0.00000E+000	Discharge Stop At &1	Voltage < Limit	V
DISCHARGESTOPAT2	MULTIPARAM	0	0.00000E+000	Discharge Stop At &2	None	N/A
AESBHCSELECTOR	TOGGLE	F	Save Both Half Cells
IRCOMP	TOGGLE	F	IR &Measure
EOC	QUANT	0	Open Circuit (V)
SEQUENCER	TOGGLE	TRUE	Run as Sequence
PSTATMODEL	IQUANT	53	Pstat Model
PSTATSECTION	LABEL	IFC5000-01520	Pstat Section
PSTATSERIALNO	LABEL	01520	Pstat Serial Number
CTRLMODE	IQUANT	0	Control Mode
ELECTROMETER	IQUANT	1	RE=0 or CS=1
IESTAB	IQUANT	0	I/E Stability
CASPEED	IQUANT	4	Control Amp Speed
CONVENTION	IQUANT	1	Current Convention
ICHRANGE	IQUANT	2	Ich Range
ICHRANGEMODE	TOGGLE	T	Ich Auto Range
ICHOFFSETENABLE	TOGGLE	F	Ich Offset Enable
ICHOFFSET	QUANT	0	Ich Offset (V)
ICHFILTER	IQUANT	1	Ich Filter
VCHRANGE	IQUANT	2	Vch Range
VCHRANGEMODE	TOGGLE	T	Vch Auto Range
VCHOFFSETENABLE	TOGGLE	F	Vch Offset Enable
VCHOFFSET	QUANT	0	Vch Offset (V)
VCHFILTER	IQUANT	1	Vch Filter
IERANGELOWERLIMIT	IQUANT	9	I/E Range Lower Limit
IERANGEMODE	TOGGLE	F	I/E AutoRange
IERANGE	IQUANT	9	I/E Range
ACHSELECT	IQUANT	1	Ach Select
ACHRANGE	IQUANT	2	Ach Range
ACHOFFSETENABLE	TOGGLE	F	Ach Offset Enable
ACHOFFSET	QUANT	0	Ach Offset (V)
ACHFILTER	IQUANT	1	Ach Filter
CABLEID	IQUANT	14	Cable ID
DCCALDATE	LABEL	5-7-2017	DC Calibration Date
ACCALDATE	LABEL	12/3/2015	AC Calibration Date
FRAMEWORKVERSION	QUANT	7.01	Framework Version
INSTRUMENTVERSION	LABEL	4.00	Instrument Version
CURVE	TABLE	87
	Pt	T	Vf	Im	Vu	Pwr	Sig	Ach	Temp	IERange	Over
	#	s	V	A	V	W	V	V	deg C	#	bits
	0	0.013333	8.46867E-001	-9.94584E-005	0.00000E+000	-8.42280E-005	-5.99601E-002	8.47221E-001	3.57900E+000	9	...........
	1	0.026667	8.32677E-001	-9.88593E-005	0.00000E+000	-8.23178E-005	-5.99601E-002	8.33018E-001	3.57900E+000	9	...........
	2	0.04	8.19351E-001	-9.99032E-005	0.00000E+000	-8.18558E-005	-5.99601E-002	8.19686E-001	3.57900E+000	9	...........
	3	0.053333	8.06565E-001	-9.94313E-005	0.00000E+000	-8.01977E-005	-5.99601E-002	8.06892E-001	3.57900E+000	9	...........
	4	0.066667	7.94197E-001	-9.95605E-005	0.00000E+000	-7.90707E-005	-5.99601E-002	7.94523E-001	3.57900E+000	9	...........
	5	0.08	7.82125E-001	-9.83415E-005	0.00000E+000	-7.69154E-005	-5.99601E-002	7.82440E-001	3.57900E+000	9	...........
	6	0.093333	7.70266E-001	-9.90031E-005	0.00000E+000	-7.62587E-005	-5.99601E-002	7.70581E-001	3.57900E+000	9	...........
	7	0.106667	7.58579E-001	-9.93969E-005	0.00000E+000	-7.54004E-005	-5.99601E-002	7.58842E-001	3.57900E+000	9	...........
	8	0.12	7.47001E-001	-9.97824E-005	0.00000E+000	-7.45376E-005	-5.99601E-002	7.47288E-001	3.57900E+000	9	...........
	9	0.133333	7.35522E-001	-9.86186E-005	0.00000E+000	-7.25361E-005	-5.99601E-002	7.35794E-001	3.57900E+000	9	...........
	10	0.146667	7.24140E-001	-9.89937E-005	0.00000E+000	-7.16853E-005	-5.99601E-002	7.24401E-001	3.57900E+000	9	...........
	11	0.16	7.12771E-001	-9.90749E-005	0.00000E+000	-7.06178E-005	-5.99601E-002	7.13033E-001	3.57900E+000	9	...........
	12	0.173333	7.01477E-001	-9.94365E-005	0.00000E+000	-6.97524E-005	-5.99601E-002	7.01744E-001	3.57900E+000	9	...........
	13	0.186667	6.90220E-001	-9.90937E-005	0.00000E+000	-6.83965E-005	-5.99601E-002	6.90489E-001	3.57900E+000	9	...........
	14	0.2	6.78996E-001	-9.87447E-005	0.00000E+000	-6.70472E-005	-5.99601E-002	6.79278E-001	3.57900E+000	9	...........
	15	0.213333	6.67769E-001	-9.94167E-005	0.00000E+000	-6.63874E-005	-5.99601E-002	6.68070E-001	3.57900E+000	9	...........
	16	0.226667	6.56593E-001	-9.82935E-005	0.00000E+000	-6.45388E-005	-5.99601E-002	6.56882E-001	3.57900E+000	9	...........
	17	0.24	6.45422E-001	-9.85842E-005	0.00000E+000	-6.36285E-005	-5.99601E-002	6.45709E-001	3.57900E+000	9	...........
	18	0.253333	6.34262E-001	-9.88697E-005	0.00000E+000	-6.27093E-005	-5.99601E-002	6.34564E-001	3.57900E+000	9	...........
	19	0.266667	6.23181E-001	-9.85790E-005	0.00000E+000	-6.14325E-005	-5.99601E-002	6.23453E-001	3.57900E+000	9	...........
	20	0.28	6.12064E-001	-9.85530E-005	0.00000E+000	-6.03207E-005	-5.99601E-002	6.12343E-001	3.57900E+000	9	...........
	21	0.293333	6.00992E-001	-9.94948E-005	0.00000E+000	-5.97956E-005	-5.99601E-002	6.01273E-001	3.57900E+000	9	...........
	22	0.306667	5.89966E-001	-9.91885E-005	0.00000E+000	-5.85178E-005	-5.99601E-002	5.90241E-001	3.57900E+000	9	...........
	23	0.32	5.78942E-001	-9.79247E-005	0.00000E+000	-5.66927E-005	-5.99601E-002	5.79191E-001	3.57900E+000	9	...........
	24	0.333333	5.67980E-001	-9.83675E-005	0.00000E+000	-5.58708E-005	-5.99601E-002	5.68231E-001	3.57900E+000	9	...........
	25	0.346667	5.56987E-001	-9.96907E-005	0.00000E+000	-5.55264E-005	-5.99601E-002	5.57279E-001	3.57900E+000	9	...........
	26	0.36	5.46111E-001	-9.86717E-005	0.00000E+000	-5.38857E-005	-5.99601E-002	5.46341E-001	3.57900E+000	9	...........
	27	0.373333	5.35217E-001	-9.87530E-005	0.00000E+000	-5.28543E-005	-5.99601E-002	5.35461E-001	3.57900E+000	9	...........
	28	0.386667	5.24403E-001	-9.86988E-005	0.00000E+000	-5.17579E-005	-5.99601E-002	5.24624E-001	3.57900E+000	9	...........
	29	0.4	5.13631E-001	-9.86446E-005	0.00000E+000	-5.06670E-005	-5.99601E-002	5.13849E-001	3.57900E+000	9	...........
	30	0.413333	5.02846E-001	-9.93813E-005	0.00000E+000	-4.99735E-005	-5.99601E-002	5.03116E-001	3.57900E+000	9	...........
	31	0.426667	4.92177E-001	-9.88322E-005	0.00000E+000	-4.86429E-005	-5.99601E-002	4.92424E-001	3.57900E+000	9	...........
	32	0.44	4.81835E-001	-9.93813E-005	0.00000E+000	-4.78854E-005	-5.99601E-002	4.81968E-001	3.57900E+000	9	...........
	33	0.453333	4.71350E-001	-9.93771E-005	0.00000E+000	-4.68414E-005	-5.99601E-002	4.71452E-001	3.57900E+000	9	...........
	34	0.466667	4.60843E-001	-9.81570E-005	0.00000E+000	-4.52350E-005	-5.99601E-002	4.60942E-001	3.57900E+000	9	...........
	35	0.48	4.50393E-001	-9.93365E-005	0.00000E+000	-4.47405E-005	-5.99601E-002	4.50493E-001	3.57900E+000	9	...........
	36	0.493333	4.40014E-001	-9.93354E-005	0.00000E+000	-4.37090E-005	-5.99601E-002	4.40107E-001	3.57900E+000	9	...........
	37	0.506667	4.29694E-001	-9.93938E-005	0.00000E+000	-4.27089E-005	-5.99601E-002	4.29793E-001	3.57900E+000	9	...........
	38	0.52	4.19442E-001	-9.97115E-005	0.00000E+000	-4.18232E-005	-5.99601E-002	4.19536E-001	3.57900E+000	9	...........
	39	0.533333	4.09267E-001	-9.91322E-005	0.00000E+000	-4.05716E-005	-5.99601E-002	4.09354E-001	3.57900E+000	9	...........
	40	0.546667	3.99151E-001	-9.95042E-005	0.00000E+000	-3.97172E-005	-5.99601E-002	3.99230E-001	3.57900E+000	9	...........
	41	0.56	3.89103E-001	-9.92969E-005	0.00000E+000	-3.86367E-005	-5.99601E-002	3.89182E-001	3.57900E+000	9	...........
	42	0.573333	3.79114E-001	-9.83279E-005	0.00000E+000	-3.72775E-005	-5.99601E-002	3.79190E-001	3.57900E+000	9	...........
	43	0.586667	3.69191E-001	-9.88728E-005	0.00000E+000	-3.65029E-005	-5.99601E-002	3.69266E-001	3.57900E+000	9	...........
	44	0.6	3.59327E-001	-9.89249E-005	0.00000E+000	-3.55464E-005	-5.99601E-002	3.59399E-001	3.57900E+000	9	...........
	45	0.613333	3.49532E-001	-9.90958E-005	0.00000E+000	-3.46371E-005	-5.99601E-002	3.49599E-001	3.57900E+000	9	...........
	46	0.626667	3.39787E-001	-9.87468E-005	0.00000E+000	-3.35528E-005	-5.99601E-002	3.39857E-001	3.57900E+000	9	...........
	47	0.64	3.30105E-001	-9.88697E-005	0.00000E+000	-3.26374E-005	-5.99601E-002	3.30166E-001	3.57900E+000	9	...........
	48	0.653333	3.20479E-001	-9.85842E-005	0.00000E+000	-3.15942E-005	-5.99601E-002	3.20543E-001	3.57900E+000	9	...........
	49	0.666667	3.10906E-001	-9.80049E-005	0.00000E+000	-3.04703E-005	-5.99601E-002	3.10965E-001	3.57900E+000	9	...........
	50	0.68	3.01384E-001	-9.93094E-005	0.00000E+000	-2.99302E-005	-5.99601E-002	3.01446E-001	3.57900E+000	9	...........
	51	0.693333	2.91920E-001	-9.86655E-005	0.00000E+000	-2.88024E-005	-5.99601E-002	2.91972E-001	3.57900E+000	9	...........
	52	0.706667	2.82496E-001	-9.80549E-005	0.00000E+000	-2.77001E-005	-5.99601E-002	2.82551E-001	3.57900E+000	9	...........
	53	0.72	2.73129E-001	-9.82539E-005	0.00000E+000	-2.68360E-005	-5.99601E-002	2.73183E-001	3.57911E+000	9	...........
	54	0.733333	2.63815E-001	-9.93146E-005	0.00000E+000	-2.62006E-005	-5.99601E-002	2.63861E-001	3.57990E+000	9	...........
	55	0.746667	2.54539E-001	-9.82654E-005	0.00000E+000	-2.50124E-005	-5.99601E-002	2.54590E-001	3.57990E+000	9	...........
	56	0.76	2.45321E-001	-9.85321E-005	0.00000E+000	-2.41720E-005	-5.99601E-002	2.45361E-001	3.57990E+000	9	...........
	57	0.773333	2.36143E-001	-9.88041E-005	0.00000E+000	-2.33319E-005	-5.99601E-002	2.36181E-001	3.57990E+000	9	...........
	58	0.786667	2.27021E-001	-9.90426E-005	0.00000E+000	-2.24848E-005	-5.99601E-002	2.27055E-001	3.57990E+000	9	...........
	59	0.8	2.17949E-001	-9.86728E-005	0.00000E+000	-2.15056E-005	-5.99601E-002	2.17981E-001	3.57990E+000	9	...........
	60	0.813333	2.08925E-001	-9.90989E-005	0.00000E+000	-2.07043E-005	-5.99601E-002	2.08960E-001	3.57990E+000	9	...........
	61	0.826667	1.99956E-001	-9.87103E-005	0.00000E+000	-1.97377E-005	-5.99601E-002	1.99990E-001	3.57990E+000	9	...........
	62	0.84	1.91038E-001	-9.91364E-005	0.00000E+000	-1.89388E-005	-5.99601E-002	1.91072E-001	3.57990E+000	9	...........
	63	0.853333	1.82185E-001	-9.91104E-005	0.00000E+000	-1.80564E-005	-5.99601E-002	1.82216E-001	3.57990E+000	9	...........
	64	0.866667	1.73391E-001	-9.86155E-005	0.00000E+000	-1.70990E-005	-5.99601E-002	1.73419E-001	3.57990E+000	9	...........
	65	0.88	1.64664E-001	-9.97553E-005	0.00000E+000	-1.64261E-005	-5.99601E-002	1.64683E-001	3.57990E+000	9	...........
	66	0.893333	1.55995E-001	-9.83467E-005	0.00000E+000	-1.53416E-005	-5.99601E-002	1.56014E-001	3.57990E+000	9	...........
	67	0.906667	1.47391E-001	-9.90260E-005	0.00000E+000	-1.45955E-005	-5.99601E-002	1.47411E-001	3.57990E+000	9	...........
	68	0.92	1.38866E-001	-9.90604E-005	0.00000E+000	-1.37562E-005	-5.99601E-002	1.38883E-001	3.57990E+000	9	...........
	69	0.933333	1.30407E-001	-9.93469E-005	0.00000E+000	-1.29555E-005	-5.99601E-002	1.30423E-001	3.57990E+000	9	...........
	70	0.946667	1.22026E-001	-9.91896E-005	0.00000E+000	-1.21037E-005	-5.99601E-002	1.22040E-001	3.57990E+000	9	...........
	71	0.96	1.13710E-001	-9.87780E-005	0.00000E+000	-1.12320E-005	-5.99601E-002	1.13724E-001	3.57990E+000	9	...........
	72	0.97333	1.05478E-001	-9.82727E-005	0.00000E+000	-1.03656E-005	-5.99601E-002	1.05488E-001	3.57990E+000	9	...........
	73	0.98667	9.73152E-002	-9.91322E-005	0.00000E+000	-9.64707E-006	-5.99601E-002	9.73217E-002	3.57990E+000	9	...........
	74	1	8.92287E-002	-9.95532E-005	0.00000E+000	-8.88300E-006	-5.99601E-002	8.92322E-002	3.57990E+000	9	...........
	75	1.01333	8.12219E-002	-9.83821E-005	0.00000E+000	-7.99078E-006	-5.99601E-002	8.12208E-002	3.57990E+000	9	...........
	76	1.02667	7.32797E-002	-9.83863E-005	0.00000E+000	-7.20972E-006	-5.99601E-002	7.32746E-002	3.57990E+000	9	...........
	77	1.04	6.54089E-002	-9.89718E-005	0.00000E+000	-6.47364E-006	-5.99601E-002	6.54058E-002	3.57990E+000	9	...........
	78	1.05333	5.76063E-002	-9.94375E-005	0.00000E+000	-5.72822E-006	-5.99601E-002	5.76068E-002	3.57990E+000	9	...........
	79	1.06667	4.98832E-002	-1.00110E-004	0.00000E+000	-4.99379E-006	-5.99601E-002	4.98829E-002	3.57990E+000	9	...........
	80	1.08	4.22529E-002	-9.86019E-005	0.00000E+000	-4.16622E-006	-5.99601E-002	4.22441E-002	3.57990E+000	9	...........
	81	1.09333	3.46603E-002	-9.90437E-005	0.00000E+000	-3.43289E-006	-5.99601E-002	3.46458E-002	3.57990E+000	9	...........
	82	1.10667	2.71303E-002	-9.88937E-005	0.00000E+000	-2.68301E-006	-5.99601E-002	2.71167E-002	3.57990E+000	9	...........
	83	1.12	1.96707E-002	-9.90843E-005	0.00000E+000	-1.94905E-006	-5.99601E-002	1.96454E-002	3.57990E+000	9	...........
	84	1.13333	1.22781E-002	-9.84321E-005	0.00000E+000	-1.20856E-006	-5.99601E-002	1.22494E-002	3.57990E+000	9	...........
	85	1.14667	4.94918E-003	-9.90354E-005	0.00000E+000	-4.90144E-007	-5.99601E-002	4.91453E-003	3.57990E+000	9	...........
	86	1.15	3.96352E-004	-9.77017E-005	0.00000E+000	-3.87243E-008	-5.99601E-002	3.62253E-004	3.57990E+000	9	...........
STARTTIMEOFFSET	QUANT	1660.649	Start Time Offset (s)
