EXPLAIN
TAG	PWR800_DISCHARGE
TITLE	LABEL	PWR Cyclic Charge Discharge (Cell) - Discharge Step	Test &Identifier
DATE	LABEL	13-7-2017	Date
TIME	LABEL	15:39:43	Time
NOTES	NOTES	2	&Notes...
	supercap test cell
	6M KOH
PSTAT	PSTAT	IFC5000-01520	Potentiostat
CAPACITY	QUANT	1.00000E-003	Capacity (A-hr)
CELLTYPE	SELECTOR	1	&Cell Type
WORKINGCONNECTION	SELECTOR	0	&Working Lead
MAXDISCHARGETIME	VARIABLEANDUNITS	1.00000E+002	s	1.00000E+002	second(s)	Max &Discharge Time
DISCHARGEMODE	MULTIPARAM	0	1.00000E-004	&Discharge Mode	Constant Current	Amp(s)
SAMPLETIME	QUANT	1.00000E-002	Sa&mple Period (s)
DISCHARGESTOPAT1	MULTIPARAM	3	0.00000E+000	Discharge Stop At &1	Voltage < Limit	V
DISCHARGESTOPAT2	MULTIPARAM	0	0.00000E+000	Discharge Stop At &2	None	N/A
AESBHCSELECTOR	TOGGLE	F	Save Both Half Cells
IRCOMP	TOGGLE	F	IR &Measure
EOC	QUANT	0	Open Circuit (V)
SEQUENCER	TOGGLE	TRUE	Run as Sequence
PSTATMODEL	IQUANT	53	Pstat Model
PSTATSECTION	LABEL	IFC5000-01520	Pstat Section
PSTATSERIALNO	LABEL	01520	Pstat Serial Number
CTRLMODE	IQUANT	0	Control Mode
ELECTROMETER	IQUANT	1	RE=0 or CS=1
IESTAB	IQUANT	0	I/E Stability
CASPEED	IQUANT	4	Control Amp Speed
CONVENTION	IQUANT	1	Current Convention
ICHRANGE	IQUANT	2	Ich Range
ICHRANGEMODE	TOGGLE	T	Ich Auto Range
ICHOFFSETENABLE	TOGGLE	F	Ich Offset Enable
ICHOFFSET	QUANT	0	Ich Offset (V)
ICHFILTER	IQUANT	1	Ich Filter
VCHRANGE	IQUANT	2	Vch Range
VCHRANGEMODE	TOGGLE	T	Vch Auto Range
VCHOFFSETENABLE	TOGGLE	F	Vch Offset Enable
VCHOFFSET	QUANT	0	Vch Offset (V)
VCHFILTER	IQUANT	1	Vch Filter
IERANGELOWERLIMIT	IQUANT	9	I/E Range Lower Limit
IERANGEMODE	TOGGLE	F	I/E AutoRange
IERANGE	IQUANT	9	I/E Range
ACHSELECT	IQUANT	1	Ach Select
ACHRANGE	IQUANT	2	Ach Range
ACHOFFSETENABLE	TOGGLE	F	Ach Offset Enable
ACHOFFSET	QUANT	0	Ach Offset (V)
ACHFILTER	IQUANT	1	Ach Filter
CABLEID	IQUANT	14	Cable ID
DCCALDATE	LABEL	5-7-2017	DC Calibration Date
ACCALDATE	LABEL	12/3/2015	AC Calibration Date
FRAMEWORKVERSION	QUANT	7.01	Framework Version
INSTRUMENTVERSION	LABEL	4.00	Instrument Version
CURVE	TABLE	87
	Pt	T	Vf	Im	Vu	Pwr	Sig	Ach	Temp	IERange	Over
	#	s	V	A	V	W	V	V	deg C	#	bits
	0	0.013333	8.46014E-001	-9.92521E-005	0.00000E+000	-8.39687E-005	-5.99601E-002	8.46354E-001	3.57990E+000	9	...........
	1	0.026667	8.31811E-001	-9.86978E-005	0.00000E+000	-8.20979E-005	-5.99601E-002	8.32133E-001	3.57990E+000	9	...........
	2	0.04	8.18438E-001	-9.94875E-005	0.00000E+000	-8.14243E-005	-5.99601E-002	8.18766E-001	3.57990E+000	9	...........
	3	0.053333	8.05649E-001	-9.90156E-005	0.00000E+000	-7.97718E-005	-5.99601E-002	8.05966E-001	3.57990E+000	9	...........
	4	0.066667	7.93267E-001	-9.91156E-005	0.00000E+000	-7.86251E-005	-5.99601E-002	7.93546E-001	3.57990E+000	9	...........
	5	0.08	7.81159E-001	-9.89416E-005	0.00000E+000	-7.72891E-005	-5.99601E-002	7.81447E-001	3.57990E+000	9	...........
	6	0.093333	7.69287E-001	-9.80758E-005	0.00000E+000	-7.54484E-005	-5.99601E-002	7.69559E-001	3.57990E+000	9	...........
	7	0.106667	7.57568E-001	-9.91468E-005	0.00000E+000	-7.51104E-005	-5.99601E-002	7.57849E-001	3.57990E+000	9	...........
	8	0.12	7.45972E-001	-9.86186E-005	0.00000E+000	-7.35667E-005	-5.99601E-002	7.46244E-001	3.57990E+000	9	...........
	9	0.133333	7.34468E-001	-9.88489E-005	0.00000E+000	-7.26013E-005	-5.99601E-002	7.34754E-001	3.57990E+000	9	...........
	10	0.146667	7.23067E-001	-9.86842E-005	0.00000E+000	-7.13554E-005	-5.99601E-002	7.23313E-001	3.57990E+000	9	...........
	11	0.16	7.11656E-001	-9.91260E-005	0.00000E+000	-7.05436E-005	-5.99601E-002	7.11956E-001	3.57990E+000	9	...........
	12	0.173333	7.00377E-001	-9.84154E-005	0.00000E+000	-6.89279E-005	-5.99601E-002	7.00634E-001	3.57990E+000	9	...........
	13	0.186667	6.89074E-001	-9.97105E-005	0.00000E+000	-6.87079E-005	-5.99601E-002	6.89340E-001	3.57990E+000	9	...........
	14	0.2	6.77816E-001	-9.82873E-005	0.00000E+000	-6.66207E-005	-5.99601E-002	6.78089E-001	3.57990E+000	9	...........
	15	0.213333	6.66600E-001	-9.82967E-005	0.00000E+000	-6.55246E-005	-5.99601E-002	6.66892E-001	3.57990E+000	9	...........
	16	0.226667	6.55387E-001	-9.92156E-005	0.00000E+000	-6.50247E-005	-5.99601E-002	6.55672E-001	3.57990E+000	9	...........
	17	0.24	6.44212E-001	-9.88666E-005	0.00000E+000	-6.36910E-005	-5.99601E-002	6.44491E-001	3.57990E+000	9	...........
	18	0.253333	6.33007E-001	-9.90833E-005	0.00000E+000	-6.27204E-005	-5.99601E-002	6.33311E-001	3.57990E+000	9	...........
	19	0.266667	6.21910E-001	-9.94646E-005	0.00000E+000	-6.18580E-005	-5.99601E-002	6.22177E-001	3.57990E+000	9	...........
	20	0.28	6.10747E-001	-9.89978E-005	0.00000E+000	-6.04627E-005	-5.99601E-002	6.11042E-001	3.57990E+000	9	...........
	21	0.293333	5.99666E-001	-9.92083E-005	0.00000E+000	-5.94918E-005	-5.99601E-002	5.99960E-001	3.57854E+000	9	...........
	22	0.306667	5.88608E-001	-9.92156E-005	0.00000E+000	-5.83991E-005	-5.99601E-002	5.88885E-001	3.57850E+000	9	...........
	23	0.32	5.77571E-001	-9.88884E-005	0.00000E+000	-5.71151E-005	-5.99601E-002	5.77860E-001	3.57850E+000	9	...........
	24	0.333333	5.66598E-001	-9.93552E-005	0.00000E+000	-5.62945E-005	-5.99601E-002	5.66856E-001	3.57850E+000	9	...........
	25	0.346667	5.55582E-001	-9.81612E-005	0.00000E+000	-5.45366E-005	-5.99601E-002	5.55855E-001	3.57850E+000	9	...........
	26	0.36	5.44673E-001	-9.84998E-005	0.00000E+000	-5.36502E-005	-5.99601E-002	5.44935E-001	3.57850E+000	9	...........
	27	0.373333	5.33781E-001	-9.89249E-005	0.00000E+000	-5.28043E-005	-5.99601E-002	5.34017E-001	3.57850E+000	9	...........
	28	0.386667	5.22925E-001	-9.87676E-005	0.00000E+000	-5.16480E-005	-5.99601E-002	5.23185E-001	3.57850E+000	9	...........
	29	0.4	5.12114E-001	-9.97136E-005	0.00000E+000	-5.10648E-005	-5.99601E-002	5.12386E-001	3.57850E+000	9	...........
	30	0.413333	5.01353E-001	-9.87540E-005	0.00000E+000	-4.95106E-005	-5.99601E-002	5.01625E-001	3.57850E+000	9	...........
	31	0.426667	4.90656E-001	-9.89593E-005	0.00000E+000	-4.85550E-005	-5.99601E-002	4.90941E-001	3.57850E+000	9	...........
	32	0.44	4.80358E-001	-9.86947E-005	0.00000E+000	-4.74088E-005	-5.99601E-002	4.80476E-001	3.57850E+000	9	...........
	33	0.453333	4.69828E-001	-9.82081E-005	0.00000E+000	-4.61409E-005	-5.99601E-002	4.69923E-001	3.57850E+000	9	...........
	34	0.466667	4.59311E-001	-9.91531E-005	0.00000E+000	-4.55421E-005	-5.99601E-002	4.59410E-001	3.57850E+000	9	...........
	35	0.48	4.48858E-001	-9.95042E-005	0.00000E+000	-4.46632E-005	-5.99601E-002	4.48951E-001	3.57850E+000	9	...........
	36	0.493333	4.38471E-001	-9.90614E-005	0.00000E+000	-4.34355E-005	-5.99601E-002	4.38567E-001	3.57850E+000	9	...........
	37	0.506667	4.28152E-001	-9.88468E-005	0.00000E+000	-4.23214E-005	-5.99601E-002	4.28245E-001	3.57850E+000	9	...........
	38	0.52	4.17898E-001	-9.90979E-005	0.00000E+000	-4.14128E-005	-5.99601E-002	4.17987E-001	3.57850E+000	9	...........
	39	0.533333	4.07718E-001	-9.81310E-005	0.00000E+000	-4.00098E-005	-5.99601E-002	4.07802E-001	3.57850E+000	9	...........
	40	0.546667	3.97597E-001	-9.91104E-005	0.00000E+000	-3.94060E-005	-5.99601E-002	3.97679E-001	3.57850E+000	9	...........
	41	0.56	3.87542E-001	-9.84300E-005	0.00000E+000	-3.81458E-005	-5.99601E-002	3.87620E-001	3.57850E+000	9	...........
	42	0.573333	3.77557E-001	-9.85071E-005	0.00000E+000	-3.71920E-005	-5.99601E-002	3.77633E-001	3.57850E+000	9	...........
	43	0.586667	3.67629E-001	-9.89145E-005	0.00000E+000	-3.63638E-005	-5.99601E-002	3.67703E-001	3.57850E+000	9	...........
	44	0.6	3.57767E-001	-9.89937E-005	0.00000E+000	-3.54167E-005	-5.99601E-002	3.57840E-001	3.57850E+000	9	...........
	45	0.613333	3.47962E-001	-9.87801E-005	0.00000E+000	-3.43718E-005	-5.99601E-002	3.48029E-001	3.57850E+000	9	...........
	46	0.626667	3.38211E-001	-9.87384E-005	0.00000E+000	-3.33944E-005	-5.99601E-002	3.38277E-001	3.57850E+000	9	...........
	47	0.64	3.28527E-001	-9.85603E-005	0.00000E+000	-3.23798E-005	-5.99601E-002	3.28594E-001	3.57850E+000	9	...........
	48	0.653333	3.18901E-001	-9.88238E-005	0.00000E+000	-3.15150E-005	-5.99601E-002	3.18961E-001	3.57850E+000	9	...........
	49	0.666667	3.09321E-001	-9.86499E-005	0.00000E+000	-3.05144E-005	-5.99601E-002	3.09383E-001	3.57850E+000	9	...........
	50	0.68	2.99803E-001	-9.85957E-005	0.00000E+000	-2.95593E-005	-5.99601E-002	2.99861E-001	3.57850E+000	9	...........
	51	0.693333	2.90334E-001	-9.85009E-005	0.00000E+000	-2.85981E-005	-5.99601E-002	2.90393E-001	3.57850E+000	9	...........
	52	0.706667	2.80921E-001	-9.84133E-005	0.00000E+000	-2.76464E-005	-5.99601E-002	2.80975E-001	3.57850E+000	9	...........
	53	0.72	2.71551E-001	-9.90510E-005	0.00000E+000	-2.68974E-005	-5.99601E-002	2.71606E-001	3.57850E+000	9	...........
	54	0.733333	2.62236E-001	-9.88499E-005	0.00000E+000	-2.59220E-005	-5.99601E-002	2.62289E-001	3.57850E+000	9	...........
	55	0.746667	2.52972E-001	-9.82310E-005	0.00000E+000	-2.48497E-005	-5.99601E-002	2.53021E-001	3.57850E+000	9	...........
	56	0.76	2.43759E-001	-9.91354E-005	0.00000E+000	-2.41652E-005	-5.99601E-002	2.43797E-001	3.57850E+000	9	...........
	57	0.773333	2.34590E-001	-9.81945E-005	0.00000E+000	-2.30354E-005	-5.99601E-002	2.34626E-001	3.57850E+000	9	...........
	58	0.786667	2.25467E-001	-9.90906E-005	0.00000E+000	-2.23417E-005	-5.99601E-002	2.25500E-001	3.57850E+000	9	...........
	59	0.8	2.16399E-001	-9.83623E-005	0.00000E+000	-2.12855E-005	-5.99601E-002	2.16432E-001	3.57850E+000	9	...........
	60	0.813333	2.07387E-001	-9.87718E-005	0.00000E+000	-2.04839E-005	-5.99601E-002	2.07411E-001	3.57850E+000	9	...........
	61	0.826667	1.98417E-001	-9.85238E-005	0.00000E+000	-1.95488E-005	-5.99601E-002	1.98447E-001	3.57850E+000	9	...........
	62	0.84	1.89508E-001	-9.92739E-005	0.00000E+000	-1.88132E-005	-5.99601E-002	1.89539E-001	3.57850E+000	9	...........
	63	0.853333	1.80660E-001	-9.87593E-005	0.00000E+000	-1.78419E-005	-5.99601E-002	1.80688E-001	3.57850E+000	9	...........
	64	0.866667	1.71873E-001	-9.85269E-005	0.00000E+000	-1.69341E-005	-5.99601E-002	1.71901E-001	3.57850E+000	9	...........
	65	0.88	1.63162E-001	-9.83769E-005	0.00000E+000	-1.60514E-005	-5.99601E-002	1.63183E-001	3.57850E+000	9	...........
	66	0.893333	1.54510E-001	-9.88228E-005	0.00000E+000	-1.52691E-005	-5.99601E-002	1.54526E-001	3.57850E+000	9	...........
	67	0.906667	1.45927E-001	-9.97626E-005	0.00000E+000	-1.45581E-005	-5.99601E-002	1.45944E-001	3.57850E+000	9	...........
	68	0.92	1.37412E-001	-9.90749E-005	0.00000E+000	-1.36141E-005	-5.99601E-002	1.37424E-001	3.57850E+000	9	...........
	69	0.933333	1.28971E-001	-9.89687E-005	0.00000E+000	-1.27641E-005	-5.99601E-002	1.28985E-001	3.57850E+000	9	...........
	70	0.946667	1.20600E-001	-9.85207E-005	0.00000E+000	-1.18816E-005	-5.99601E-002	1.20620E-001	3.57850E+000	9	...........
	71	0.96	1.12299E-001	-9.89958E-005	0.00000E+000	-1.11171E-005	-5.99601E-002	1.12316E-001	3.57850E+000	9	...........
	72	0.97333	1.04078E-001	-9.90718E-005	0.00000E+000	-1.03112E-005	-5.99601E-002	1.04098E-001	3.57850E+000	9	...........
	73	0.98667	9.59345E-002	-9.96219E-005	0.00000E+000	-9.55718E-006	-5.99601E-002	9.59475E-002	3.57850E+000	9	...........
	74	1	8.78664E-002	-9.89041E-005	0.00000E+000	-8.69035E-006	-5.99601E-002	8.78717E-002	3.57850E+000	9	...........
	75	1.01333	7.98688E-002	-9.88916E-005	0.00000E+000	-7.89835E-006	-5.99601E-002	7.98717E-002	3.57850E+000	9	...........
	76	1.02667	7.19471E-002	-9.90072E-005	0.00000E+000	-7.12328E-006	-5.99601E-002	7.19425E-002	3.57850E+000	9	...........
	77	1.04	6.40870E-002	-9.95271E-005	0.00000E+000	-6.37840E-006	-5.99601E-002	6.40840E-002	3.57850E+000	9	...........
	78	1.05333	5.63000E-002	-9.92656E-005	0.00000E+000	-5.58865E-006	-5.99601E-002	5.62962E-002	3.57850E+000	9	...........
	79	1.06667	4.85961E-002	-9.95355E-005	0.00000E+000	-4.83703E-006	-5.99601E-002	4.85937E-002	3.57850E+000	9	...........
	80	1.08	4.09771E-002	-9.86394E-005	0.00000E+000	-4.04196E-006	-5.99601E-002	4.09665E-002	3.57850E+000	9	...........
	81	1.09333	3.33983E-002	-9.92562E-005	0.00000E+000	-3.31499E-006	-5.99601E-002	3.33842E-002	3.57850E+000	9	...........
	82	1.10667	2.58840E-002	-9.89937E-005	0.00000E+000	-2.56236E-006	-5.99601E-002	2.58682E-002	3.57850E+000	9	...........
	83	1.12	1.84394E-002	-9.87738E-005	0.00000E+000	-1.82133E-006	-5.99601E-002	1.84163E-002	3.57850E+000	9	...........
	84	1.13333	1.10540E-002	-9.84800E-005	0.00000E+000	-1.08860E-006	-5.99601E-002	1.10274E-002	3.57850E+000	9	...........
	85	1.14667	3.73976E-003	-9.87926E-005	0.00000E+000	-3.69461E-007	-5.99601E-002	3.70592E-003	3.57850E+000	9	...........
	86	1.14833	-3.51722E-004	-1.01286E-004	0.00000E+000	3.56244E-008	-5.99601E-002	-3.89521E-004	3.57850E+000	9	...........
STARTTIMEOFFSET	QUANT	1705.358	Start Time Offset (s)
