EXPLAIN
TAG	PWR800_DISCHARGE
TITLE	LABEL	PWR Cyclic Charge Discharge (Cell) - Discharge Step	Test &Identifier
DATE	LABEL	13-7-2017	Date
TIME	LABEL	15:12:33	Time
NOTES	NOTES	2	&Notes...
	supercap test cell
	6M KOH
PSTAT	PSTAT	IFC5000-01520	Potentiostat
CAPACITY	QUANT	1.00000E-003	Capacity (A-hr)
CELLTYPE	SELECTOR	1	&Cell Type
WORKINGCONNECTION	SELECTOR	0	&Working Lead
MAXDISCHARGETIME	VARIABLEANDUNITS	1.00000E+002	s	1.00000E+002	second(s)	Max &Discharge Time
DISCHARGEMODE	MULTIPARAM	0	1.00000E-004	&Discharge Mode	Constant Current	Amp(s)
SAMPLETIME	QUANT	1.00000E-002	Sa&mple Period (s)
DISCHARGESTOPAT1	MULTIPARAM	3	0.00000E+000	Discharge Stop At &1	Voltage < Limit	V
DISCHARGESTOPAT2	MULTIPARAM	0	0.00000E+000	Discharge Stop At &2	None	N/A
AESBHCSELECTOR	TOGGLE	F	Save Both Half Cells
IRCOMP	TOGGLE	F	IR &Measure
EOC	QUANT	0	Open Circuit (V)
SEQUENCER	TOGGLE	TRUE	Run as Sequence
PSTATMODEL	IQUANT	53	Pstat Model
PSTATSECTION	LABEL	IFC5000-01520	Pstat Section
PSTATSERIALNO	LABEL	01520	Pstat Serial Number
CTRLMODE	IQUANT	0	Control Mode
ELECTROMETER	IQUANT	1	RE=0 or CS=1
IESTAB	IQUANT	0	I/E Stability
CASPEED	IQUANT	4	Control Amp Speed
CONVENTION	IQUANT	1	Current Convention
ICHRANGE	IQUANT	2	Ich Range
ICHRANGEMODE	TOGGLE	T	Ich Auto Range
ICHOFFSETENABLE	TOGGLE	F	Ich Offset Enable
ICHOFFSET	QUANT	0	Ich Offset (V)
ICHFILTER	IQUANT	1	Ich Filter
VCHRANGE	IQUANT	2	Vch Range
VCHRANGEMODE	TOGGLE	T	Vch Auto Range
VCHOFFSETENABLE	TOGGLE	F	Vch Offset Enable
VCHOFFSET	QUANT	0	Vch Offset (V)
VCHFILTER	IQUANT	1	Vch Filter
IERANGELOWERLIMIT	IQUANT	9	I/E Range Lower Limit
IERANGEMODE	TOGGLE	F	I/E AutoRange
IERANGE	IQUANT	9	I/E Range
ACHSELECT	IQUANT	1	Ach Select
ACHRANGE	IQUANT	2	Ach Range
ACHOFFSETENABLE	TOGGLE	F	Ach Offset Enable
ACHOFFSET	QUANT	0	Ach Offset (V)
ACHFILTER	IQUANT	1	Ach Filter
CABLEID	IQUANT	14	Cable ID
DCCALDATE	LABEL	5-7-2017	DC Calibration Date
ACCALDATE	LABEL	12/3/2015	AC Calibration Date
FRAMEWORKVERSION	QUANT	7.01	Framework Version
INSTRUMENTVERSION	LABEL	4.00	Instrument Version
CURVE	TABLE	91
	Pt	T	Vf	Im	Vu	Pwr	Sig	Ach	Temp	IERange	Over
	#	s	V	A	V	W	V	V	deg C	#	bits
	0	0.013333	8.54847E-001	-9.86415E-005	0.00000E+000	-8.43234E-005	-5.99601E-002	8.55182E-001	3.58010E+000	9	...........
	1	0.026667	8.41490E-001	-9.92844E-005	0.00000E+000	-8.35468E-005	-5.99601E-002	8.41797E-001	3.58010E+000	9	...........
	2	0.04	8.28963E-001	-9.85686E-005	0.00000E+000	-8.17097E-005	-5.99601E-002	8.29291E-001	3.58010E+000	9	...........
	3	0.053333	8.16987E-001	-9.86342E-005	0.00000E+000	-8.05829E-005	-5.99601E-002	8.17337E-001	3.58010E+000	9	...........
	4	0.066667	8.05452E-001	-9.89635E-005	0.00000E+000	-7.97103E-005	-5.99601E-002	8.05751E-001	3.58010E+000	9	...........
	5	0.08	7.94176E-001	-9.92979E-005	0.00000E+000	-7.88600E-005	-5.99601E-002	7.94471E-001	3.58010E+000	9	...........
	6	0.093333	7.83131E-001	-9.94031E-005	0.00000E+000	-7.78457E-005	-5.99601E-002	7.83396E-001	3.58010E+000	9	...........
	7	0.106667	7.72272E-001	-9.93896E-005	0.00000E+000	-7.67558E-005	-5.99601E-002	7.72524E-001	3.57900E+000	9	...........
	8	0.12	7.61483E-001	-9.92031E-005	0.00000E+000	-7.55415E-005	-5.99601E-002	7.61745E-001	3.57900E+000	9	...........
	9	0.133333	7.50841E-001	-9.95355E-005	0.00000E+000	-7.47353E-005	-5.99601E-002	7.51104E-001	3.57900E+000	9	...........
	10	0.146667	7.40232E-001	-9.83685E-005	0.00000E+000	-7.28156E-005	-5.99601E-002	7.40521E-001	3.57900E+000	9	...........
	11	0.16	7.29741E-001	-9.94323E-005	0.00000E+000	-7.25598E-005	-5.99601E-002	7.30023E-001	3.57900E+000	9	...........
	12	0.173333	7.19294E-001	-9.85373E-005	0.00000E+000	-7.08773E-005	-5.99601E-002	7.19564E-001	3.57900E+000	9	...........
	13	0.186667	7.08832E-001	-9.97761E-005	0.00000E+000	-7.07245E-005	-5.99601E-002	7.09130E-001	3.57900E+000	9	...........
	14	0.2	6.98453E-001	-9.81820E-005	0.00000E+000	-6.85756E-005	-5.99601E-002	6.98732E-001	3.57900E+000	9	...........
	15	0.213333	6.88043E-001	-9.85155E-005	0.00000E+000	-6.77829E-005	-5.99601E-002	6.88347E-001	3.57900E+000	9	...........
	16	0.226667	6.77698E-001	-9.89353E-005	0.00000E+000	-6.70483E-005	-5.99601E-002	6.77989E-001	3.57900E+000	9	...........
	17	0.24	6.67367E-001	-9.86717E-005	0.00000E+000	-6.58502E-005	-5.99601E-002	6.67647E-001	3.57900E+000	9	...........
	18	0.253333	6.57003E-001	-9.88030E-005	0.00000E+000	-6.49139E-005	-5.99601E-002	6.57264E-001	3.57900E+000	9	...........
	19	0.266667	6.46668E-001	-9.87728E-005	0.00000E+000	-6.38732E-005	-5.99601E-002	6.46947E-001	3.57900E+000	9	...........
	20	0.28	6.36340E-001	-9.81873E-005	0.00000E+000	-6.24805E-005	-5.99601E-002	6.36594E-001	3.57900E+000	9	...........
	21	0.293333	6.26047E-001	-9.89603E-005	0.00000E+000	-6.19538E-005	-5.99601E-002	6.26286E-001	3.57900E+000	9	...........
	22	0.306667	6.15713E-001	-9.91656E-005	0.00000E+000	-6.10575E-005	-5.99601E-002	6.15987E-001	3.57900E+000	9	...........
	23	0.32	6.05379E-001	-9.86248E-005	0.00000E+000	-5.97054E-005	-5.99601E-002	6.05680E-001	3.57900E+000	9	...........
	24	0.333333	5.95106E-001	-9.84946E-005	0.00000E+000	-5.86148E-005	-5.99601E-002	5.95393E-001	3.57900E+000	9	...........
	25	0.346667	5.84824E-001	-9.86551E-005	0.00000E+000	-5.76958E-005	-5.99601E-002	5.85100E-001	3.57900E+000	9	...........
	26	0.36	5.74569E-001	-9.89041E-005	0.00000E+000	-5.68272E-005	-5.99601E-002	5.74815E-001	3.57900E+000	9	...........
	27	0.373333	5.64290E-001	-9.96917E-005	0.00000E+000	-5.62550E-005	-5.99601E-002	5.64570E-001	3.57900E+000	9	...........
	28	0.386667	5.54047E-001	-9.90197E-005	0.00000E+000	-5.48616E-005	-5.99601E-002	5.54322E-001	3.57900E+000	9	...........
	29	0.4	5.43837E-001	-9.87676E-005	0.00000E+000	-5.37135E-005	-5.99601E-002	5.44084E-001	3.57900E+000	9	...........
	30	0.413333	5.33636E-001	-9.84696E-005	0.00000E+000	-5.25469E-005	-5.99601E-002	5.33857E-001	3.57900E+000	9	...........
	31	0.426667	5.23447E-001	-9.97584E-005	0.00000E+000	-5.22183E-005	-5.99601E-002	5.23695E-001	3.57900E+000	9	...........
	32	0.44	5.13345E-001	-9.92906E-005	0.00000E+000	-5.09703E-005	-5.99601E-002	5.13545E-001	3.57900E+000	9	...........
	33	0.453333	5.03155E-001	-9.86978E-005	0.00000E+000	-4.96603E-005	-5.99601E-002	5.03430E-001	3.57900E+000	9	...........
	34	0.466667	4.93125E-001	-9.81539E-005	0.00000E+000	-4.84021E-005	-5.99601E-002	4.93351E-001	3.57900E+000	9	...........
	35	0.48	4.83308E-001	-9.96667E-005	0.00000E+000	-4.81697E-005	-5.99601E-002	4.83440E-001	3.57900E+000	9	...........
	36	0.493333	4.73437E-001	-9.82706E-005	0.00000E+000	-4.65249E-005	-5.99601E-002	4.73538E-001	3.57900E+000	9	...........
	37	0.506667	4.63474E-001	-9.80310E-005	0.00000E+000	-4.54348E-005	-5.99601E-002	4.63568E-001	3.57900E+000	9	...........
	38	0.52	4.53543E-001	-9.88374E-005	0.00000E+000	-4.48270E-005	-5.99601E-002	4.53637E-001	3.57900E+000	9	...........
	39	0.533333	4.43663E-001	-9.85655E-005	0.00000E+000	-4.37298E-005	-5.99601E-002	4.43759E-001	3.57900E+000	9	...........
	40	0.546667	4.33826E-001	-9.88634E-005	0.00000E+000	-4.28895E-005	-5.99601E-002	4.33913E-001	3.57900E+000	9	...........
	41	0.56	4.24032E-001	-9.88822E-005	0.00000E+000	-4.19292E-005	-5.99601E-002	4.24123E-001	3.57900E+000	9	...........
	42	0.573333	4.14295E-001	-9.81404E-005	0.00000E+000	-4.06591E-005	-5.99601E-002	4.14380E-001	3.57900E+000	9	...........
	43	0.586667	4.04603E-001	-9.84029E-005	0.00000E+000	-3.98141E-005	-5.99601E-002	4.04681E-001	3.57900E+000	9	...........
	44	0.6	3.94954E-001	-9.89958E-005	0.00000E+000	-3.90988E-005	-5.99601E-002	3.95029E-001	3.57900E+000	9	...........
	45	0.613333	3.85353E-001	-9.89937E-005	0.00000E+000	-3.81475E-005	-5.99601E-002	3.85431E-001	3.57900E+000	9	...........
	46	0.626667	3.75801E-001	-9.88666E-005	0.00000E+000	-3.71541E-005	-5.99601E-002	3.75880E-001	3.57900E+000	9	...........
	47	0.64	3.66292E-001	-9.85394E-005	0.00000E+000	-3.60942E-005	-5.99601E-002	3.66362E-001	3.57900E+000	9	...........
	48	0.653333	3.56833E-001	-9.88093E-005	0.00000E+000	-3.52584E-005	-5.99601E-002	3.56899E-001	3.57900E+000	9	...........
	49	0.666667	3.47416E-001	-9.83498E-005	0.00000E+000	-3.41683E-005	-5.99601E-002	3.47486E-001	3.57900E+000	9	...........
	50	0.68	3.38045E-001	-1.00041E-004	0.00000E+000	-3.38183E-005	-5.99601E-002	3.38103E-001	3.57900E+000	9	...........
	51	0.693333	3.28712E-001	-9.74163E-005	0.00000E+000	-3.20219E-005	-5.99601E-002	3.28777E-001	3.57900E+000	9	...........
	52	0.706667	3.19428E-001	-9.92177E-005	0.00000E+000	-3.16929E-005	-5.99601E-002	3.19490E-001	3.57900E+000	9	...........
	53	0.72	3.10180E-001	-9.87759E-005	0.00000E+000	-3.06383E-005	-5.99601E-002	3.10248E-001	3.57900E+000	9	...........
	54	0.733333	3.00981E-001	-9.90541E-005	0.00000E+000	-2.98134E-005	-5.99601E-002	3.01041E-001	3.57900E+000	9	...........
	55	0.746667	2.91820E-001	-9.94240E-005	0.00000E+000	-2.90139E-005	-5.99601E-002	2.91883E-001	3.57900E+000	9	...........
	56	0.76	2.82703E-001	-9.82154E-005	0.00000E+000	-2.77658E-005	-5.99601E-002	2.82763E-001	3.57900E+000	9	...........
	57	0.773333	2.73625E-001	-9.88197E-005	0.00000E+000	-2.70396E-005	-5.99601E-002	2.73679E-001	3.57900E+000	9	...........
	58	0.786667	2.64577E-001	-9.93688E-005	0.00000E+000	-2.62907E-005	-5.99601E-002	2.64629E-001	3.57900E+000	9	...........
	59	0.8	2.55572E-001	-9.88978E-005	0.00000E+000	-2.52755E-005	-5.99601E-002	2.55623E-001	3.57900E+000	9	...........
	60	0.813333	2.46604E-001	-9.97678E-005	0.00000E+000	-2.46032E-005	-5.99601E-002	2.46655E-001	3.57900E+000	9	...........
	61	0.826667	2.37679E-001	-9.91250E-005	0.00000E+000	-2.35599E-005	-5.99601E-002	2.37721E-001	3.57900E+000	9	...........
	62	0.84	2.28784E-001	-9.86280E-005	0.00000E+000	-2.25645E-005	-5.99601E-002	2.28829E-001	3.57900E+000	9	...........
	63	0.853333	2.19930E-001	-9.87436E-005	0.00000E+000	-2.17166E-005	-5.99601E-002	2.19971E-001	3.57900E+000	9	...........
	64	0.866667	2.11116E-001	-9.92823E-005	0.00000E+000	-2.09601E-005	-5.99601E-002	2.11153E-001	3.57900E+000	9	...........
	65	0.88	2.02342E-001	-9.83925E-005	0.00000E+000	-1.99090E-005	-5.99601E-002	2.02380E-001	3.57900E+000	9	...........
	66	0.893333	1.93605E-001	-9.97928E-005	0.00000E+000	-1.93204E-005	-5.99601E-002	1.93642E-001	3.57900E+000	9	...........
	67	0.906667	1.84917E-001	-9.84290E-005	0.00000E+000	-1.82012E-005	-5.99601E-002	1.84951E-001	3.57900E+000	9	...........
	68	0.92	1.76278E-001	-9.86290E-005	0.00000E+000	-1.73861E-005	-5.99601E-002	1.76307E-001	3.57900E+000	9	...........
	69	0.933333	1.67686E-001	-9.79080E-005	0.00000E+000	-1.64179E-005	-5.99601E-002	1.67714E-001	3.57900E+000	9	...........
	70	0.946667	1.59145E-001	-9.85217E-005	0.00000E+000	-1.56792E-005	-5.99601E-002	1.59165E-001	3.57900E+000	9	...........
	71	0.96	1.50648E-001	-9.96407E-005	0.00000E+000	-1.50106E-005	-5.99601E-002	1.50670E-001	3.57900E+000	9	...........
	72	0.97333	1.42210E-001	-9.93000E-005	0.00000E+000	-1.41214E-005	-5.99601E-002	1.42230E-001	3.57900E+000	9	...........
	73	0.98667	1.33836E-001	-9.84977E-005	0.00000E+000	-1.31825E-005	-5.99601E-002	1.33851E-001	3.57900E+000	9	...........
	74	1	1.25511E-001	-9.91395E-005	0.00000E+000	-1.24431E-005	-5.99601E-002	1.25529E-001	3.57900E+000	9	...........
	75	1.01333	1.17260E-001	-9.96594E-005	0.00000E+000	-1.16861E-005	-5.99601E-002	1.17274E-001	3.57900E+000	9	...........
	76	1.02667	1.09064E-001	-9.90593E-005	0.00000E+000	-1.08038E-005	-5.99601E-002	1.09079E-001	3.57900E+000	9	...........
	77	1.04	1.00938E-001	-9.88541E-005	0.00000E+000	-9.97810E-006	-5.99601E-002	1.00947E-001	3.57900E+000	9	...........
	78	1.05333	9.28755E-002	-9.79924E-005	0.00000E+000	-9.10110E-006	-5.99601E-002	9.28852E-002	3.57900E+000	9	...........
	79	1.06667	8.48771E-002	-9.87999E-005	0.00000E+000	-8.38585E-006	-5.99601E-002	8.48865E-002	3.57900E+000	9	...........
	80	1.08	7.69483E-002	-9.90260E-005	0.00000E+000	-7.61988E-006	-5.99601E-002	7.69521E-002	3.57900E+000	9	...........
	81	1.09333	6.90883E-002	-9.79664E-005	0.00000E+000	-6.76833E-006	-5.99601E-002	6.90875E-002	3.57900E+000	9	...........
	82	1.10667	6.12877E-002	-9.84238E-005	0.00000E+000	-6.03217E-006	-5.99601E-002	6.12815E-002	3.57900E+000	9	...........
	83	1.12	5.35517E-002	-9.93604E-005	0.00000E+000	-5.32092E-006	-5.99601E-002	5.35448E-002	3.57900E+000	9	...........
	84	1.13333	4.59047E-002	-9.94459E-005	0.00000E+000	-4.56504E-006	-5.99601E-002	4.58992E-002	3.57900E+000	9	...........
	85	1.14667	3.83069E-002	-9.84248E-005	0.00000E+000	-3.77035E-006	-5.99601E-002	3.82943E-002	3.57900E+000	9	...........
	86	1.16	3.07547E-002	-9.86603E-005	0.00000E+000	-3.03427E-006	-5.99601E-002	3.07437E-002	3.57900E+000	9	...........
	87	1.17333	2.32665E-002	-9.89041E-005	0.00000E+000	-2.30115E-006	-5.99601E-002	2.32473E-002	3.57900E+000	9	...........
	88	1.18667	1.58391E-002	-9.93729E-005	0.00000E+000	-1.57398E-006	-5.99601E-002	1.58118E-002	3.57900E+000	9	...........
	89	1.2	8.47173E-003	-9.95657E-005	0.00000E+000	-8.43493E-007	-5.99601E-002	8.44265E-003	3.57900E+000	9	...........
	90	1.21	2.07320E-003	-9.88061E-005	0.00000E+000	-2.04845E-007	-5.99601E-002	2.03899E-003	3.57900E+000	9	...........
STARTTIMEOFFSET	QUANT	475.0282	Start Time Offset (s)
