EXPLAIN
TAG	PWR800_DISCHARGE
TITLE	LABEL	PWR Cyclic Charge Discharge (Cell) - Discharge Step	Test &Identifier
DATE	LABEL	13-7-2017	Date
TIME	LABEL	15:40:30	Time
NOTES	NOTES	2	&Notes...
	supercap test cell
	6M KOH
PSTAT	PSTAT	IFC5000-01520	Potentiostat
CAPACITY	QUANT	1.00000E-003	Capacity (A-hr)
CELLTYPE	SELECTOR	1	&Cell Type
WORKINGCONNECTION	SELECTOR	0	&Working Lead
MAXDISCHARGETIME	VARIABLEANDUNITS	1.00000E+002	s	1.00000E+002	second(s)	Max &Discharge Time
DISCHARGEMODE	MULTIPARAM	0	1.00000E-004	&Discharge Mode	Constant Current	Amp(s)
SAMPLETIME	QUANT	1.00000E-002	Sa&mple Period (s)
DISCHARGESTOPAT1	MULTIPARAM	3	0.00000E+000	Discharge Stop At &1	Voltage < Limit	V
DISCHARGESTOPAT2	MULTIPARAM	0	0.00000E+000	Discharge Stop At &2	None	N/A
AESBHCSELECTOR	TOGGLE	F	Save Both Half Cells
IRCOMP	TOGGLE	F	IR &Measure
EOC	QUANT	0	Open Circuit (V)
SEQUENCER	TOGGLE	TRUE	Run as Sequence
PSTATMODEL	IQUANT	53	Pstat Model
PSTATSECTION	LABEL	IFC5000-01520	Pstat Section
PSTATSERIALNO	LABEL	01520	Pstat Serial Number
CTRLMODE	IQUANT	0	Control Mode
ELECTROMETER	IQUANT	1	RE=0 or CS=1
IESTAB	IQUANT	0	I/E Stability
CASPEED	IQUANT	4	Control Amp Speed
CONVENTION	IQUANT	1	Current Convention
ICHRANGE	IQUANT	2	Ich Range
ICHRANGEMODE	TOGGLE	T	Ich Auto Range
ICHOFFSETENABLE	TOGGLE	F	Ich Offset Enable
ICHOFFSET	QUANT	0	Ich Offset (V)
ICHFILTER	IQUANT	1	Ich Filter
VCHRANGE	IQUANT	2	Vch Range
VCHRANGEMODE	TOGGLE	T	Vch Auto Range
VCHOFFSETENABLE	TOGGLE	F	Vch Offset Enable
VCHOFFSET	QUANT	0	Vch Offset (V)
VCHFILTER	IQUANT	1	Vch Filter
IERANGELOWERLIMIT	IQUANT	9	I/E Range Lower Limit
IERANGEMODE	TOGGLE	F	I/E AutoRange
IERANGE	IQUANT	9	I/E Range
ACHSELECT	IQUANT	1	Ach Select
ACHRANGE	IQUANT	2	Ach Range
ACHOFFSETENABLE	TOGGLE	F	Ach Offset Enable
ACHOFFSET	QUANT	0	Ach Offset (V)
ACHFILTER	IQUANT	1	Ach Filter
CABLEID	IQUANT	14	Cable ID
DCCALDATE	LABEL	5-7-2017	DC Calibration Date
ACCALDATE	LABEL	12/3/2015	AC Calibration Date
FRAMEWORKVERSION	QUANT	7.01	Framework Version
INSTRUMENTVERSION	LABEL	4.00	Instrument Version
CURVE	TABLE	87
	Pt	T	Vf	Im	Vu	Pwr	Sig	Ach	Temp	IERange	Over
	#	s	V	A	V	W	V	V	deg C	#	bits
	0	0.013333	8.46065E-001	-9.83352E-005	0.00000E+000	-8.31980E-005	-5.99601E-002	8.46427E-001	3.57890E+000	9	...........
	1	0.026667	8.31845E-001	-9.84029E-005	0.00000E+000	-8.18560E-005	-5.99601E-002	8.32200E-001	3.57890E+000	9	...........
	2	0.04	8.18485E-001	-9.84894E-005	0.00000E+000	-8.06121E-005	-5.99601E-002	8.18827E-001	3.57890E+000	9	...........
	3	0.053333	8.05690E-001	-9.86259E-005	0.00000E+000	-7.94619E-005	-5.99601E-002	8.06010E-001	3.57890E+000	9	...........
	4	0.066667	7.93288E-001	-9.89197E-005	0.00000E+000	-7.84718E-005	-5.99601E-002	7.93609E-001	3.57890E+000	9	...........
	5	0.08	7.81194E-001	-9.93781E-005	0.00000E+000	-7.76336E-005	-5.99601E-002	7.81486E-001	3.57890E+000	9	...........
	6	0.093333	7.69297E-001	-9.85644E-005	0.00000E+000	-7.58253E-005	-5.99601E-002	7.69592E-001	3.57890E+000	9	...........
	7	0.106667	7.57555E-001	-9.90604E-005	0.00000E+000	-7.50437E-005	-5.99601E-002	7.57857E-001	3.57890E+000	9	...........
	8	0.12	7.45945E-001	-9.89395E-005	0.00000E+000	-7.38034E-005	-5.99601E-002	7.46239E-001	3.57890E+000	9	...........
	9	0.133333	7.34434E-001	-9.81352E-005	0.00000E+000	-7.20738E-005	-5.99601E-002	7.34726E-001	3.57890E+000	9	...........
	10	0.146667	7.23007E-001	-9.88238E-005	0.00000E+000	-7.14504E-005	-5.99601E-002	7.23298E-001	3.57890E+000	9	...........
	11	0.16	7.11584E-001	-9.86571E-005	0.00000E+000	-7.02029E-005	-5.99601E-002	7.11888E-001	3.57890E+000	9	...........
	12	0.173333	7.00268E-001	-9.80914E-005	0.00000E+000	-6.86902E-005	-5.99601E-002	7.00540E-001	3.57890E+000	9	...........
	13	0.186667	6.88965E-001	-9.86217E-005	0.00000E+000	-6.79469E-005	-5.99601E-002	6.89244E-001	3.57890E+000	9	...........
	14	0.2	6.77707E-001	-9.88176E-005	0.00000E+000	-6.69694E-005	-5.99601E-002	6.77982E-001	3.57890E+000	9	...........
	15	0.213333	6.66440E-001	-9.98657E-005	0.00000E+000	-6.65545E-005	-5.99601E-002	6.66742E-001	3.57890E+000	9	...........
	16	0.226667	6.55225E-001	-9.89197E-005	0.00000E+000	-6.48146E-005	-5.99601E-002	6.55519E-001	3.57890E+000	9	...........
	17	0.24	6.44034E-001	-9.93167E-005	0.00000E+000	-6.39634E-005	-5.99601E-002	6.44322E-001	3.57890E+000	9	...........
	18	0.253333	6.32868E-001	-9.88603E-005	0.00000E+000	-6.25655E-005	-5.99601E-002	6.33127E-001	3.57890E+000	9	...........
	19	0.266667	6.21731E-001	-9.84227E-005	0.00000E+000	-6.11925E-005	-5.99601E-002	6.21993E-001	3.57890E+000	9	...........
	20	0.28	6.10553E-001	-9.89718E-005	0.00000E+000	-6.04276E-005	-5.99601E-002	6.10860E-001	3.57890E+000	9	...........
	21	0.293333	5.99463E-001	-9.88353E-005	0.00000E+000	-5.92481E-005	-5.99601E-002	5.99757E-001	3.57890E+000	9	...........
	22	0.306667	5.88386E-001	-9.96386E-005	0.00000E+000	-5.86260E-005	-5.99601E-002	5.88677E-001	3.57890E+000	9	...........
	23	0.32	5.77350E-001	-9.94511E-005	0.00000E+000	-5.74180E-005	-5.99601E-002	5.77618E-001	3.57890E+000	9	...........
	24	0.333333	5.66343E-001	-9.88291E-005	0.00000E+000	-5.59712E-005	-5.99601E-002	5.66606E-001	3.57890E+000	9	...........
	25	0.346667	5.55335E-001	-9.89728E-005	0.00000E+000	-5.49631E-005	-5.99601E-002	5.55602E-001	3.57890E+000	9	...........
	26	0.36	5.44400E-001	-9.95084E-005	0.00000E+000	-5.41724E-005	-5.99601E-002	5.44665E-001	3.57890E+000	9	...........
	27	0.373333	5.33492E-001	-9.85801E-005	0.00000E+000	-5.25917E-005	-5.99601E-002	5.33729E-001	3.57890E+000	9	...........
	28	0.386667	5.22643E-001	-9.92281E-005	0.00000E+000	-5.18609E-005	-5.99601E-002	5.22855E-001	3.57890E+000	9	...........
	29	0.4	5.11827E-001	-9.85405E-005	0.00000E+000	-5.04356E-005	-5.99601E-002	5.12039E-001	3.57890E+000	9	...........
	30	0.413333	5.01027E-001	-9.90656E-005	0.00000E+000	-4.96345E-005	-5.99601E-002	5.01276E-001	3.57890E+000	9	...........
	31	0.426667	4.90355E-001	-1.00073E-004	0.00000E+000	-4.90713E-005	-5.99601E-002	4.90574E-001	3.57890E+000	9	...........
	32	0.44	4.80037E-001	-9.88614E-005	0.00000E+000	-4.74571E-005	-5.99601E-002	4.80143E-001	3.57890E+000	9	...........
	33	0.453333	4.69485E-001	-9.97751E-005	0.00000E+000	-4.68429E-005	-5.99601E-002	4.69588E-001	3.57890E+000	9	...........
	34	0.466667	4.58969E-001	-9.86113E-005	0.00000E+000	-4.52596E-005	-5.99601E-002	4.59061E-001	3.57920E+000	9	...........
	35	0.48	4.48513E-001	-9.83060E-005	0.00000E+000	-4.40915E-005	-5.99601E-002	4.48608E-001	3.57930E+000	9	...........
	36	0.493333	4.38118E-001	-9.91479E-005	0.00000E+000	-4.34385E-005	-5.99601E-002	4.38209E-001	3.57930E+000	9	...........
	37	0.506667	4.27799E-001	-9.97178E-005	0.00000E+000	-4.26591E-005	-5.99601E-002	4.27883E-001	3.57930E+000	9	...........
	38	0.52	4.17532E-001	-1.00142E-004	0.00000E+000	-4.18124E-005	-5.99601E-002	4.17619E-001	3.57930E+000	9	...........
	39	0.533333	4.07343E-001	-9.82810E-005	0.00000E+000	-4.00341E-005	-5.99601E-002	4.07421E-001	3.57930E+000	9	...........
	40	0.546667	3.97217E-001	-9.90156E-005	0.00000E+000	-3.93307E-005	-5.99601E-002	3.97293E-001	3.57930E+000	9	...........
	41	0.56	3.87156E-001	-9.88436E-005	0.00000E+000	-3.82679E-005	-5.99601E-002	3.87230E-001	3.57930E+000	9	...........
	42	0.573333	3.77162E-001	-9.93010E-005	0.00000E+000	-3.74525E-005	-5.99601E-002	3.77232E-001	3.57930E+000	9	...........
	43	0.586667	3.67229E-001	-9.80445E-005	0.00000E+000	-3.60048E-005	-5.99601E-002	3.67300E-001	3.57930E+000	9	...........
	44	0.6	3.57361E-001	-9.93302E-005	0.00000E+000	-3.54968E-005	-5.99601E-002	3.57425E-001	3.57930E+000	9	...........
	45	0.613333	3.47547E-001	-9.83675E-005	0.00000E+000	-3.41873E-005	-5.99601E-002	3.47616E-001	3.57930E+000	9	...........
	46	0.626667	3.37801E-001	-9.89885E-005	0.00000E+000	-3.34384E-005	-5.99601E-002	3.37867E-001	3.57930E+000	9	...........
	47	0.64	3.28112E-001	-9.87197E-005	0.00000E+000	-3.23911E-005	-5.99601E-002	3.28176E-001	3.57930E+000	9	...........
	48	0.653333	3.18475E-001	-9.88562E-005	0.00000E+000	-3.14832E-005	-5.99601E-002	3.18541E-001	3.57930E+000	9	...........
	49	0.666667	3.08890E-001	-9.86103E-005	0.00000E+000	-3.04597E-005	-5.99601E-002	3.08951E-001	3.57930E+000	9	...........
	50	0.68	2.99372E-001	-9.88468E-005	0.00000E+000	-2.95920E-005	-5.99601E-002	2.99428E-001	3.57930E+000	9	...........
	51	0.693333	2.89899E-001	-9.93094E-005	0.00000E+000	-2.87897E-005	-5.99601E-002	2.89950E-001	3.57930E+000	9	...........
	52	0.706667	2.80474E-001	-9.87790E-005	0.00000E+000	-2.77050E-005	-5.99601E-002	2.80529E-001	3.57930E+000	9	...........
	53	0.72	2.71099E-001	-9.87811E-005	0.00000E+000	-2.67795E-005	-5.99601E-002	2.71150E-001	3.57930E+000	9	...........
	54	0.733333	2.61774E-001	-9.90718E-005	0.00000E+000	-2.59344E-005	-5.99601E-002	2.61826E-001	3.57930E+000	9	...........
	55	0.746667	2.52495E-001	-9.91989E-005	0.00000E+000	-2.50472E-005	-5.99601E-002	2.52547E-001	3.57930E+000	9	...........
	56	0.76	2.43278E-001	-9.87217E-005	0.00000E+000	-2.40169E-005	-5.99601E-002	2.43322E-001	3.57930E+000	9	...........
	57	0.773333	2.34101E-001	-9.89885E-005	0.00000E+000	-2.31733E-005	-5.99601E-002	2.34141E-001	3.57930E+000	9	...........
	58	0.786667	2.24973E-001	-9.91520E-005	0.00000E+000	-2.23066E-005	-5.99601E-002	2.25012E-001	3.57930E+000	9	...........
	59	0.8	2.15900E-001	-9.80310E-005	0.00000E+000	-2.11648E-005	-5.99601E-002	2.15937E-001	3.57930E+000	9	...........
	60	0.813333	2.06882E-001	-9.92437E-005	0.00000E+000	-2.05317E-005	-5.99601E-002	2.06915E-001	3.57930E+000	9	...........
	61	0.826667	1.97919E-001	-9.91343E-005	0.00000E+000	-1.96206E-005	-5.99601E-002	1.97952E-001	3.57930E+000	9	...........
	62	0.84	1.89013E-001	-9.83727E-005	0.00000E+000	-1.85938E-005	-5.99601E-002	1.89044E-001	3.57930E+000	9	...........
	63	0.853333	1.80157E-001	-9.87874E-005	0.00000E+000	-1.77973E-005	-5.99601E-002	1.80191E-001	3.57930E+000	9	...........
	64	0.866667	1.71375E-001	-9.87030E-005	0.00000E+000	-1.69152E-005	-5.99601E-002	1.71400E-001	3.57930E+000	9	...........
	65	0.88	1.62654E-001	-9.86269E-005	0.00000E+000	-1.60421E-005	-5.99601E-002	1.62675E-001	3.57930E+000	9	...........
	66	0.893333	1.54005E-001	-9.87936E-005	0.00000E+000	-1.52147E-005	-5.99601E-002	1.54025E-001	3.57930E+000	9	...........
	67	0.906667	1.45410E-001	-9.90103E-005	0.00000E+000	-1.43971E-005	-5.99601E-002	1.45429E-001	3.57930E+000	9	...........
	68	0.92	1.36891E-001	-9.90822E-005	0.00000E+000	-1.35634E-005	-5.99601E-002	1.36915E-001	3.57930E+000	9	...........
	69	0.933333	1.28453E-001	-9.85071E-005	0.00000E+000	-1.26535E-005	-5.99601E-002	1.28470E-001	3.57930E+000	9	...........
	70	0.946667	1.20082E-001	-9.89530E-005	0.00000E+000	-1.18825E-005	-5.99601E-002	1.20103E-001	3.57930E+000	9	...........
	71	0.96	1.11787E-001	-9.86342E-005	0.00000E+000	-1.10261E-005	-5.99601E-002	1.11797E-001	3.57930E+000	9	...........
	72	0.97333	1.03563E-001	-9.92291E-005	0.00000E+000	-1.02765E-005	-5.99601E-002	1.03578E-001	3.57930E+000	9	...........
	73	0.98667	9.54211E-002	-9.89343E-005	0.00000E+000	-9.44042E-006	-5.99601E-002	9.54312E-002	3.57930E+000	9	...........
	74	1	8.73514E-002	-9.84394E-005	0.00000E+000	-8.59882E-006	-5.99601E-002	8.73555E-002	3.57930E+000	9	...........
	75	1.01333	7.93564E-002	-9.93479E-005	0.00000E+000	-7.88390E-006	-5.99601E-002	7.93525E-002	3.57930E+000	9	...........
	76	1.02667	7.14290E-002	-9.91739E-005	0.00000E+000	-7.08389E-006	-5.99601E-002	7.14237E-002	3.57930E+000	9	...........
	77	1.04	6.35749E-002	-9.91802E-005	0.00000E+000	-6.30537E-006	-5.99601E-002	6.35662E-002	3.57930E+000	9	...........
	78	1.05333	5.57888E-002	-9.89791E-005	0.00000E+000	-5.52192E-006	-5.99601E-002	5.57847E-002	3.57930E+000	9	...........
	79	1.06667	4.80989E-002	-9.83269E-005	0.00000E+000	-4.72942E-006	-5.99601E-002	4.80879E-002	3.57930E+000	9	...........
	80	1.08	4.04720E-002	-9.93073E-005	0.00000E+000	-4.01916E-006	-5.99601E-002	4.04602E-002	3.57930E+000	9	...........
	81	1.09333	3.28966E-002	-9.86769E-005	0.00000E+000	-3.24614E-006	-5.99601E-002	3.28825E-002	3.57930E+000	9	...........
	82	1.10667	2.53881E-002	-9.85186E-005	0.00000E+000	-2.50120E-006	-5.99601E-002	2.53696E-002	3.57930E+000	9	...........
	83	1.12	1.79401E-002	-9.84342E-005	0.00000E+000	-1.76592E-006	-5.99601E-002	1.79238E-002	3.57930E+000	9	...........
	84	1.13333	1.05667E-002	-9.88926E-005	0.00000E+000	-1.04497E-006	-5.99601E-002	1.05390E-002	3.57930E+000	9	...........
	85	1.14667	3.25717E-003	-9.86947E-005	0.00000E+000	-3.21465E-007	-5.99601E-002	3.22530E-003	3.57930E+000	9	...........
	86	1.14833	-8.39760E-004	-1.00652E-004	0.00000E+000	8.45238E-008	-5.99601E-002	-8.68046E-004	3.57930E+000	9	...........
STARTTIMEOFFSET	QUANT	1740.621	Start Time Offset (s)
