EXPLAIN
TAG	PWR800_DISCHARGE
TITLE	LABEL	PWR Cyclic Charge Discharge (Cell) - Discharge Step	Test &Identifier
DATE	LABEL	13-7-2017	Date
TIME	LABEL	15:47:45	Time
NOTES	NOTES	2	&Notes...
	supercap test cell
	6M KOH
PSTAT	PSTAT	IFC5000-01520	Potentiostat
CAPACITY	QUANT	1.00000E-003	Capacity (A-hr)
CELLTYPE	SELECTOR	1	&Cell Type
WORKINGCONNECTION	SELECTOR	0	&Working Lead
MAXDISCHARGETIME	VARIABLEANDUNITS	1.00000E+002	s	1.00000E+002	second(s)	Max &Discharge Time
DISCHARGEMODE	MULTIPARAM	0	1.00000E-004	&Discharge Mode	Constant Current	Amp(s)
SAMPLETIME	QUANT	1.00000E-002	Sa&mple Period (s)
DISCHARGESTOPAT1	MULTIPARAM	3	0.00000E+000	Discharge Stop At &1	Voltage < Limit	V
DISCHARGESTOPAT2	MULTIPARAM	0	0.00000E+000	Discharge Stop At &2	None	N/A
AESBHCSELECTOR	TOGGLE	F	Save Both Half Cells
IRCOMP	TOGGLE	F	IR &Measure
EOC	QUANT	0	Open Circuit (V)
SEQUENCER	TOGGLE	TRUE	Run as Sequence
PSTATMODEL	IQUANT	53	Pstat Model
PSTATSECTION	LABEL	IFC5000-01520	Pstat Section
PSTATSERIALNO	LABEL	01520	Pstat Serial Number
CTRLMODE	IQUANT	0	Control Mode
ELECTROMETER	IQUANT	1	RE=0 or CS=1
IESTAB	IQUANT	0	I/E Stability
CASPEED	IQUANT	4	Control Amp Speed
CONVENTION	IQUANT	1	Current Convention
ICHRANGE	IQUANT	2	Ich Range
ICHRANGEMODE	TOGGLE	T	Ich Auto Range
ICHOFFSETENABLE	TOGGLE	F	Ich Offset Enable
ICHOFFSET	QUANT	0	Ich Offset (V)
ICHFILTER	IQUANT	1	Ich Filter
VCHRANGE	IQUANT	2	Vch Range
VCHRANGEMODE	TOGGLE	T	Vch Auto Range
VCHOFFSETENABLE	TOGGLE	F	Vch Offset Enable
VCHOFFSET	QUANT	0	Vch Offset (V)
VCHFILTER	IQUANT	1	Vch Filter
IERANGELOWERLIMIT	IQUANT	9	I/E Range Lower Limit
IERANGEMODE	TOGGLE	F	I/E AutoRange
IERANGE	IQUANT	9	I/E Range
ACHSELECT	IQUANT	1	Ach Select
ACHRANGE	IQUANT	2	Ach Range
ACHOFFSETENABLE	TOGGLE	F	Ach Offset Enable
ACHOFFSET	QUANT	0	Ach Offset (V)
ACHFILTER	IQUANT	1	Ach Filter
CABLEID	IQUANT	14	Cable ID
DCCALDATE	LABEL	5-7-2017	DC Calibration Date
ACCALDATE	LABEL	12/3/2015	AC Calibration Date
FRAMEWORKVERSION	QUANT	7.01	Framework Version
INSTRUMENTVERSION	LABEL	4.00	Instrument Version
CURVE	TABLE	86
	Pt	T	Vf	Im	Vu	Pwr	Sig	Ach	Temp	IERange	Over
	#	s	V	A	V	W	V	V	deg C	#	bits
	0	0.013333	8.46554E-001	-9.92375E-005	0.00000E+000	-8.40099E-005	-5.99601E-002	8.46891E-001	3.57920E+000	9	...........
	1	0.026667	8.32349E-001	-9.87926E-005	0.00000E+000	-8.22299E-005	-5.99601E-002	8.32675E-001	3.57920E+000	9	...........
	2	0.04	8.18974E-001	-9.90718E-005	0.00000E+000	-8.11373E-005	-5.99601E-002	8.19300E-001	3.57920E+000	9	...........
	3	0.053333	8.06146E-001	-9.87572E-005	0.00000E+000	-7.96127E-005	-5.99601E-002	8.06467E-001	3.57920E+000	9	...........
	4	0.066667	7.93730E-001	-9.88395E-005	0.00000E+000	-7.84518E-005	-5.99601E-002	7.94029E-001	3.57920E+000	9	...........
	5	0.08	7.81570E-001	-9.87770E-005	0.00000E+000	-7.72011E-005	-5.99601E-002	7.81880E-001	3.57920E+000	9	...........
	6	0.093333	7.69610E-001	-9.90333E-005	0.00000E+000	-7.62170E-005	-5.99601E-002	7.69911E-001	3.57920E+000	9	...........
	7	0.106667	7.57816E-001	-9.85530E-005	0.00000E+000	-7.46851E-005	-5.99601E-002	7.58084E-001	3.57920E+000	9	...........
	8	0.12	7.46118E-001	-9.87936E-005	0.00000E+000	-7.37118E-005	-5.99601E-002	7.46386E-001	3.57920E+000	9	...........
	9	0.133333	7.34509E-001	-9.84165E-005	0.00000E+000	-7.22878E-005	-5.99601E-002	7.34749E-001	3.57920E+000	9	...........
	10	0.146667	7.22981E-001	-9.90656E-005	0.00000E+000	-7.16225E-005	-5.99601E-002	7.23203E-001	3.57920E+000	9	...........
	11	0.16	7.11442E-001	-9.82456E-005	0.00000E+000	-6.98960E-005	-5.99601E-002	7.11716E-001	3.57920E+000	9	...........
	12	0.173333	7.00029E-001	-9.93042E-005	0.00000E+000	-6.95158E-005	-5.99601E-002	7.00287E-001	3.57920E+000	9	...........
	13	0.186667	6.88608E-001	-9.87165E-005	0.00000E+000	-6.79770E-005	-5.99601E-002	6.88883E-001	3.57920E+000	9	...........
	14	0.2	6.77208E-001	-9.86155E-005	0.00000E+000	-6.67832E-005	-5.99601E-002	6.77498E-001	3.57920E+000	9	...........
	15	0.213333	6.65875E-001	-9.97595E-005	0.00000E+000	-6.64273E-005	-5.99601E-002	6.66143E-001	3.57920E+000	9	...........
	16	0.226667	6.54512E-001	-9.97991E-005	0.00000E+000	-6.53197E-005	-5.99601E-002	6.54774E-001	3.57920E+000	9	...........
	17	0.24	6.43190E-001	-9.88957E-005	0.00000E+000	-6.36088E-005	-5.99601E-002	6.43471E-001	3.57920E+000	9	...........
	18	0.253333	6.31886E-001	-9.89885E-005	0.00000E+000	-6.25495E-005	-5.99601E-002	6.32176E-001	3.57920E+000	9	...........
	19	0.266667	6.20648E-001	-9.91656E-005	0.00000E+000	-6.15470E-005	-5.99601E-002	6.20879E-001	3.57920E+000	9	...........
	20	0.28	6.09340E-001	-9.89364E-005	0.00000E+000	-6.02859E-005	-5.99601E-002	6.09666E-001	3.57920E+000	9	...........
	21	0.293333	5.98141E-001	-9.86290E-005	0.00000E+000	-5.89941E-005	-5.99601E-002	5.98421E-001	3.57920E+000	9	...........
	22	0.306667	5.86923E-001	-9.85905E-005	0.00000E+000	-5.78651E-005	-5.99601E-002	5.87230E-001	3.57920E+000	9	...........
	23	0.32	5.75789E-001	-1.00442E-004	0.00000E+000	-5.78334E-005	-5.99601E-002	5.76075E-001	3.57920E+000	9	...........
	24	0.333333	5.64669E-001	-9.85998E-005	0.00000E+000	-5.56763E-005	-5.99601E-002	5.64933E-001	3.57920E+000	9	...........
	25	0.346667	5.53568E-001	-9.87926E-005	0.00000E+000	-5.46885E-005	-5.99601E-002	5.53804E-001	3.57920E+000	9	...........
	26	0.36	5.42537E-001	-9.89635E-005	0.00000E+000	-5.36913E-005	-5.99601E-002	5.42755E-001	3.57920E+000	9	...........
	27	0.373333	5.31497E-001	-9.85134E-005	0.00000E+000	-5.23595E-005	-5.99601E-002	5.31747E-001	3.57920E+000	9	...........
	28	0.386667	5.20555E-001	-9.92416E-005	0.00000E+000	-5.16607E-005	-5.99601E-002	5.20770E-001	3.57920E+000	9	...........
	29	0.4	5.09639E-001	-9.83435E-005	0.00000E+000	-5.01197E-005	-5.99601E-002	5.09865E-001	3.57920E+000	9	...........
	30	0.413333	4.98766E-001	-9.88166E-005	0.00000E+000	-4.92863E-005	-5.99601E-002	4.99009E-001	3.57920E+000	9	...........
	31	0.426667	4.88061E-001	-9.88812E-005	0.00000E+000	-4.82600E-005	-5.99601E-002	4.88258E-001	3.57920E+000	9	...........
	32	0.44	4.77638E-001	-9.87145E-005	0.00000E+000	-4.71498E-005	-5.99601E-002	4.77734E-001	3.57920E+000	9	...........
	33	0.453333	4.66969E-001	-9.89062E-005	0.00000E+000	-4.61862E-005	-5.99601E-002	4.67059E-001	3.57927E+000	9	...........
	34	0.466667	4.56367E-001	-9.88332E-005	0.00000E+000	-4.51042E-005	-5.99601E-002	4.56457E-001	3.57940E+000	9	...........
	35	0.48	4.45839E-001	-9.87822E-005	0.00000E+000	-4.40409E-005	-5.99601E-002	4.45927E-001	3.57940E+000	9	...........
	36	0.493333	4.35372E-001	-9.94313E-005	0.00000E+000	-4.32896E-005	-5.99601E-002	4.35459E-001	3.57940E+000	9	...........
	37	0.506667	4.24980E-001	-9.88353E-005	0.00000E+000	-4.20030E-005	-5.99601E-002	4.25064E-001	3.57940E+000	9	...........
	38	0.52	4.14653E-001	-9.87165E-005	0.00000E+000	-4.09331E-005	-5.99601E-002	4.14732E-001	3.57940E+000	9	...........
	39	0.533333	4.04398E-001	-9.89582E-005	0.00000E+000	-4.00185E-005	-5.99601E-002	4.04470E-001	3.57940E+000	9	...........
	40	0.546667	3.94213E-001	-9.89187E-005	0.00000E+000	-3.89951E-005	-5.99601E-002	3.94282E-001	3.57940E+000	9	...........
	41	0.56	3.84093E-001	-9.85623E-005	0.00000E+000	-3.78571E-005	-5.99601E-002	3.84169E-001	3.57940E+000	9	...........
	42	0.573333	3.74040E-001	-9.96021E-005	0.00000E+000	-3.72552E-005	-5.99601E-002	3.74110E-001	3.57940E+000	9	...........
	43	0.586667	3.64061E-001	-9.90270E-005	0.00000E+000	-3.60519E-005	-5.99601E-002	3.64127E-001	3.57940E+000	9	...........
	44	0.6	3.54141E-001	-9.92114E-005	0.00000E+000	-3.51348E-005	-5.99601E-002	3.54207E-001	3.57940E+000	9	...........
	45	0.613333	3.44288E-001	-9.95386E-005	0.00000E+000	-3.42699E-005	-5.99601E-002	3.44348E-001	3.57940E+000	9	...........
	46	0.626667	3.34489E-001	-9.98355E-005	0.00000E+000	-3.33939E-005	-5.99601E-002	3.34552E-001	3.57940E+000	9	...........
	47	0.64	3.24765E-001	-9.84519E-005	0.00000E+000	-3.19737E-005	-5.99601E-002	3.24821E-001	3.57940E+000	9	...........
	48	0.653333	3.15093E-001	-9.94584E-005	0.00000E+000	-3.13387E-005	-5.99601E-002	3.15153E-001	3.57940E+000	9	...........
	49	0.666667	3.05473E-001	-9.91208E-005	0.00000E+000	-3.02787E-005	-5.99601E-002	3.05534E-001	3.57940E+000	9	...........
	50	0.68	2.95915E-001	-1.00105E-004	0.00000E+000	-2.96227E-005	-5.99601E-002	2.95972E-001	3.57940E+000	9	...........
	51	0.693333	2.86412E-001	-9.87061E-005	0.00000E+000	-2.82707E-005	-5.99601E-002	2.86467E-001	3.57940E+000	9	...........
	52	0.706667	2.76959E-001	-9.92625E-005	0.00000E+000	-2.74916E-005	-5.99601E-002	2.77011E-001	3.57940E+000	9	...........
	53	0.72	2.67559E-001	-9.88113E-005	0.00000E+000	-2.64379E-005	-5.99601E-002	2.67610E-001	3.57940E+000	9	...........
	54	0.733333	2.58212E-001	-9.93938E-005	0.00000E+000	-2.56646E-005	-5.99601E-002	2.58258E-001	3.57940E+000	9	...........
	55	0.746667	2.48917E-001	-9.93354E-005	0.00000E+000	-2.47263E-005	-5.99601E-002	2.48958E-001	3.57940E+000	9	...........
	56	0.76	2.39680E-001	-9.87353E-005	0.00000E+000	-2.36649E-005	-5.99601E-002	2.39717E-001	3.57940E+000	9	...........
	57	0.773333	2.30480E-001	-9.84967E-005	0.00000E+000	-2.27015E-005	-5.99601E-002	2.30514E-001	3.57940E+000	9	...........
	58	0.786667	2.21335E-001	-9.99074E-005	0.00000E+000	-2.21130E-005	-5.99601E-002	2.21373E-001	3.57940E+000	9	...........
	59	0.8	2.12249E-001	-9.91729E-005	0.00000E+000	-2.10493E-005	-5.99601E-002	2.12286E-001	3.57940E+000	9	...........
	60	0.813333	2.03220E-001	-9.89447E-005	0.00000E+000	-2.01075E-005	-5.99601E-002	2.03254E-001	3.57940E+000	9	...........
	61	0.826667	1.94253E-001	-9.88311E-005	0.00000E+000	-1.91982E-005	-5.99601E-002	1.94280E-001	3.57940E+000	9	...........
	62	0.84	1.85348E-001	-9.90958E-005	0.00000E+000	-1.83672E-005	-5.99601E-002	1.85369E-001	3.57940E+000	9	...........
	63	0.853333	1.76493E-001	-9.99845E-005	0.00000E+000	-1.76466E-005	-5.99601E-002	1.76519E-001	3.57940E+000	9	...........
	64	0.866667	1.67708E-001	-9.87988E-005	0.00000E+000	-1.65693E-005	-5.99601E-002	1.67735E-001	3.57940E+000	9	...........
	65	0.88	1.58996E-001	-9.89041E-005	0.00000E+000	-1.57253E-005	-5.99601E-002	1.59017E-001	3.57940E+000	9	...........
	66	0.893333	1.50352E-001	-9.86040E-005	0.00000E+000	-1.48253E-005	-5.99601E-002	1.50367E-001	3.57940E+000	9	...........
	67	0.906667	1.41771E-001	-9.94292E-005	0.00000E+000	-1.40961E-005	-5.99601E-002	1.41793E-001	3.57940E+000	9	...........
	68	0.92	1.33264E-001	-9.89457E-005	0.00000E+000	-1.31859E-005	-5.99601E-002	1.33281E-001	3.57940E+000	9	...........
	69	0.933333	1.24840E-001	-9.83112E-005	0.00000E+000	-1.22732E-005	-5.99601E-002	1.24856E-001	3.57940E+000	9	...........
	70	0.946667	1.16490E-001	-9.88322E-005	0.00000E+000	-1.15129E-005	-5.99601E-002	1.16506E-001	3.57940E+000	9	...........
	71	0.96	1.08212E-001	-9.91333E-005	0.00000E+000	-1.07274E-005	-5.99601E-002	1.08226E-001	3.57940E+000	9	...........
	72	0.97333	1.00012E-001	-9.84957E-005	0.00000E+000	-9.85073E-006	-5.99601E-002	1.00028E-001	3.57940E+000	9	...........
	73	0.98667	9.18881E-002	-9.81216E-005	0.00000E+000	-9.01621E-006	-5.99601E-002	9.18960E-002	3.57940E+000	9	...........
	74	1	8.38365E-002	-9.86373E-005	0.00000E+000	-8.26941E-006	-5.99601E-002	8.38449E-002	3.57940E+000	9	...........
	75	1.01333	7.58623E-002	-9.88707E-005	0.00000E+000	-7.50056E-006	-5.99601E-002	7.58612E-002	3.57940E+000	9	...........
	76	1.02667	6.79560E-002	-9.85155E-005	0.00000E+000	-6.69472E-006	-5.99601E-002	6.79487E-002	3.57940E+000	9	...........
	77	1.04	6.01213E-002	-9.81539E-005	0.00000E+000	-5.90115E-006	-5.99601E-002	6.01198E-002	3.57940E+000	9	...........
	78	1.05333	5.23580E-002	-9.88572E-005	0.00000E+000	-5.17596E-006	-5.99601E-002	5.23507E-002	3.57940E+000	9	...........
	79	1.06667	4.46985E-002	-9.89343E-005	0.00000E+000	-4.42221E-006	-5.99601E-002	4.46908E-002	3.57940E+000	9	...........
	80	1.08	3.70780E-002	-9.85675E-005	0.00000E+000	-3.65469E-006	-5.99601E-002	3.70654E-002	3.57940E+000	9	...........
	81	1.09333	2.95194E-002	-9.95146E-005	0.00000E+000	-2.93761E-006	-5.99601E-002	2.95047E-002	3.57940E+000	9	...........
	82	1.10667	2.20342E-002	-9.90020E-005	0.00000E+000	-2.18143E-006	-5.99601E-002	2.20151E-002	3.57940E+000	9	...........
	83	1.12	1.46161E-002	-9.86071E-005	0.00000E+000	-1.44125E-006	-5.99601E-002	1.45916E-002	3.57940E+000	9	...........
	84	1.13333	7.26033E-003	-9.81383E-005	0.00000E+000	-7.12516E-007	-5.99601E-002	7.23033E-003	3.57940E+000	9	...........
	85	1.14167	1.33281E-003	-9.96788E-005	0.00000E+000	-1.32853E-007	-5.99601E-002	1.29599E-003	3.57940E+000	9	...........
STARTTIMEOFFSET	QUANT	2065.786	Start Time Offset (s)
