EXPLAIN
TAG	PWR800_DISCHARGE
TITLE	LABEL	PWR Cyclic Charge Discharge (Cell) - Discharge Step	Test &Identifier
DATE	LABEL	13-7-2017	Date
TIME	LABEL	15:03:17	Time
NOTES	NOTES	2	&Notes...
	supercap test cell
	6M KOH
PSTAT	PSTAT	IFC5000-01520	Potentiostat
CAPACITY	QUANT	1.00000E-003	Capacity (A-hr)
CELLTYPE	SELECTOR	1	&Cell Type
WORKINGCONNECTION	SELECTOR	0	&Working Lead
MAXDISCHARGETIME	VARIABLEANDUNITS	1.00000E+002	s	1.00000E+002	second(s)	Max &Discharge Time
DISCHARGEMODE	MULTIPARAM	0	1.00000E-004	&Discharge Mode	Constant Current	Amp(s)
SAMPLETIME	QUANT	1.00000E-002	Sa&mple Period (s)
DISCHARGESTOPAT1	MULTIPARAM	3	0.00000E+000	Discharge Stop At &1	Voltage < Limit	V
DISCHARGESTOPAT2	MULTIPARAM	0	0.00000E+000	Discharge Stop At &2	None	N/A
AESBHCSELECTOR	TOGGLE	F	Save Both Half Cells
IRCOMP	TOGGLE	F	IR &Measure
EOC	QUANT	0	Open Circuit (V)
SEQUENCER	TOGGLE	TRUE	Run as Sequence
PSTATMODEL	IQUANT	53	Pstat Model
PSTATSECTION	LABEL	IFC5000-01520	Pstat Section
PSTATSERIALNO	LABEL	01520	Pstat Serial Number
CTRLMODE	IQUANT	0	Control Mode
ELECTROMETER	IQUANT	1	RE=0 or CS=1
IESTAB	IQUANT	0	I/E Stability
CASPEED	IQUANT	4	Control Amp Speed
CONVENTION	IQUANT	1	Current Convention
ICHRANGE	IQUANT	2	Ich Range
ICHRANGEMODE	TOGGLE	T	Ich Auto Range
ICHOFFSETENABLE	TOGGLE	F	Ich Offset Enable
ICHOFFSET	QUANT	0	Ich Offset (V)
ICHFILTER	IQUANT	1	Ich Filter
VCHRANGE	IQUANT	2	Vch Range
VCHRANGEMODE	TOGGLE	T	Vch Auto Range
VCHOFFSETENABLE	TOGGLE	F	Vch Offset Enable
VCHOFFSET	QUANT	0	Vch Offset (V)
VCHFILTER	IQUANT	1	Vch Filter
IERANGELOWERLIMIT	IQUANT	9	I/E Range Lower Limit
IERANGEMODE	TOGGLE	F	I/E AutoRange
IERANGE	IQUANT	9	I/E Range
ACHSELECT	IQUANT	1	Ach Select
ACHRANGE	IQUANT	2	Ach Range
ACHOFFSETENABLE	TOGGLE	F	Ach Offset Enable
ACHOFFSET	QUANT	0	Ach Offset (V)
ACHFILTER	IQUANT	1	Ach Filter
CABLEID	IQUANT	14	Cable ID
DCCALDATE	LABEL	5-7-2017	DC Calibration Date
ACCALDATE	LABEL	12/3/2015	AC Calibration Date
FRAMEWORKVERSION	QUANT	7.01	Framework Version
INSTRUMENTVERSION	LABEL	4.00	Instrument Version
CURVE	TABLE	94
	Pt	T	Vf	Im	Vu	Pwr	Sig	Ach	Temp	IERange	Over
	#	s	V	A	V	W	V	V	deg C	#	bits
	0	0.013333	8.60181E-001	-9.89374E-005	0.00000E+000	-8.51040E-005	-5.99601E-002	8.60536E-001	3.57930E+000	9	...........
	1	0.026667	8.47931E-001	-9.88520E-005	0.00000E+000	-8.38197E-005	-5.99601E-002	8.48248E-001	3.57930E+000	9	...........
	2	0.04	8.36393E-001	-9.90447E-005	0.00000E+000	-8.28403E-005	-5.99601E-002	8.36718E-001	3.57930E+000	9	...........
	3	0.053333	8.25433E-001	-9.87124E-005	0.00000E+000	-8.14804E-005	-5.99601E-002	8.25727E-001	3.57930E+000	9	...........
	4	0.066667	8.14815E-001	-9.85342E-005	0.00000E+000	-8.02872E-005	-5.99601E-002	8.15105E-001	3.57930E+000	9	...........
	5	0.08	8.04545E-001	-9.84946E-005	0.00000E+000	-7.92433E-005	-5.99601E-002	8.04820E-001	3.57930E+000	9	...........
	6	0.093333	7.94454E-001	-9.87332E-005	0.00000E+000	-7.84390E-005	-5.99601E-002	7.94734E-001	3.57930E+000	9	...........
	7	0.106667	7.84566E-001	-9.84769E-005	0.00000E+000	-7.72617E-005	-5.99601E-002	7.84814E-001	3.57930E+000	9	...........
	8	0.12	7.74788E-001	-9.88009E-005	0.00000E+000	-7.65498E-005	-5.99601E-002	7.75026E-001	3.57930E+000	9	...........
	9	0.133333	7.65125E-001	-9.86978E-005	0.00000E+000	-7.55162E-005	-5.99601E-002	7.65385E-001	3.57930E+000	9	...........
	10	0.146667	7.55537E-001	-9.92469E-005	0.00000E+000	-7.49847E-005	-5.99601E-002	7.55799E-001	3.57930E+000	9	...........
	11	0.16	7.46021E-001	-9.76382E-005	0.00000E+000	-7.28401E-005	-5.99601E-002	7.46293E-001	3.57930E+000	9	...........
	12	0.173333	7.36540E-001	-9.77111E-005	0.00000E+000	-7.19681E-005	-5.99601E-002	7.36805E-001	3.57930E+000	9	...........
	13	0.186667	7.27129E-001	-9.88447E-005	0.00000E+000	-7.18728E-005	-5.99601E-002	7.27401E-001	3.57930E+000	9	...........
	14	0.2	7.17723E-001	-9.88468E-005	0.00000E+000	-7.09446E-005	-5.99601E-002	7.17990E-001	3.57930E+000	9	...........
	15	0.213333	7.08342E-001	-9.89093E-005	0.00000E+000	-7.00616E-005	-5.99601E-002	7.08635E-001	3.57930E+000	9	...........
	16	0.226667	6.98988E-001	-9.89176E-005	0.00000E+000	-6.91423E-005	-5.99601E-002	6.99288E-001	3.57930E+000	9	...........
	17	0.24	6.89661E-001	-9.86269E-005	0.00000E+000	-6.80192E-005	-5.99601E-002	6.89953E-001	3.57930E+000	9	...........
	18	0.253333	6.80332E-001	-9.84936E-005	0.00000E+000	-6.70083E-005	-5.99601E-002	6.80617E-001	3.57930E+000	9	...........
	19	0.266667	6.71001E-001	-9.82508E-005	0.00000E+000	-6.59264E-005	-5.99601E-002	6.71262E-001	3.57930E+000	9	...........
	20	0.28	6.61637E-001	-9.90562E-005	0.00000E+000	-6.55393E-005	-5.99601E-002	6.61925E-001	3.57930E+000	9	...........
	21	0.293333	6.52334E-001	-9.86196E-005	0.00000E+000	-6.43329E-005	-5.99601E-002	6.52583E-001	3.57930E+000	9	...........
	22	0.306667	6.42993E-001	-9.86186E-005	0.00000E+000	-6.34110E-005	-5.99601E-002	6.43252E-001	3.57930E+000	9	...........
	23	0.32	6.33629E-001	-9.88374E-005	0.00000E+000	-6.26263E-005	-5.99601E-002	6.33891E-001	3.57930E+000	9	...........
	24	0.333333	6.24302E-001	-9.90301E-005	0.00000E+000	-6.18247E-005	-5.99601E-002	6.24576E-001	3.57930E+000	9	...........
	25	0.346667	6.14924E-001	-9.87447E-005	0.00000E+000	-6.07204E-005	-5.99601E-002	6.15208E-001	3.57930E+000	9	...........
	26	0.36	6.05535E-001	-9.77184E-005	0.00000E+000	-5.91719E-005	-5.99601E-002	6.05827E-001	3.57930E+000	9	...........
	27	0.373333	5.96191E-001	-9.90093E-005	0.00000E+000	-5.90284E-005	-5.99601E-002	5.96483E-001	3.57930E+000	9	...........
	28	0.386667	5.86802E-001	-9.81518E-005	0.00000E+000	-5.75957E-005	-5.99601E-002	5.87101E-001	3.57930E+000	9	...........
	29	0.4	5.77414E-001	-9.82008E-005	0.00000E+000	-5.67025E-005	-5.99601E-002	5.77700E-001	3.57930E+000	9	...........
	30	0.413333	5.68043E-001	-9.79299E-005	0.00000E+000	-5.56284E-005	-5.99601E-002	5.68303E-001	3.57930E+000	9	...........
	31	0.426667	5.58609E-001	-9.95511E-005	0.00000E+000	-5.56101E-005	-5.99601E-002	5.58899E-001	3.57930E+000	9	...........
	32	0.44	5.49199E-001	-9.90145E-005	0.00000E+000	-5.43787E-005	-5.99601E-002	5.49490E-001	3.57930E+000	9	...........
	33	0.453333	5.39791E-001	-9.91406E-005	0.00000E+000	-5.35152E-005	-5.99601E-002	5.40074E-001	3.57930E+000	9	...........
	34	0.466667	5.30380E-001	-9.83196E-005	0.00000E+000	-5.21467E-005	-5.99601E-002	5.30635E-001	3.57930E+000	9	...........
	35	0.48	5.20963E-001	-9.82185E-005	0.00000E+000	-5.11682E-005	-5.99601E-002	5.21219E-001	3.57930E+000	9	...........
	36	0.493333	5.11512E-001	-9.85082E-005	0.00000E+000	-5.03881E-005	-5.99601E-002	5.11794E-001	3.57930E+000	9	...........
	37	0.506667	5.02071E-001	-9.87884E-005	0.00000E+000	-4.95988E-005	-5.99601E-002	5.02350E-001	3.57930E+000	9	...........
	38	0.52	4.92657E-001	-9.88499E-005	0.00000E+000	-4.86991E-005	-5.99601E-002	4.92926E-001	3.57930E+000	9	...........
	39	0.533333	4.83473E-001	-9.96167E-005	0.00000E+000	-4.81620E-005	-5.99601E-002	4.83605E-001	3.57930E+000	9	...........
	40	0.546667	4.74187E-001	-9.82633E-005	0.00000E+000	-4.65952E-005	-5.99601E-002	4.74296E-001	3.57930E+000	9	...........
	41	0.56	4.64769E-001	-9.85998E-005	0.00000E+000	-4.58261E-005	-5.99601E-002	4.64870E-001	3.57877E+000	9	...........
	42	0.573333	4.55352E-001	-9.88614E-005	0.00000E+000	-4.50167E-005	-5.99601E-002	4.55448E-001	3.57870E+000	9	...........
	43	0.586667	4.45932E-001	-9.86353E-005	0.00000E+000	-4.39847E-005	-5.99601E-002	4.46034E-001	3.57870E+000	9	...........
	44	0.6	4.36527E-001	-9.80945E-005	0.00000E+000	-4.28209E-005	-5.99601E-002	4.36621E-001	3.57870E+000	9	...........
	45	0.613333	4.27121E-001	-9.95938E-005	0.00000E+000	-4.25386E-005	-5.99601E-002	4.27214E-001	3.57870E+000	9	...........
	46	0.626667	4.17728E-001	-9.87311E-005	0.00000E+000	-4.12427E-005	-5.99601E-002	4.17820E-001	3.57870E+000	9	...........
	47	0.64	4.08348E-001	-9.95959E-005	0.00000E+000	-4.06697E-005	-5.99601E-002	4.08435E-001	3.57870E+000	9	...........
	48	0.653333	3.98978E-001	-9.83154E-005	0.00000E+000	-3.92257E-005	-5.99601E-002	3.99056E-001	3.57870E+000	9	...........
	49	0.666667	3.89611E-001	-9.90739E-005	0.00000E+000	-3.86002E-005	-5.99601E-002	3.89682E-001	3.57870E+000	9	...........
	50	0.68	3.80257E-001	-9.75736E-005	0.00000E+000	-3.71030E-005	-5.99601E-002	3.80327E-001	3.57870E+000	9	...........
	51	0.693333	3.70910E-001	-9.81706E-005	0.00000E+000	-3.64125E-005	-5.99601E-002	3.70982E-001	3.57870E+000	9	...........
	52	0.706667	3.61581E-001	-9.90197E-005	0.00000E+000	-3.58037E-005	-5.99601E-002	3.61649E-001	3.57870E+000	9	...........
	53	0.72	3.52261E-001	-9.93021E-005	0.00000E+000	-3.49802E-005	-5.99601E-002	3.52337E-001	3.57870E+000	9	...........
	54	0.733333	3.42957E-001	-9.81727E-005	0.00000E+000	-3.36690E-005	-5.99601E-002	3.43022E-001	3.57870E+000	9	...........
	55	0.746667	3.33655E-001	-9.82425E-005	0.00000E+000	-3.27791E-005	-5.99601E-002	3.33714E-001	3.57870E+000	9	...........
	56	0.76	3.24376E-001	-9.77080E-005	0.00000E+000	-3.16941E-005	-5.99601E-002	3.24437E-001	3.57870E+000	9	...........
	57	0.773333	3.15098E-001	-9.97313E-005	0.00000E+000	-3.14251E-005	-5.99601E-002	3.15158E-001	3.57870E+000	9	...........
	58	0.786667	3.05832E-001	-9.78934E-005	0.00000E+000	-2.99390E-005	-5.99601E-002	3.05886E-001	3.57870E+000	9	...........
	59	0.8	2.96569E-001	-9.86853E-005	0.00000E+000	-2.92670E-005	-5.99601E-002	2.96627E-001	3.57870E+000	9	...........
	60	0.813333	2.87326E-001	-9.88051E-005	0.00000E+000	-2.83892E-005	-5.99601E-002	2.87380E-001	3.57870E+000	9	...........
	61	0.826667	2.78087E-001	-9.84634E-005	0.00000E+000	-2.73814E-005	-5.99601E-002	2.78146E-001	3.57870E+000	9	...........
	62	0.84	2.68861E-001	-9.88989E-005	0.00000E+000	-2.65900E-005	-5.99601E-002	2.68919E-001	3.57870E+000	9	...........
	63	0.853333	2.59653E-001	-9.85717E-005	0.00000E+000	-2.55945E-005	-5.99601E-002	2.59702E-001	3.57870E+000	9	...........
	64	0.866667	2.50448E-001	-9.84581E-005	0.00000E+000	-2.46587E-005	-5.99601E-002	2.50502E-001	3.57870E+000	9	...........
	65	0.88	2.41264E-001	-9.84258E-005	0.00000E+000	-2.37467E-005	-5.99601E-002	2.41304E-001	3.57870E+000	9	...........
	66	0.893333	2.32091E-001	-9.93354E-005	0.00000E+000	-2.30549E-005	-5.99601E-002	2.32131E-001	3.57870E+000	9	...........
	67	0.906667	2.22929E-001	-9.94584E-005	0.00000E+000	-2.21722E-005	-5.99601E-002	2.22966E-001	3.57870E+000	9	...........
	68	0.92	2.13791E-001	-9.89291E-005	0.00000E+000	-2.11502E-005	-5.99601E-002	2.13824E-001	3.57870E+000	9	...........
	69	0.933333	2.04664E-001	-9.88478E-005	0.00000E+000	-2.02306E-005	-5.99601E-002	2.04690E-001	3.57870E+000	9	...........
	70	0.946667	1.95554E-001	-9.87530E-005	0.00000E+000	-1.93115E-005	-5.99601E-002	1.95583E-001	3.57870E+000	9	...........
	71	0.96	1.86466E-001	-9.92396E-005	0.00000E+000	-1.85048E-005	-5.99601E-002	1.86493E-001	3.57870E+000	9	...........
	72	0.97333	1.77397E-001	-9.87884E-005	0.00000E+000	-1.75248E-005	-5.99601E-002	1.77425E-001	3.57870E+000	9	...........
	73	0.98667	1.68353E-001	-9.89082E-005	0.00000E+000	-1.66515E-005	-5.99601E-002	1.68384E-001	3.57870E+000	9	...........
	74	1	1.59341E-001	-9.92250E-005	0.00000E+000	-1.58106E-005	-5.99601E-002	1.59365E-001	3.57870E+000	9	...........
	75	1.01333	1.50352E-001	-9.87145E-005	0.00000E+000	-1.48419E-005	-5.99601E-002	1.50377E-001	3.57870E+000	9	...........
	76	1.02667	1.41401E-001	-9.83487E-005	0.00000E+000	-1.39066E-005	-5.99601E-002	1.41422E-001	3.57870E+000	9	...........
	77	1.04	1.32480E-001	-9.90197E-005	0.00000E+000	-1.31182E-005	-5.99601E-002	1.32501E-001	3.57870E+000	9	...........
	78	1.05333	1.23595E-001	-9.80685E-005	0.00000E+000	-1.21208E-005	-5.99601E-002	1.23618E-001	3.57870E+000	9	...........
	79	1.06667	1.14761E-001	-9.83613E-005	0.00000E+000	-1.12880E-005	-5.99601E-002	1.14775E-001	3.57870E+000	9	...........
	80	1.08	1.05971E-001	-9.86863E-005	0.00000E+000	-1.04579E-005	-5.99601E-002	1.05982E-001	3.57870E+000	9	...........
	81	1.09333	9.72203E-002	-9.82685E-005	0.00000E+000	-9.55370E-006	-5.99601E-002	9.72328E-002	3.57870E+000	9	...........
	82	1.10667	8.85227E-002	-9.84092E-005	0.00000E+000	-8.71145E-006	-5.99601E-002	8.85329E-002	3.57870E+000	9	...........
	83	1.12	7.98839E-002	-9.87884E-005	0.00000E+000	-7.89160E-006	-5.99601E-002	7.98893E-002	3.57870E+000	9	...........
	84	1.13333	7.12906E-002	-9.90874E-005	0.00000E+000	-7.06401E-006	-5.99601E-002	7.12899E-002	3.57870E+000	9	...........
	85	1.14667	6.27641E-002	-9.88947E-005	0.00000E+000	-6.20704E-006	-5.99601E-002	6.27596E-002	3.57870E+000	9	...........
	86	1.16	5.43045E-002	-9.92833E-005	0.00000E+000	-5.39154E-006	-5.99601E-002	5.42994E-002	3.57870E+000	9	...........
	87	1.17333	4.59328E-002	-9.92666E-005	0.00000E+000	-4.55959E-006	-5.99601E-002	4.59262E-002	3.57870E+000	9	...........
	88	1.18667	3.76063E-002	-9.97543E-005	0.00000E+000	-3.75138E-006	-5.99601E-002	3.75960E-002	3.57870E+000	9	...........
	89	1.2	2.93317E-002	-9.87926E-005	0.00000E+000	-2.89775E-006	-5.99601E-002	2.93173E-002	3.57870E+000	9	...........
	90	1.21333	2.11256E-002	-9.84717E-005	0.00000E+000	-2.08027E-006	-5.99601E-002	2.11036E-002	3.57870E+000	9	...........
	91	1.22667	1.29832E-002	-9.84008E-005	0.00000E+000	-1.27756E-006	-5.99601E-002	1.29589E-002	3.57870E+000	9	...........
	92	1.24	4.90560E-003	-9.99251E-005	0.00000E+000	-4.90192E-007	-5.99601E-002	4.87300E-003	3.57870E+000	9	...........
	93	1.24333	-1.13760E-004	-9.89812E-005	0.00000E+000	1.12601E-008	-5.99601E-002	-1.42050E-004	3.57870E+000	9	...........
STARTTIMEOFFSET	QUANT	49.99834	Start Time Offset (s)
