EXPLAIN
TAG	PWR800_DISCHARGE
TITLE	LABEL	PWR Cyclic Charge Discharge (Cell) - Discharge Step	Test &Identifier
DATE	LABEL	13-7-2017	Date
TIME	LABEL	15:45:40	Time
NOTES	NOTES	2	&Notes...
	supercap test cell
	6M KOH
PSTAT	PSTAT	IFC5000-01520	Potentiostat
CAPACITY	QUANT	1.00000E-003	Capacity (A-hr)
CELLTYPE	SELECTOR	1	&Cell Type
WORKINGCONNECTION	SELECTOR	0	&Working Lead
MAXDISCHARGETIME	VARIABLEANDUNITS	1.00000E+002	s	1.00000E+002	second(s)	Max &Discharge Time
DISCHARGEMODE	MULTIPARAM	0	1.00000E-004	&Discharge Mode	Constant Current	Amp(s)
SAMPLETIME	QUANT	1.00000E-002	Sa&mple Period (s)
DISCHARGESTOPAT1	MULTIPARAM	3	0.00000E+000	Discharge Stop At &1	Voltage < Limit	V
DISCHARGESTOPAT2	MULTIPARAM	0	0.00000E+000	Discharge Stop At &2	None	N/A
AESBHCSELECTOR	TOGGLE	F	Save Both Half Cells
IRCOMP	TOGGLE	F	IR &Measure
EOC	QUANT	0	Open Circuit (V)
SEQUENCER	TOGGLE	TRUE	Run as Sequence
PSTATMODEL	IQUANT	53	Pstat Model
PSTATSECTION	LABEL	IFC5000-01520	Pstat Section
PSTATSERIALNO	LABEL	01520	Pstat Serial Number
CTRLMODE	IQUANT	0	Control Mode
ELECTROMETER	IQUANT	1	RE=0 or CS=1
IESTAB	IQUANT	0	I/E Stability
CASPEED	IQUANT	4	Control Amp Speed
CONVENTION	IQUANT	1	Current Convention
ICHRANGE	IQUANT	2	Ich Range
ICHRANGEMODE	TOGGLE	T	Ich Auto Range
ICHOFFSETENABLE	TOGGLE	F	Ich Offset Enable
ICHOFFSET	QUANT	0	Ich Offset (V)
ICHFILTER	IQUANT	1	Ich Filter
VCHRANGE	IQUANT	2	Vch Range
VCHRANGEMODE	TOGGLE	T	Vch Auto Range
VCHOFFSETENABLE	TOGGLE	F	Vch Offset Enable
VCHOFFSET	QUANT	0	Vch Offset (V)
VCHFILTER	IQUANT	1	Vch Filter
IERANGELOWERLIMIT	IQUANT	9	I/E Range Lower Limit
IERANGEMODE	TOGGLE	F	I/E AutoRange
IERANGE	IQUANT	9	I/E Range
ACHSELECT	IQUANT	1	Ach Select
ACHRANGE	IQUANT	2	Ach Range
ACHOFFSETENABLE	TOGGLE	F	Ach Offset Enable
ACHOFFSET	QUANT	0	Ach Offset (V)
ACHFILTER	IQUANT	1	Ach Filter
CABLEID	IQUANT	14	Cable ID
DCCALDATE	LABEL	5-7-2017	DC Calibration Date
ACCALDATE	LABEL	12/3/2015	AC Calibration Date
FRAMEWORKVERSION	QUANT	7.01	Framework Version
INSTRUMENTVERSION	LABEL	4.00	Instrument Version
CURVE	TABLE	86
	Pt	T	Vf	Im	Vu	Pwr	Sig	Ach	Temp	IERange	Over
	#	s	V	A	V	W	V	V	deg C	#	bits
	0	0.013333	8.45329E-001	-9.85707E-005	0.00000E+000	-8.33246E-005	-5.99601E-002	8.45618E-001	3.57860E+000	9	...........
	1	0.026667	8.30986E-001	-9.81487E-005	0.00000E+000	-8.15602E-005	-5.99601E-002	8.31296E-001	3.57860E+000	9	...........
	2	0.04	8.17497E-001	-9.91354E-005	0.00000E+000	-8.10429E-005	-5.99601E-002	8.17805E-001	3.57860E+000	9	...........
	3	0.053333	8.04590E-001	-9.89249E-005	0.00000E+000	-7.95940E-005	-5.99601E-002	8.04923E-001	3.57860E+000	9	...........
	4	0.066667	7.92087E-001	-9.84904E-005	0.00000E+000	-7.80130E-005	-5.99601E-002	7.92421E-001	3.57860E+000	9	...........
	5	0.08	7.79893E-001	-9.95584E-005	0.00000E+000	-7.76449E-005	-5.99601E-002	7.80190E-001	3.57860E+000	9	...........
	6	0.093333	7.67883E-001	-9.97907E-005	0.00000E+000	-7.66276E-005	-5.99601E-002	7.68202E-001	3.57860E+000	9	...........
	7	0.106667	7.56067E-001	-9.85457E-005	0.00000E+000	-7.45071E-005	-5.99601E-002	7.56347E-001	3.57860E+000	9	...........
	8	0.12	7.44346E-001	-9.85186E-005	0.00000E+000	-7.33320E-005	-5.99601E-002	7.44663E-001	3.57860E+000	9	...........
	9	0.133333	7.32718E-001	-9.88332E-005	0.00000E+000	-7.24169E-005	-5.99601E-002	7.33031E-001	3.57860E+000	9	...........
	10	0.146667	7.21210E-001	-9.87311E-005	0.00000E+000	-7.12059E-005	-5.99601E-002	7.21493E-001	3.57860E+000	9	...........
	11	0.16	7.09695E-001	-9.87186E-005	0.00000E+000	-7.00601E-005	-5.99601E-002	7.10008E-001	3.57860E+000	9	...........
	12	0.173333	6.98282E-001	-9.85582E-005	0.00000E+000	-6.88214E-005	-5.99601E-002	6.98560E-001	3.57860E+000	9	...........
	13	0.186667	6.86878E-001	-9.83060E-005	0.00000E+000	-6.75242E-005	-5.99601E-002	6.87168E-001	3.57860E+000	9	...........
	14	0.2	6.75537E-001	-9.91041E-005	0.00000E+000	-6.69485E-005	-5.99601E-002	6.75797E-001	3.57860E+000	9	...........
	15	0.213333	6.64172E-001	-9.90218E-005	0.00000E+000	-6.57675E-005	-5.99601E-002	6.64445E-001	3.57860E+000	9	...........
	16	0.226667	6.52873E-001	-9.90895E-005	0.00000E+000	-6.46928E-005	-5.99601E-002	6.53128E-001	3.57860E+000	9	...........
	17	0.24	6.41554E-001	-9.92739E-005	0.00000E+000	-6.36895E-005	-5.99601E-002	6.41829E-001	3.57860E+000	9	...........
	18	0.253333	6.30301E-001	-9.82706E-005	0.00000E+000	-6.19400E-005	-5.99601E-002	6.30561E-001	3.57860E+000	9	...........
	19	0.266667	6.19091E-001	-9.91427E-005	0.00000E+000	-6.13784E-005	-5.99601E-002	6.19336E-001	3.57860E+000	9	...........
	20	0.28	6.07805E-001	-9.83852E-005	0.00000E+000	-5.97990E-005	-5.99601E-002	6.08102E-001	3.57860E+000	9	...........
	21	0.293333	5.96618E-001	-9.86040E-005	0.00000E+000	-5.88289E-005	-5.99601E-002	5.96893E-001	3.57860E+000	9	...........
	22	0.306667	5.85447E-001	-9.97355E-005	0.00000E+000	-5.83898E-005	-5.99601E-002	5.85730E-001	3.57860E+000	9	...........
	23	0.32	5.74320E-001	-9.82425E-005	0.00000E+000	-5.64226E-005	-5.99601E-002	5.74601E-001	3.57860E+000	9	...........
	24	0.333333	5.63228E-001	-9.93635E-005	0.00000E+000	-5.59644E-005	-5.99601E-002	5.63485E-001	3.57860E+000	9	...........
	25	0.346667	5.52169E-001	-9.85946E-005	0.00000E+000	-5.44409E-005	-5.99601E-002	5.52429E-001	3.57860E+000	9	...........
	26	0.36	5.41156E-001	-9.90708E-005	0.00000E+000	-5.36128E-005	-5.99601E-002	5.41406E-001	3.57860E+000	9	...........
	27	0.373333	5.30180E-001	-9.86467E-005	0.00000E+000	-5.23005E-005	-5.99601E-002	5.30382E-001	3.57860E+000	9	...........
	28	0.386667	5.19293E-001	-9.89020E-005	0.00000E+000	-5.13591E-005	-5.99601E-002	5.19460E-001	3.57860E+000	9	...........
	29	0.4	5.08374E-001	-9.93865E-005	0.00000E+000	-5.05255E-005	-5.99601E-002	5.08554E-001	3.57860E+000	9	...........
	30	0.413333	4.97579E-001	-9.88874E-005	0.00000E+000	-4.92043E-005	-5.99601E-002	4.97738E-001	3.57860E+000	9	...........
	31	0.426667	4.86921E-001	-9.95876E-005	0.00000E+000	-4.84912E-005	-5.99601E-002	4.87070E-001	3.57860E+000	9	...........
	32	0.44	4.76503E-001	-9.86926E-005	0.00000E+000	-4.70274E-005	-5.99601E-002	4.76593E-001	3.57860E+000	9	...........
	33	0.453333	4.65867E-001	-9.89478E-005	0.00000E+000	-4.60966E-005	-5.99601E-002	4.65956E-001	3.57860E+000	9	...........
	34	0.466667	4.55303E-001	-9.92573E-005	0.00000E+000	-4.51921E-005	-5.99601E-002	4.55391E-001	3.57860E+000	9	...........
	35	0.48	4.44799E-001	-9.91781E-005	0.00000E+000	-4.41143E-005	-5.99601E-002	4.44888E-001	3.57860E+000	9	...........
	36	0.493333	4.34365E-001	-9.89270E-005	0.00000E+000	-4.29704E-005	-5.99601E-002	4.34459E-001	3.57860E+000	9	...........
	37	0.506667	4.24008E-001	-9.88405E-005	0.00000E+000	-4.19092E-005	-5.99601E-002	4.24093E-001	3.57860E+000	9	...........
	38	0.52	4.13715E-001	-9.96136E-005	0.00000E+000	-4.12116E-005	-5.99601E-002	4.13795E-001	3.57860E+000	9	...........
	39	0.533333	4.03492E-001	-9.90885E-005	0.00000E+000	-3.99814E-005	-5.99601E-002	4.03572E-001	3.57860E+000	9	...........
	40	0.546667	3.93340E-001	-9.89364E-005	0.00000E+000	-3.89156E-005	-5.99601E-002	3.93412E-001	3.57860E+000	9	...........
	41	0.56	3.83252E-001	-9.95282E-005	0.00000E+000	-3.81444E-005	-5.99601E-002	3.83317E-001	3.57860E+000	9	...........
	42	0.573333	3.73228E-001	-9.87374E-005	0.00000E+000	-3.68516E-005	-5.99601E-002	3.73300E-001	3.57860E+000	9	...........
	43	0.586667	3.63270E-001	-9.82862E-005	0.00000E+000	-3.57044E-005	-5.99601E-002	3.63338E-001	3.57860E+000	9	...........
	44	0.6	3.53381E-001	-9.89645E-005	0.00000E+000	-3.49721E-005	-5.99601E-002	3.53440E-001	3.57860E+000	9	...........
	45	0.613333	3.43545E-001	-9.85467E-005	0.00000E+000	-3.38552E-005	-5.99601E-002	3.43603E-001	3.57860E+000	9	...........
	46	0.626667	3.33769E-001	-9.93010E-005	0.00000E+000	-3.31436E-005	-5.99601E-002	3.33831E-001	3.57860E+000	9	...........
	47	0.64	3.24062E-001	-9.85280E-005	0.00000E+000	-3.19292E-005	-5.99601E-002	3.24119E-001	3.57860E+000	9	...........
	48	0.653333	3.14404E-001	-9.89760E-005	0.00000E+000	-3.11184E-005	-5.99601E-002	3.14463E-001	3.57860E+000	9	...........
	49	0.666667	3.04806E-001	-9.85842E-005	0.00000E+000	-3.00491E-005	-5.99601E-002	3.04854E-001	3.57860E+000	9	...........
	50	0.68	2.95260E-001	-9.92739E-005	0.00000E+000	-2.93116E-005	-5.99601E-002	2.95309E-001	3.57860E+000	9	...........
	51	0.693333	2.85767E-001	-9.89228E-005	0.00000E+000	-2.82689E-005	-5.99601E-002	2.85822E-001	3.57860E+000	9	...........
	52	0.706667	2.76329E-001	-9.90312E-005	0.00000E+000	-2.73651E-005	-5.99601E-002	2.76388E-001	3.57860E+000	9	...........
	53	0.72	2.66942E-001	-9.86426E-005	0.00000E+000	-2.63318E-005	-5.99601E-002	2.66995E-001	3.57860E+000	9	...........
	54	0.733333	2.57609E-001	-9.89822E-005	0.00000E+000	-2.54987E-005	-5.99601E-002	2.57657E-001	3.57860E+000	9	...........
	55	0.746667	2.48327E-001	-9.87405E-005	0.00000E+000	-2.45199E-005	-5.99601E-002	2.48367E-001	3.57860E+000	9	...........
	56	0.76	2.39099E-001	-9.88166E-005	0.00000E+000	-2.36269E-005	-5.99601E-002	2.39132E-001	3.57860E+000	9	...........
	57	0.773333	2.29915E-001	-9.93094E-005	0.00000E+000	-2.28328E-005	-5.99601E-002	2.29949E-001	3.57860E+000	9	...........
	58	0.786667	2.20780E-001	-9.86832E-005	0.00000E+000	-2.17873E-005	-5.99601E-002	2.20816E-001	3.57860E+000	9	...........
	59	0.8	2.11706E-001	-9.81727E-005	0.00000E+000	-2.07837E-005	-5.99601E-002	2.11735E-001	3.57860E+000	9	...........
	60	0.813333	2.02680E-001	-9.83946E-005	0.00000E+000	-1.99426E-005	-5.99601E-002	2.02711E-001	3.57860E+000	9	...........
	61	0.826667	1.93717E-001	-9.87395E-005	0.00000E+000	-1.91275E-005	-5.99601E-002	1.93746E-001	3.57860E+000	9	...........
	62	0.84	1.84813E-001	-9.98043E-005	0.00000E+000	-1.84452E-005	-5.99601E-002	1.84836E-001	3.57860E+000	9	...........
	63	0.853333	1.75968E-001	-9.94719E-005	0.00000E+000	-1.75038E-005	-5.99601E-002	1.75992E-001	3.57860E+000	9	...........
	64	0.866667	1.67185E-001	-9.91218E-005	0.00000E+000	-1.65717E-005	-5.99601E-002	1.67211E-001	3.57860E+000	9	...........
	65	0.88	1.58479E-001	-9.83613E-005	0.00000E+000	-1.55882E-005	-5.99601E-002	1.58499E-001	3.57860E+000	9	...........
	66	0.893333	1.49836E-001	-9.89124E-005	0.00000E+000	-1.48206E-005	-5.99601E-002	1.49860E-001	3.57860E+000	9	...........
	67	0.906667	1.41269E-001	-9.93281E-005	0.00000E+000	-1.40320E-005	-5.99601E-002	1.41281E-001	3.57860E+000	9	...........
	68	0.92	1.32767E-001	-9.90927E-005	0.00000E+000	-1.31563E-005	-5.99601E-002	1.32777E-001	3.57860E+000	9	...........
	69	0.933333	1.24348E-001	-9.91687E-005	0.00000E+000	-1.23314E-005	-5.99601E-002	1.24358E-001	3.57860E+000	9	...........
	70	0.946667	1.15999E-001	-9.87811E-005	0.00000E+000	-1.14585E-005	-5.99601E-002	1.16010E-001	3.57860E+000	9	...........
	71	0.96	1.07722E-001	-9.83383E-005	0.00000E+000	-1.05932E-005	-5.99601E-002	1.07730E-001	3.57860E+000	9	...........
	72	0.97333	9.95218E-002	-9.87092E-005	0.00000E+000	-9.82372E-006	-5.99601E-002	9.95347E-002	3.57860E+000	9	...........
	73	0.98667	9.14048E-002	-9.88697E-005	0.00000E+000	-9.03716E-006	-5.99601E-002	9.14093E-002	3.57860E+000	9	...........
	74	1	8.33583E-002	-9.94021E-005	0.00000E+000	-8.28599E-006	-5.99601E-002	8.33598E-002	3.57860E+000	9	...........
	75	1.01333	7.53835E-002	-9.89958E-005	0.00000E+000	-7.46265E-006	-5.99601E-002	7.53835E-002	3.57860E+000	9	...........
	76	1.02667	6.74814E-002	-9.78632E-005	0.00000E+000	-6.60395E-006	-5.99601E-002	6.74823E-002	3.57860E+000	9	...........
	77	1.04	5.96508E-002	-9.94031E-005	0.00000E+000	-5.92947E-006	-5.99601E-002	5.96433E-002	3.57860E+000	9	...........
	78	1.05333	5.18930E-002	-9.93396E-005	0.00000E+000	-5.15503E-006	-5.99601E-002	5.18798E-002	3.57860E+000	9	...........
	79	1.06667	4.42361E-002	-9.84227E-005	0.00000E+000	-4.35384E-006	-5.99601E-002	4.42290E-002	3.57860E+000	9	...........
	80	1.08	3.66157E-002	-9.81133E-005	0.00000E+000	-3.59249E-006	-5.99601E-002	3.66012E-002	3.57860E+000	9	...........
	81	1.09333	2.90639E-002	-9.90635E-005	0.00000E+000	-2.87917E-006	-5.99601E-002	2.90467E-002	3.57860E+000	9	...........
	82	1.10667	2.15762E-002	-9.89999E-005	0.00000E+000	-2.13604E-006	-5.99601E-002	2.15550E-002	3.57860E+000	9	...........
	83	1.12	1.41585E-002	-9.85196E-005	0.00000E+000	-1.39489E-006	-5.99601E-002	1.41298E-002	3.57860E+000	9	...........
	84	1.13333	6.80786E-003	-9.79310E-005	0.00000E+000	-6.66700E-007	-5.99601E-002	6.77427E-003	3.57860E+000	9	...........
	85	1.14	1.33118E-003	-9.93083E-005	0.00000E+000	-1.32198E-007	-5.99601E-002	1.29252E-003	3.57860E+000	9	...........
STARTTIMEOFFSET	QUANT	1972.387	Start Time Offset (s)
