EXPLAIN
TAG	PWR800_DISCHARGE
TITLE	LABEL	PWR Cyclic Charge Discharge (Cell) - Discharge Step	Test &Identifier
DATE	LABEL	13-7-2017	Date
TIME	LABEL	15:38:47	Time
NOTES	NOTES	2	&Notes...
	supercap test cell
	6M KOH
PSTAT	PSTAT	IFC5000-01520	Potentiostat
CAPACITY	QUANT	1.00000E-003	Capacity (A-hr)
CELLTYPE	SELECTOR	1	&Cell Type
WORKINGCONNECTION	SELECTOR	0	&Working Lead
MAXDISCHARGETIME	VARIABLEANDUNITS	1.00000E+002	s	1.00000E+002	second(s)	Max &Discharge Time
DISCHARGEMODE	MULTIPARAM	0	1.00000E-004	&Discharge Mode	Constant Current	Amp(s)
SAMPLETIME	QUANT	1.00000E-002	Sa&mple Period (s)
DISCHARGESTOPAT1	MULTIPARAM	3	0.00000E+000	Discharge Stop At &1	Voltage < Limit	V
DISCHARGESTOPAT2	MULTIPARAM	0	0.00000E+000	Discharge Stop At &2	None	N/A
AESBHCSELECTOR	TOGGLE	F	Save Both Half Cells
IRCOMP	TOGGLE	F	IR &Measure
EOC	QUANT	0	Open Circuit (V)
SEQUENCER	TOGGLE	TRUE	Run as Sequence
PSTATMODEL	IQUANT	53	Pstat Model
PSTATSECTION	LABEL	IFC5000-01520	Pstat Section
PSTATSERIALNO	LABEL	01520	Pstat Serial Number
CTRLMODE	IQUANT	0	Control Mode
ELECTROMETER	IQUANT	1	RE=0 or CS=1
IESTAB	IQUANT	0	I/E Stability
CASPEED	IQUANT	4	Control Amp Speed
CONVENTION	IQUANT	1	Current Convention
ICHRANGE	IQUANT	2	Ich Range
ICHRANGEMODE	TOGGLE	T	Ich Auto Range
ICHOFFSETENABLE	TOGGLE	F	Ich Offset Enable
ICHOFFSET	QUANT	0	Ich Offset (V)
ICHFILTER	IQUANT	1	Ich Filter
VCHRANGE	IQUANT	2	Vch Range
VCHRANGEMODE	TOGGLE	T	Vch Auto Range
VCHOFFSETENABLE	TOGGLE	F	Vch Offset Enable
VCHOFFSET	QUANT	0	Vch Offset (V)
VCHFILTER	IQUANT	1	Vch Filter
IERANGELOWERLIMIT	IQUANT	9	I/E Range Lower Limit
IERANGEMODE	TOGGLE	F	I/E AutoRange
IERANGE	IQUANT	9	I/E Range
ACHSELECT	IQUANT	1	Ach Select
ACHRANGE	IQUANT	2	Ach Range
ACHOFFSETENABLE	TOGGLE	F	Ach Offset Enable
ACHOFFSET	QUANT	0	Ach Offset (V)
ACHFILTER	IQUANT	1	Ach Filter
CABLEID	IQUANT	14	Cable ID
DCCALDATE	LABEL	5-7-2017	DC Calibration Date
ACCALDATE	LABEL	12/3/2015	AC Calibration Date
FRAMEWORKVERSION	QUANT	7.01	Framework Version
INSTRUMENTVERSION	LABEL	4.00	Instrument Version
CURVE	TABLE	87
	Pt	T	Vf	Im	Vu	Pwr	Sig	Ach	Temp	IERange	Over
	#	s	V	A	V	W	V	V	deg C	#	bits
	0	0.013333	8.46200E-001	-9.93469E-005	0.00000E+000	-8.40674E-005	-5.99601E-002	8.46523E-001	3.57900E+000	9	...........
	1	0.026667	8.32001E-001	-9.87936E-005	0.00000E+000	-8.21964E-005	-5.99601E-002	8.32330E-001	3.57900E+000	9	...........
	2	0.04	8.18659E-001	-9.89645E-005	0.00000E+000	-8.10182E-005	-5.99601E-002	8.18986E-001	3.57900E+000	9	...........
	3	0.053333	8.05898E-001	-9.86373E-005	0.00000E+000	-7.94916E-005	-5.99601E-002	8.06215E-001	3.57900E+000	9	...........
	4	0.066667	7.93528E-001	-9.83894E-005	0.00000E+000	-7.80748E-005	-5.99601E-002	7.93847E-001	3.57900E+000	9	...........
	5	0.08	7.81463E-001	-9.93250E-005	0.00000E+000	-7.76188E-005	-5.99601E-002	7.81754E-001	3.57900E+000	9	...........
	6	0.093333	7.69578E-001	-9.92646E-005	0.00000E+000	-7.63919E-005	-5.99601E-002	7.69887E-001	3.57900E+000	9	...........
	7	0.106667	7.57888E-001	-9.88155E-005	0.00000E+000	-7.48911E-005	-5.99601E-002	7.58180E-001	3.57900E+000	9	...........
	8	0.12	7.46295E-001	-9.86915E-005	0.00000E+000	-7.36530E-005	-5.99601E-002	7.46609E-001	3.57900E+000	9	...........
	9	0.133333	7.34829E-001	-9.97053E-005	0.00000E+000	-7.32664E-005	-5.99601E-002	7.35131E-001	3.57900E+000	9	...........
	10	0.146667	7.23444E-001	-9.85884E-005	0.00000E+000	-7.13232E-005	-5.99601E-002	7.23724E-001	3.57900E+000	9	...........
	11	0.16	7.12051E-001	-9.81966E-005	0.00000E+000	-6.99210E-005	-5.99601E-002	7.12356E-001	3.57900E+000	9	...........
	12	0.173333	7.00772E-001	-9.84738E-005	0.00000E+000	-6.90076E-005	-5.99601E-002	7.01075E-001	3.57900E+000	9	...........
	13	0.186667	6.89499E-001	-9.86915E-005	0.00000E+000	-6.80477E-005	-5.99601E-002	6.89805E-001	3.57900E+000	9	...........
	14	0.2	6.78282E-001	-9.86207E-005	0.00000E+000	-6.68927E-005	-5.99601E-002	6.78545E-001	3.57900E+000	9	...........
	15	0.213333	6.67072E-001	-9.86759E-005	0.00000E+000	-6.58239E-005	-5.99601E-002	6.67353E-001	3.57900E+000	9	...........
	16	0.226667	6.55888E-001	-9.87707E-005	0.00000E+000	-6.47825E-005	-5.99601E-002	6.56158E-001	3.57900E+000	9	...........
	17	0.24	6.44725E-001	-9.92614E-005	0.00000E+000	-6.39963E-005	-5.99601E-002	6.44988E-001	3.57900E+000	9	...........
	18	0.253333	6.33552E-001	-9.80987E-005	0.00000E+000	-6.21506E-005	-5.99601E-002	6.33831E-001	3.57900E+000	9	...........
	19	0.266667	6.22445E-001	-9.90468E-005	0.00000E+000	-6.16512E-005	-5.99601E-002	6.22709E-001	3.57900E+000	9	...........
	20	0.28	6.11292E-001	-9.88541E-005	0.00000E+000	-6.04287E-005	-5.99601E-002	6.11584E-001	3.57900E+000	9	...........
	21	0.293333	6.00235E-001	-9.93594E-005	0.00000E+000	-5.96389E-005	-5.99601E-002	6.00520E-001	3.57900E+000	9	...........
	22	0.306667	5.89163E-001	-9.91270E-005	0.00000E+000	-5.84020E-005	-5.99601E-002	5.89451E-001	3.57900E+000	9	...........
	23	0.32	5.78168E-001	-9.95386E-005	0.00000E+000	-5.75500E-005	-5.99601E-002	5.78412E-001	3.57900E+000	9	...........
	24	0.333333	5.67177E-001	-9.83748E-005	0.00000E+000	-5.57960E-005	-5.99601E-002	5.67462E-001	3.57900E+000	9	...........
	25	0.346667	5.56198E-001	-9.85655E-005	0.00000E+000	-5.48219E-005	-5.99601E-002	5.56489E-001	3.57900E+000	9	...........
	26	0.36	5.45297E-001	-9.92500E-005	0.00000E+000	-5.41207E-005	-5.99601E-002	5.45562E-001	3.57900E+000	9	...........
	27	0.373333	5.34419E-001	-9.85728E-005	0.00000E+000	-5.26791E-005	-5.99601E-002	5.34681E-001	3.57900E+000	9	...........
	28	0.386667	5.23602E-001	-9.96011E-005	0.00000E+000	-5.21514E-005	-5.99601E-002	5.23846E-001	3.57900E+000	9	...........
	29	0.4	5.12800E-001	-9.83248E-005	0.00000E+000	-5.04209E-005	-5.99601E-002	5.13056E-001	3.57900E+000	9	...........
	30	0.413333	5.02049E-001	-9.91677E-005	0.00000E+000	-4.97871E-005	-5.99601E-002	5.02336E-001	3.57900E+000	9	...........
	31	0.426667	4.91366E-001	-9.79737E-005	0.00000E+000	-4.81409E-005	-5.99601E-002	4.91623E-001	3.57900E+000	9	...........
	32	0.44	4.81065E-001	-9.82414E-005	0.00000E+000	-4.72605E-005	-5.99601E-002	4.81168E-001	3.57900E+000	9	...........
	33	0.453333	4.70546E-001	-9.86519E-005	0.00000E+000	-4.64203E-005	-5.99601E-002	4.70638E-001	3.57900E+000	9	...........
	34	0.466667	4.60024E-001	-9.87728E-005	0.00000E+000	-4.54379E-005	-5.99601E-002	4.60121E-001	3.57900E+000	9	...........
	35	0.48	4.49584E-001	-9.85488E-005	0.00000E+000	-4.43059E-005	-5.99601E-002	4.49674E-001	3.57900E+000	9	...........
	36	0.493333	4.39205E-001	-9.91552E-005	0.00000E+000	-4.35494E-005	-5.99601E-002	4.39293E-001	3.57900E+000	9	...........
	37	0.506667	4.28892E-001	-9.85613E-005	0.00000E+000	-4.22721E-005	-5.99601E-002	4.28974E-001	3.57900E+000	9	...........
	38	0.52	4.18634E-001	-9.82487E-005	0.00000E+000	-4.11303E-005	-5.99601E-002	4.18713E-001	3.57900E+000	9	...........
	39	0.533333	4.08454E-001	-9.95125E-005	0.00000E+000	-4.06463E-005	-5.99601E-002	4.08528E-001	3.57900E+000	9	...........
	40	0.546667	3.98340E-001	-9.82696E-005	0.00000E+000	-3.91447E-005	-5.99601E-002	3.98408E-001	3.57900E+000	9	...........
	41	0.56	3.88278E-001	-9.95657E-005	0.00000E+000	-3.86591E-005	-5.99601E-002	3.88351E-001	3.57900E+000	9	...........
	42	0.573333	3.78287E-001	-9.91395E-005	0.00000E+000	-3.75032E-005	-5.99601E-002	3.78359E-001	3.57900E+000	9	...........
	43	0.586667	3.68366E-001	-9.77830E-005	0.00000E+000	-3.60200E-005	-5.99601E-002	3.68433E-001	3.57900E+000	9	...........
	44	0.6	3.58505E-001	-9.88145E-005	0.00000E+000	-3.54255E-005	-5.99601E-002	3.58565E-001	3.57919E+000	9	...........
	45	0.613333	3.48699E-001	-9.81070E-005	0.00000E+000	-3.42098E-005	-5.99601E-002	3.48764E-001	3.57930E+000	9	...........
	46	0.626667	3.38960E-001	-9.80872E-005	0.00000E+000	-3.32476E-005	-5.99601E-002	3.39025E-001	3.57930E+000	9	...........
	47	0.64	3.29275E-001	-9.92416E-005	0.00000E+000	-3.26778E-005	-5.99601E-002	3.29334E-001	3.57930E+000	9	...........
	48	0.653333	3.19650E-001	-9.86478E-005	0.00000E+000	-3.15327E-005	-5.99601E-002	3.19706E-001	3.57930E+000	9	...........
	49	0.666667	3.10069E-001	-9.94531E-005	0.00000E+000	-3.08373E-005	-5.99601E-002	3.10127E-001	3.57930E+000	9	...........
	50	0.68	3.00546E-001	-9.83779E-005	0.00000E+000	-2.95671E-005	-5.99601E-002	3.00603E-001	3.57930E+000	9	...........
	51	0.693333	2.91073E-001	-9.83019E-005	0.00000E+000	-2.86131E-005	-5.99601E-002	2.91123E-001	3.57930E+000	9	...........
	52	0.706667	2.81648E-001	-9.87030E-005	0.00000E+000	-2.77995E-005	-5.99601E-002	2.81700E-001	3.57930E+000	9	...........
	53	0.72	2.72277E-001	-9.91406E-005	0.00000E+000	-2.69937E-005	-5.99601E-002	2.72329E-001	3.57930E+000	9	...........
	54	0.733333	2.62955E-001	-9.98324E-005	0.00000E+000	-2.62514E-005	-5.99601E-002	2.63007E-001	3.57930E+000	9	...........
	55	0.746667	2.53687E-001	-9.91875E-005	0.00000E+000	-2.51625E-005	-5.99601E-002	2.53733E-001	3.57930E+000	9	...........
	56	0.76	2.44463E-001	-9.90604E-005	0.00000E+000	-2.42166E-005	-5.99601E-002	2.44506E-001	3.57930E+000	9	...........
	57	0.773333	2.35292E-001	-9.91052E-005	0.00000E+000	-2.33186E-005	-5.99601E-002	2.35326E-001	3.57930E+000	9	...........
	58	0.786667	2.26168E-001	-9.97553E-005	0.00000E+000	-2.25614E-005	-5.99601E-002	2.26204E-001	3.57930E+000	9	...........
	59	0.8	2.17095E-001	-9.86478E-005	0.00000E+000	-2.14160E-005	-5.99601E-002	2.17127E-001	3.57930E+000	9	...........
	60	0.813333	2.08079E-001	-9.94448E-005	0.00000E+000	-2.06923E-005	-5.99601E-002	2.08106E-001	3.57930E+000	9	...........
	61	0.826667	1.99110E-001	-9.91937E-005	0.00000E+000	-1.97505E-005	-5.99601E-002	1.99141E-001	3.57930E+000	9	...........
	62	0.84	1.90196E-001	-9.89708E-005	0.00000E+000	-1.88238E-005	-5.99601E-002	1.90226E-001	3.57930E+000	9	...........
	63	0.853333	1.81343E-001	-9.91635E-005	0.00000E+000	-1.79826E-005	-5.99601E-002	1.81373E-001	3.57930E+000	9	...........
	64	0.866667	1.72550E-001	-9.88301E-005	0.00000E+000	-1.70531E-005	-5.99601E-002	1.72577E-001	3.57930E+000	9	...........
	65	0.88	1.63829E-001	-9.93719E-005	0.00000E+000	-1.62800E-005	-5.99601E-002	1.63846E-001	3.57930E+000	9	...........
	66	0.893333	1.55169E-001	-9.82446E-005	0.00000E+000	-1.52445E-005	-5.99601E-002	1.55185E-001	3.57930E+000	9	...........
	67	0.906667	1.46574E-001	-9.89999E-005	0.00000E+000	-1.45108E-005	-5.99601E-002	1.46588E-001	3.57930E+000	9	...........
	68	0.92	1.38047E-001	-9.94573E-005	0.00000E+000	-1.37298E-005	-5.99601E-002	1.38060E-001	3.57930E+000	9	...........
	69	0.933333	1.29593E-001	-9.87676E-005	0.00000E+000	-1.27996E-005	-5.99601E-002	1.29610E-001	3.57930E+000	9	...........
	70	0.946667	1.21211E-001	-9.88926E-005	0.00000E+000	-1.19868E-005	-5.99601E-002	1.21225E-001	3.57930E+000	9	...........
	71	0.96	1.12908E-001	-9.83925E-005	0.00000E+000	-1.11093E-005	-5.99601E-002	1.12917E-001	3.57930E+000	9	...........
	72	0.97333	1.04671E-001	-9.81664E-005	0.00000E+000	-1.02752E-005	-5.99601E-002	1.04686E-001	3.57930E+000	9	...........
	73	0.98667	9.65184E-002	-9.89041E-005	0.00000E+000	-9.54606E-006	-5.99601E-002	9.65288E-002	3.57930E+000	9	...........
	74	1	8.84323E-002	-9.89499E-005	0.00000E+000	-8.75037E-006	-5.99601E-002	8.84387E-002	3.57930E+000	9	...........
	75	1.01333	8.04275E-002	-1.00465E-004	0.00000E+000	-8.08014E-006	-5.99601E-002	8.04268E-002	3.57930E+000	9	...........
	76	1.02667	7.24936E-002	-9.87728E-005	0.00000E+000	-7.16039E-006	-5.99601E-002	7.24911E-002	3.57930E+000	9	...........
	77	1.04	6.46359E-002	-1.00100E-004	0.00000E+000	-6.47006E-006	-5.99601E-002	6.46277E-002	3.57930E+000	9	...........
	78	1.05333	5.68379E-002	-9.89134E-005	0.00000E+000	-5.62203E-006	-5.99601E-002	5.68317E-002	3.57930E+000	9	...........
	79	1.06667	4.91304E-002	-9.87228E-005	0.00000E+000	-4.85029E-006	-5.99601E-002	4.91151E-002	3.57930E+000	9	...........
	80	1.08	4.14960E-002	-9.83956E-005	0.00000E+000	-4.08303E-006	-5.99601E-002	4.14845E-002	3.57930E+000	9	...........
	81	1.09333	3.39106E-002	-9.91854E-005	0.00000E+000	-3.36344E-006	-5.99601E-002	3.38910E-002	3.57930E+000	9	...........
	82	1.10667	2.63882E-002	-9.90135E-005	0.00000E+000	-2.61279E-006	-5.99601E-002	2.63688E-002	3.57930E+000	9	...........
	83	1.12	1.89320E-002	-9.87843E-005	0.00000E+000	-1.87019E-006	-5.99601E-002	1.89079E-002	3.57930E+000	9	...........
	84	1.13333	1.15405E-002	-9.90583E-005	0.00000E+000	-1.14318E-006	-5.99601E-002	1.15112E-002	3.57930E+000	9	...........
	85	1.14667	4.22212E-003	-9.92854E-005	0.00000E+000	-4.19195E-007	-5.99601E-002	4.18474E-003	3.57930E+000	9	...........
	86	1.15	-3.27846E-004	-9.84727E-005	0.00000E+000	3.22839E-008	-5.99601E-002	-3.58087E-004	3.57930E+000	9	...........
STARTTIMEOFFSET	QUANT	1663.003	Start Time Offset (s)
