EXPLAIN
TAG	PWR800_DISCHARGE
TITLE	LABEL	PWR Cyclic Charge Discharge (Cell) - Discharge Step	Test &Identifier
DATE	LABEL	13-7-2017	Date
TIME	LABEL	15:31:39	Time
NOTES	NOTES	2	&Notes...
	supercap test cell
	6M KOH
PSTAT	PSTAT	IFC5000-01520	Potentiostat
CAPACITY	QUANT	1.00000E-003	Capacity (A-hr)
CELLTYPE	SELECTOR	1	&Cell Type
WORKINGCONNECTION	SELECTOR	0	&Working Lead
MAXDISCHARGETIME	VARIABLEANDUNITS	1.00000E+002	s	1.00000E+002	second(s)	Max &Discharge Time
DISCHARGEMODE	MULTIPARAM	0	1.00000E-004	&Discharge Mode	Constant Current	Amp(s)
SAMPLETIME	QUANT	1.00000E-002	Sa&mple Period (s)
DISCHARGESTOPAT1	MULTIPARAM	3	0.00000E+000	Discharge Stop At &1	Voltage < Limit	V
DISCHARGESTOPAT2	MULTIPARAM	0	0.00000E+000	Discharge Stop At &2	None	N/A
AESBHCSELECTOR	TOGGLE	F	Save Both Half Cells
IRCOMP	TOGGLE	F	IR &Measure
EOC	QUANT	0	Open Circuit (V)
SEQUENCER	TOGGLE	TRUE	Run as Sequence
PSTATMODEL	IQUANT	53	Pstat Model
PSTATSECTION	LABEL	IFC5000-01520	Pstat Section
PSTATSERIALNO	LABEL	01520	Pstat Serial Number
CTRLMODE	IQUANT	0	Control Mode
ELECTROMETER	IQUANT	1	RE=0 or CS=1
IESTAB	IQUANT	0	I/E Stability
CASPEED	IQUANT	4	Control Amp Speed
CONVENTION	IQUANT	1	Current Convention
ICHRANGE	IQUANT	2	Ich Range
ICHRANGEMODE	TOGGLE	T	Ich Auto Range
ICHOFFSETENABLE	TOGGLE	F	Ich Offset Enable
ICHOFFSET	QUANT	0	Ich Offset (V)
ICHFILTER	IQUANT	1	Ich Filter
VCHRANGE	IQUANT	2	Vch Range
VCHRANGEMODE	TOGGLE	T	Vch Auto Range
VCHOFFSETENABLE	TOGGLE	F	Vch Offset Enable
VCHOFFSET	QUANT	0	Vch Offset (V)
VCHFILTER	IQUANT	1	Vch Filter
IERANGELOWERLIMIT	IQUANT	9	I/E Range Lower Limit
IERANGEMODE	TOGGLE	F	I/E AutoRange
IERANGE	IQUANT	9	I/E Range
ACHSELECT	IQUANT	1	Ach Select
ACHRANGE	IQUANT	2	Ach Range
ACHOFFSETENABLE	TOGGLE	F	Ach Offset Enable
ACHOFFSET	QUANT	0	Ach Offset (V)
ACHFILTER	IQUANT	1	Ach Filter
CABLEID	IQUANT	14	Cable ID
DCCALDATE	LABEL	5-7-2017	DC Calibration Date
ACCALDATE	LABEL	12/3/2015	AC Calibration Date
FRAMEWORKVERSION	QUANT	7.01	Framework Version
INSTRUMENTVERSION	LABEL	4.00	Instrument Version
CURVE	TABLE	88
	Pt	T	Vf	Im	Vu	Pwr	Sig	Ach	Temp	IERange	Over
	#	s	V	A	V	W	V	V	deg C	#	bits
	0	0.013333	8.47812E-001	-9.84665E-005	0.00000E+000	-8.34811E-005	-5.99601E-002	8.48153E-001	3.57890E+000	9	...........
	1	0.026667	8.33810E-001	-9.84519E-005	0.00000E+000	-8.20901E-005	-5.99601E-002	8.34106E-001	3.57890E+000	9	...........
	2	0.04	8.20611E-001	-9.88864E-005	0.00000E+000	-8.11472E-005	-5.99601E-002	8.20940E-001	3.57890E+000	9	...........
	3	0.053333	8.08014E-001	-9.84894E-005	0.00000E+000	-7.95808E-005	-5.99601E-002	8.08317E-001	3.57890E+000	9	...........
	4	0.066667	7.95829E-001	-9.87686E-005	0.00000E+000	-7.86030E-005	-5.99601E-002	7.96135E-001	3.57890E+000	9	...........
	5	0.08	7.83927E-001	-9.92166E-005	0.00000E+000	-7.77786E-005	-5.99601E-002	7.84216E-001	3.57890E+000	9	...........
	6	0.093333	7.72222E-001	-9.91208E-005	0.00000E+000	-7.65432E-005	-5.99601E-002	7.72530E-001	3.57890E+000	9	...........
	7	0.106667	7.60714E-001	-9.86749E-005	0.00000E+000	-7.50633E-005	-5.99601E-002	7.60975E-001	3.57890E+000	9	...........
	8	0.12	7.49307E-001	-9.90937E-005	0.00000E+000	-7.42516E-005	-5.99601E-002	7.49590E-001	3.57890E+000	9	...........
	9	0.133333	7.37979E-001	-9.84029E-005	0.00000E+000	-7.26193E-005	-5.99601E-002	7.38281E-001	3.57890E+000	9	...........
	10	0.146667	7.26759E-001	-9.99449E-005	0.00000E+000	-7.26358E-005	-5.99601E-002	7.27043E-001	3.57890E+000	9	...........
	11	0.16	7.15577E-001	-9.88218E-005	0.00000E+000	-7.07146E-005	-5.99601E-002	7.15890E-001	3.57890E+000	9	...........
	12	0.173333	7.04433E-001	-9.89572E-005	0.00000E+000	-6.97087E-005	-5.99601E-002	7.04734E-001	3.57890E+000	9	...........
	13	0.186667	6.93339E-001	-9.85394E-005	0.00000E+000	-6.83212E-005	-5.99601E-002	6.93649E-001	3.57890E+000	9	...........
	14	0.2	6.82289E-001	-9.85175E-005	0.00000E+000	-6.72174E-005	-5.99601E-002	6.82582E-001	3.57890E+000	9	...........
	15	0.213333	6.71279E-001	-9.85957E-005	0.00000E+000	-6.61853E-005	-5.99601E-002	6.71552E-001	3.57890E+000	9	...........
	16	0.226667	6.60238E-001	-9.86738E-005	0.00000E+000	-6.51482E-005	-5.99601E-002	6.60499E-001	3.57890E+000	9	...........
	17	0.24	6.49235E-001	-9.87509E-005	0.00000E+000	-6.41126E-005	-5.99601E-002	6.49504E-001	3.57890E+000	9	...........
	18	0.253333	6.38257E-001	-9.86228E-005	0.00000E+000	-6.29467E-005	-5.99601E-002	6.38522E-001	3.57890E+000	9	...........
	19	0.266667	6.27315E-001	-9.85603E-005	0.00000E+000	-6.18283E-005	-5.99601E-002	6.27552E-001	3.57890E+000	9	...........
	20	0.28	6.16370E-001	-9.90801E-005	0.00000E+000	-6.10701E-005	-5.99601E-002	6.16599E-001	3.57890E+000	9	...........
	21	0.293333	6.05403E-001	-9.86332E-005	0.00000E+000	-5.97128E-005	-5.99601E-002	6.05720E-001	3.57890E+000	9	...........
	22	0.306667	5.94534E-001	-9.86248E-005	0.00000E+000	-5.86358E-005	-5.99601E-002	5.94807E-001	3.57890E+000	9	...........
	23	0.32	5.83633E-001	-9.91010E-005	0.00000E+000	-5.78386E-005	-5.99601E-002	5.83940E-001	3.57890E+000	9	...........
	24	0.333333	5.72827E-001	-9.92041E-005	0.00000E+000	-5.68268E-005	-5.99601E-002	5.73095E-001	3.57890E+000	9	...........
	25	0.346667	5.61977E-001	-9.89416E-005	0.00000E+000	-5.56029E-005	-5.99601E-002	5.62244E-001	3.57890E+000	9	...........
	26	0.36	5.51179E-001	-9.92844E-005	0.00000E+000	-5.47234E-005	-5.99601E-002	5.51455E-001	3.57890E+000	9	...........
	27	0.373333	5.40445E-001	-9.84654E-005	0.00000E+000	-5.32151E-005	-5.99601E-002	5.40707E-001	3.57890E+000	9	...........
	28	0.386667	5.29692E-001	-9.81393E-005	0.00000E+000	-5.19836E-005	-5.99601E-002	5.29975E-001	3.57890E+000	9	...........
	29	0.4	5.19038E-001	-9.79112E-005	0.00000E+000	-5.08196E-005	-5.99601E-002	5.19316E-001	3.57890E+000	9	...........
	30	0.413333	5.08387E-001	-9.87561E-005	0.00000E+000	-5.02063E-005	-5.99601E-002	5.08675E-001	3.57890E+000	9	...........
	31	0.426667	4.97790E-001	-9.89812E-005	0.00000E+000	-4.92719E-005	-5.99601E-002	4.98078E-001	3.57890E+000	9	...........
	32	0.44	4.87368E-001	-9.86311E-005	0.00000E+000	-4.80697E-005	-5.99601E-002	4.87551E-001	3.57890E+000	9	...........
	33	0.453333	4.77176E-001	-9.82685E-005	0.00000E+000	-4.68914E-005	-5.99601E-002	4.77275E-001	3.57890E+000	9	...........
	34	0.466667	4.66747E-001	-9.81425E-005	0.00000E+000	-4.58077E-005	-5.99601E-002	4.66845E-001	3.57890E+000	9	...........
	35	0.48	4.56375E-001	-9.89822E-005	0.00000E+000	-4.51730E-005	-5.99601E-002	4.56471E-001	3.57890E+000	9	...........
	36	0.493333	4.46072E-001	-9.94375E-005	0.00000E+000	-4.43563E-005	-5.99601E-002	4.46162E-001	3.57890E+000	9	...........
	37	0.506667	4.35816E-001	-9.87374E-005	0.00000E+000	-4.30313E-005	-5.99601E-002	4.35910E-001	3.57895E+000	9	...........
	38	0.52	4.25629E-001	-9.89260E-005	0.00000E+000	-4.21058E-005	-5.99601E-002	4.25720E-001	3.57910E+000	9	...........
	39	0.533333	4.15500E-001	-9.87801E-005	0.00000E+000	-4.10431E-005	-5.99601E-002	4.15584E-001	3.57910E+000	9	...........
	40	0.546667	4.05438E-001	-9.88009E-005	0.00000E+000	-4.00576E-005	-5.99601E-002	4.05520E-001	3.57910E+000	9	...........
	41	0.56	3.95444E-001	-9.86696E-005	0.00000E+000	-3.90183E-005	-5.99601E-002	3.95516E-001	3.57910E+000	9	...........
	42	0.573333	3.85505E-001	-9.85832E-005	0.00000E+000	-3.80043E-005	-5.99601E-002	3.85579E-001	3.57910E+000	9	...........
	43	0.586667	3.75623E-001	-9.92021E-005	0.00000E+000	-3.72626E-005	-5.99601E-002	3.75690E-001	3.57910E+000	9	...........
	44	0.6	3.65799E-001	-9.93906E-005	0.00000E+000	-3.63570E-005	-5.99601E-002	3.65870E-001	3.57910E+000	9	...........
	45	0.613333	3.56037E-001	-9.87738E-005	0.00000E+000	-3.51671E-005	-5.99601E-002	3.56106E-001	3.57910E+000	9	...........
	46	0.626667	3.46336E-001	-9.91447E-005	0.00000E+000	-3.43374E-005	-5.99601E-002	3.46399E-001	3.57910E+000	9	...........
	47	0.64	3.36686E-001	-9.83248E-005	0.00000E+000	-3.31046E-005	-5.99601E-002	3.36745E-001	3.57910E+000	9	...........
	48	0.653333	3.27092E-001	-9.91072E-005	0.00000E+000	-3.24171E-005	-5.99601E-002	3.27149E-001	3.57910E+000	9	...........
	49	0.666667	3.17554E-001	-9.73694E-005	0.00000E+000	-3.09201E-005	-5.99601E-002	3.17612E-001	3.57910E+000	9	...........
	50	0.68	3.08057E-001	-9.99574E-005	0.00000E+000	-3.07926E-005	-5.99601E-002	3.08116E-001	3.57910E+000	9	...........
	51	0.693333	2.98619E-001	-9.95323E-005	0.00000E+000	-2.97223E-005	-5.99601E-002	2.98671E-001	3.57910E+000	9	...........
	52	0.706667	2.89226E-001	-9.95615E-005	0.00000E+000	-2.87958E-005	-5.99601E-002	2.89275E-001	3.57910E+000	9	...........
	53	0.72	2.79881E-001	-9.80862E-005	0.00000E+000	-2.74524E-005	-5.99601E-002	2.79936E-001	3.57910E+000	9	...........
	54	0.733333	2.70586E-001	-9.87249E-005	0.00000E+000	-2.67136E-005	-5.99601E-002	2.70634E-001	3.57910E+000	9	...........
	55	0.746667	2.61335E-001	-9.94052E-005	0.00000E+000	-2.59781E-005	-5.99601E-002	2.61383E-001	3.57910E+000	9	...........
	56	0.76	2.52139E-001	-9.83592E-005	0.00000E+000	-2.48002E-005	-5.99601E-002	2.52182E-001	3.57910E+000	9	...........
	57	0.773333	2.42986E-001	-9.76830E-005	0.00000E+000	-2.37356E-005	-5.99601E-002	2.43026E-001	3.57910E+000	9	...........
	58	0.786667	2.33873E-001	-9.95188E-005	0.00000E+000	-2.32748E-005	-5.99601E-002	2.33917E-001	3.57910E+000	9	...........
	59	0.8	2.24813E-001	-9.90697E-005	0.00000E+000	-2.22722E-005	-5.99601E-002	2.24853E-001	3.57910E+000	9	...........
	60	0.813333	2.15796E-001	-9.81487E-005	0.00000E+000	-2.11801E-005	-5.99601E-002	2.15834E-001	3.57910E+000	9	...........
	61	0.826667	2.06832E-001	-9.88593E-005	0.00000E+000	-2.04473E-005	-5.99601E-002	2.06865E-001	3.57910E+000	9	...........
	62	0.84	1.97916E-001	-9.92552E-005	0.00000E+000	-1.96442E-005	-5.99601E-002	1.97950E-001	3.57910E+000	9	...........
	63	0.853333	1.89054E-001	-9.89082E-005	0.00000E+000	-1.86990E-005	-5.99601E-002	1.89081E-001	3.57910E+000	9	...........
	64	0.866667	1.80239E-001	-9.92281E-005	0.00000E+000	-1.78848E-005	-5.99601E-002	1.80273E-001	3.57910E+000	9	...........
	65	0.88	1.71490E-001	-9.86446E-005	0.00000E+000	-1.69165E-005	-5.99601E-002	1.71520E-001	3.57910E+000	9	...........
	66	0.893333	1.62807E-001	-9.98001E-005	0.00000E+000	-1.62481E-005	-5.99601E-002	1.62829E-001	3.57910E+000	9	...........
	67	0.906667	1.54183E-001	-9.93802E-005	0.00000E+000	-1.53227E-005	-5.99601E-002	1.54205E-001	3.57910E+000	9	...........
	68	0.92	1.45627E-001	-9.86092E-005	0.00000E+000	-1.43601E-005	-5.99601E-002	1.45638E-001	3.57910E+000	9	...........
	69	0.933333	1.37132E-001	-9.96626E-005	0.00000E+000	-1.36670E-005	-5.99601E-002	1.37148E-001	3.57910E+000	9	...........
	70	0.946667	1.28709E-001	-9.92594E-005	0.00000E+000	-1.27756E-005	-5.99601E-002	1.28723E-001	3.57910E+000	9	...........
	71	0.96	1.20362E-001	-9.96324E-005	0.00000E+000	-1.19920E-005	-5.99601E-002	1.20375E-001	3.57910E+000	9	...........
	72	0.97333	1.12085E-001	-9.89187E-005	0.00000E+000	-1.10873E-005	-5.99601E-002	1.12094E-001	3.57910E+000	9	...........
	73	0.98667	1.03877E-001	-9.92364E-005	0.00000E+000	-1.03084E-005	-5.99601E-002	1.03885E-001	3.57910E+000	9	...........
	74	1	9.57400E-002	-9.83852E-005	0.00000E+000	-9.41940E-006	-5.99601E-002	9.57436E-002	3.57910E+000	9	...........
	75	1.01333	8.76755E-002	-9.93198E-005	0.00000E+000	-8.70792E-006	-5.99601E-002	8.76785E-002	3.57910E+000	9	...........
	76	1.02667	7.96863E-002	-9.93000E-005	0.00000E+000	-7.91285E-006	-5.99601E-002	7.96893E-002	3.57910E+000	9	...........
	77	1.04	7.17724E-002	-9.93458E-005	0.00000E+000	-7.13029E-006	-5.99601E-002	7.17679E-002	3.57910E+000	9	...........
	78	1.05333	6.39233E-002	-9.81143E-005	0.00000E+000	-6.27179E-006	-5.99601E-002	6.39168E-002	3.57910E+000	9	...........
	79	1.06667	5.61467E-002	-9.88780E-005	0.00000E+000	-5.55167E-006	-5.99601E-002	5.61386E-002	3.57910E+000	9	...........
	80	1.08	4.84493E-002	-9.92146E-005	0.00000E+000	-4.80688E-006	-5.99601E-002	4.84445E-002	3.57910E+000	9	...........
	81	1.09333	4.08276E-002	-9.80424E-005	0.00000E+000	-4.00284E-006	-5.99601E-002	4.08216E-002	3.57910E+000	9	...........
	82	1.10667	3.32570E-002	-9.85988E-005	0.00000E+000	-3.27910E-006	-5.99601E-002	3.32450E-002	3.57910E+000	9	...........
	83	1.12	2.57529E-002	-9.90426E-005	0.00000E+000	-2.55063E-006	-5.99601E-002	2.57356E-002	3.57910E+000	9	...........
	84	1.13333	1.83106E-002	-9.93375E-005	0.00000E+000	-1.81893E-006	-5.99601E-002	1.82860E-002	3.57910E+000	9	...........
	85	1.14667	1.09323E-002	-9.90291E-005	0.00000E+000	-1.08261E-006	-5.99601E-002	1.09069E-002	3.57910E+000	9	...........
	86	1.16	3.61932E-003	-9.84133E-005	0.00000E+000	-3.56189E-007	-5.99601E-002	3.58740E-003	3.57910E+000	9	...........
	87	1.16167	-4.72555E-004	-9.83019E-005	0.00000E+000	4.64531E-008	-5.99601E-002	-5.08251E-004	3.57910E+000	9	...........
STARTTIMEOFFSET	QUANT	1341.15	Start Time Offset (s)
