EXPLAIN
TAG	PWR800_DISCHARGE
TITLE	LABEL	PWR Cyclic Charge Discharge (Cell) - Discharge Step	Test &Identifier
DATE	LABEL	13-7-2017	Date
TIME	LABEL	15:48:23	Time
NOTES	NOTES	2	&Notes...
	supercap test cell
	6M KOH
PSTAT	PSTAT	IFC5000-01520	Potentiostat
CAPACITY	QUANT	1.00000E-003	Capacity (A-hr)
CELLTYPE	SELECTOR	1	&Cell Type
WORKINGCONNECTION	SELECTOR	0	&Working Lead
MAXDISCHARGETIME	VARIABLEANDUNITS	1.00000E+002	s	1.00000E+002	second(s)	Max &Discharge Time
DISCHARGEMODE	MULTIPARAM	0	1.00000E-004	&Discharge Mode	Constant Current	Amp(s)
SAMPLETIME	QUANT	1.00000E-002	Sa&mple Period (s)
DISCHARGESTOPAT1	MULTIPARAM	3	0.00000E+000	Discharge Stop At &1	Voltage < Limit	V
DISCHARGESTOPAT2	MULTIPARAM	0	0.00000E+000	Discharge Stop At &2	None	N/A
AESBHCSELECTOR	TOGGLE	F	Save Both Half Cells
IRCOMP	TOGGLE	F	IR &Measure
EOC	QUANT	0	Open Circuit (V)
SEQUENCER	TOGGLE	TRUE	Run as Sequence
PSTATMODEL	IQUANT	53	Pstat Model
PSTATSECTION	LABEL	IFC5000-01520	Pstat Section
PSTATSERIALNO	LABEL	01520	Pstat Serial Number
CTRLMODE	IQUANT	0	Control Mode
ELECTROMETER	IQUANT	1	RE=0 or CS=1
IESTAB	IQUANT	0	I/E Stability
CASPEED	IQUANT	4	Control Amp Speed
CONVENTION	IQUANT	1	Current Convention
ICHRANGE	IQUANT	2	Ich Range
ICHRANGEMODE	TOGGLE	T	Ich Auto Range
ICHOFFSETENABLE	TOGGLE	F	Ich Offset Enable
ICHOFFSET	QUANT	0	Ich Offset (V)
ICHFILTER	IQUANT	1	Ich Filter
VCHRANGE	IQUANT	2	Vch Range
VCHRANGEMODE	TOGGLE	T	Vch Auto Range
VCHOFFSETENABLE	TOGGLE	F	Vch Offset Enable
VCHOFFSET	QUANT	0	Vch Offset (V)
VCHFILTER	IQUANT	1	Vch Filter
IERANGELOWERLIMIT	IQUANT	9	I/E Range Lower Limit
IERANGEMODE	TOGGLE	F	I/E AutoRange
IERANGE	IQUANT	9	I/E Range
ACHSELECT	IQUANT	1	Ach Select
ACHRANGE	IQUANT	2	Ach Range
ACHOFFSETENABLE	TOGGLE	F	Ach Offset Enable
ACHOFFSET	QUANT	0	Ach Offset (V)
ACHFILTER	IQUANT	1	Ach Filter
CABLEID	IQUANT	14	Cable ID
DCCALDATE	LABEL	5-7-2017	DC Calibration Date
ACCALDATE	LABEL	12/3/2015	AC Calibration Date
FRAMEWORKVERSION	QUANT	7.01	Framework Version
INSTRUMENTVERSION	LABEL	4.00	Instrument Version
CURVE	TABLE	86
	Pt	T	Vf	Im	Vu	Pwr	Sig	Ach	Temp	IERange	Over
	#	s	V	A	V	W	V	V	deg C	#	bits
	0	0.013333	8.46718E-001	-9.90937E-005	0.00000E+000	-8.39044E-005	-5.99601E-002	8.47053E-001	3.58000E+000	9	...........
	1	0.026667	8.32492E-001	-9.95104E-005	0.00000E+000	-8.28416E-005	-5.99601E-002	8.32821E-001	3.58000E+000	9	...........
	2	0.04	8.19100E-001	-9.80622E-005	0.00000E+000	-8.03228E-005	-5.99601E-002	8.19416E-001	3.58000E+000	9	...........
	3	0.053333	8.06277E-001	-9.87561E-005	0.00000E+000	-7.96248E-005	-5.99601E-002	8.06573E-001	3.58000E+000	9	...........
	4	0.066667	7.93825E-001	-9.92218E-005	0.00000E+000	-7.87648E-005	-5.99601E-002	7.94107E-001	3.58000E+000	9	...........
	5	0.08	7.81663E-001	-9.90343E-005	0.00000E+000	-7.74114E-005	-5.99601E-002	7.81927E-001	3.58000E+000	9	...........
	6	0.093333	7.69690E-001	-9.83029E-005	0.00000E+000	-7.56627E-005	-5.99601E-002	7.69964E-001	3.58000E+000	9	...........
	7	0.106667	7.57868E-001	-9.94219E-005	0.00000E+000	-7.53487E-005	-5.99601E-002	7.58139E-001	3.58000E+000	9	...........
	8	0.12	7.46175E-001	-9.86769E-005	0.00000E+000	-7.36302E-005	-5.99601E-002	7.46405E-001	3.58000E+000	9	...........
	9	0.133333	7.34538E-001	-9.89885E-005	0.00000E+000	-7.27108E-005	-5.99601E-002	7.34808E-001	3.58000E+000	9	...........
	10	0.146667	7.23015E-001	-9.81477E-005	0.00000E+000	-7.09622E-005	-5.99601E-002	7.23244E-001	3.57918E+000	9	...........
	11	0.16	7.11468E-001	-9.85550E-005	0.00000E+000	-7.01188E-005	-5.99601E-002	7.11748E-001	3.57850E+000	9	...........
	12	0.173333	7.00020E-001	-9.90937E-005	0.00000E+000	-6.93676E-005	-5.99601E-002	7.00305E-001	3.57850E+000	9	...........
	13	0.186667	6.88621E-001	-9.84436E-005	0.00000E+000	-6.77903E-005	-5.99601E-002	6.88862E-001	3.57850E+000	9	...........
	14	0.2	6.77220E-001	-9.86863E-005	0.00000E+000	-6.68324E-005	-5.99601E-002	6.77494E-001	3.57850E+000	9	...........
	15	0.213333	6.65851E-001	-9.83165E-005	0.00000E+000	-6.54641E-005	-5.99601E-002	6.66112E-001	3.57850E+000	9	...........
	16	0.226667	6.54502E-001	-9.96678E-005	0.00000E+000	-6.52328E-005	-5.99601E-002	6.54751E-001	3.57850E+000	9	...........
	17	0.24	6.43182E-001	-9.83039E-005	0.00000E+000	-6.32273E-005	-5.99601E-002	6.43427E-001	3.57850E+000	9	...........
	18	0.253333	6.31874E-001	-9.94406E-005	0.00000E+000	-6.28339E-005	-5.99601E-002	6.32113E-001	3.57850E+000	9	...........
	19	0.266667	6.20591E-001	-9.99428E-005	0.00000E+000	-6.20236E-005	-5.99601E-002	6.20857E-001	3.57850E+000	9	...........
	20	0.28	6.09288E-001	-9.86290E-005	0.00000E+000	-6.00935E-005	-5.99601E-002	6.09585E-001	3.57850E+000	9	...........
	21	0.293333	5.98089E-001	-9.94927E-005	0.00000E+000	-5.95055E-005	-5.99601E-002	5.98357E-001	3.57850E+000	9	...........
	22	0.306667	5.86863E-001	-9.87009E-005	0.00000E+000	-5.79239E-005	-5.99601E-002	5.87145E-001	3.57850E+000	9	...........
	23	0.32	5.75713E-001	-9.81331E-005	0.00000E+000	-5.64965E-005	-5.99601E-002	5.75963E-001	3.57850E+000	9	...........
	24	0.333333	5.64570E-001	-9.90520E-005	0.00000E+000	-5.59218E-005	-5.99601E-002	5.64829E-001	3.57850E+000	9	...........
	25	0.346667	5.53453E-001	-9.83540E-005	0.00000E+000	-5.44343E-005	-5.99601E-002	5.53701E-001	3.57850E+000	9	...........
	26	0.36	5.42401E-001	-9.97001E-005	0.00000E+000	-5.40774E-005	-5.99601E-002	5.42639E-001	3.57850E+000	9	...........
	27	0.373333	5.31370E-001	-9.82143E-005	0.00000E+000	-5.21882E-005	-5.99601E-002	5.31605E-001	3.57850E+000	9	...........
	28	0.386667	5.20428E-001	-9.79924E-005	0.00000E+000	-5.09980E-005	-5.99601E-002	5.20649E-001	3.57850E+000	9	...........
	29	0.4	5.09497E-001	-9.94969E-005	0.00000E+000	-5.06934E-005	-5.99601E-002	5.09729E-001	3.57850E+000	9	...........
	30	0.413333	4.98629E-001	-9.95073E-005	0.00000E+000	-4.96173E-005	-5.99601E-002	4.98864E-001	3.57850E+000	9	...........
	31	0.426667	4.87885E-001	-9.85457E-005	0.00000E+000	-4.80789E-005	-5.99601E-002	4.88094E-001	3.57850E+000	9	...........
	32	0.44	4.77482E-001	-9.85665E-005	0.00000E+000	-4.70638E-005	-5.99601E-002	4.77577E-001	3.57850E+000	9	...........
	33	0.453333	4.66805E-001	-9.81883E-005	0.00000E+000	-4.58348E-005	-5.99601E-002	4.66899E-001	3.57850E+000	9	...........
	34	0.466667	4.56193E-001	-9.91885E-005	0.00000E+000	-4.52491E-005	-5.99601E-002	4.56287E-001	3.57850E+000	9	...........
	35	0.48	4.45660E-001	-9.87884E-005	0.00000E+000	-4.40261E-005	-5.99601E-002	4.45752E-001	3.57850E+000	9	...........
	36	0.493333	4.35194E-001	-9.88770E-005	0.00000E+000	-4.30307E-005	-5.99601E-002	4.35279E-001	3.57850E+000	9	...........
	37	0.506667	4.24794E-001	-9.92531E-005	0.00000E+000	-4.21621E-005	-5.99601E-002	4.24874E-001	3.57850E+000	9	...........
	38	0.52	4.14462E-001	-9.82810E-005	0.00000E+000	-4.07338E-005	-5.99601E-002	4.14542E-001	3.57850E+000	9	...........
	39	0.533333	4.04203E-001	-9.88895E-005	0.00000E+000	-3.99714E-005	-5.99601E-002	4.04281E-001	3.57850E+000	9	...........
	40	0.546667	3.94019E-001	-9.88197E-005	0.00000E+000	-3.89369E-005	-5.99601E-002	3.94090E-001	3.57850E+000	9	...........
	41	0.56	3.83894E-001	-9.82508E-005	0.00000E+000	-3.77179E-005	-5.99601E-002	3.83967E-001	3.57850E+000	9	...........
	42	0.573333	3.73840E-001	-9.91812E-005	0.00000E+000	-3.70779E-005	-5.99601E-002	3.73905E-001	3.57850E+000	9	...........
	43	0.586667	3.63846E-001	-9.85342E-005	0.00000E+000	-3.58513E-005	-5.99601E-002	3.63910E-001	3.57850E+000	9	...........
	44	0.6	3.53924E-001	-9.89082E-005	0.00000E+000	-3.50060E-005	-5.99601E-002	3.53988E-001	3.57850E+000	9	...........
	45	0.613333	3.44063E-001	-9.86061E-005	0.00000E+000	-3.39267E-005	-5.99601E-002	3.44131E-001	3.57850E+000	9	...........
	46	0.626667	3.34268E-001	-9.84259E-005	0.00000E+000	-3.29006E-005	-5.99601E-002	3.34329E-001	3.57850E+000	9	...........
	47	0.64	3.24528E-001	-9.95782E-005	0.00000E+000	-3.23159E-005	-5.99601E-002	3.24587E-001	3.57850E+000	9	...........
	48	0.653333	3.14843E-001	-9.89030E-005	0.00000E+000	-3.11389E-005	-5.99601E-002	3.14902E-001	3.57850E+000	9	...........
	49	0.666667	3.05221E-001	-9.91906E-005	0.00000E+000	-3.02751E-005	-5.99601E-002	3.05279E-001	3.57850E+000	9	...........
	50	0.68	2.95655E-001	-9.90697E-005	0.00000E+000	-2.92905E-005	-5.99601E-002	2.95710E-001	3.57850E+000	9	...........
	51	0.693333	2.86145E-001	-9.90822E-005	0.00000E+000	-2.83518E-005	-5.99601E-002	2.86200E-001	3.57850E+000	9	...........
	52	0.706667	2.76684E-001	-9.92333E-005	0.00000E+000	-2.74562E-005	-5.99601E-002	2.76726E-001	3.57850E+000	9	...........
	53	0.72	2.67270E-001	-9.86936E-005	0.00000E+000	-2.63778E-005	-5.99601E-002	2.67327E-001	3.57850E+000	9	...........
	54	0.733333	2.57915E-001	-9.92885E-005	0.00000E+000	-2.56080E-005	-5.99601E-002	2.57961E-001	3.57850E+000	9	...........
	55	0.746667	2.48612E-001	-9.83467E-005	0.00000E+000	-2.44501E-005	-5.99601E-002	2.48652E-001	3.57850E+000	9	...........
	56	0.76	2.39359E-001	-9.89926E-005	0.00000E+000	-2.36948E-005	-5.99601E-002	2.39400E-001	3.57850E+000	9	...........
	57	0.773333	2.30162E-001	-9.90364E-005	0.00000E+000	-2.27944E-005	-5.99601E-002	2.30192E-001	3.57850E+000	9	...........
	58	0.786667	2.21004E-001	-9.98074E-005	0.00000E+000	-2.20578E-005	-5.99601E-002	2.21044E-001	3.57850E+000	9	...........
	59	0.8	2.11913E-001	-9.82362E-005	0.00000E+000	-2.08176E-005	-5.99601E-002	2.11950E-001	3.57850E+000	9	...........
	60	0.813333	2.02875E-001	-9.85571E-005	0.00000E+000	-1.99947E-005	-5.99601E-002	2.02903E-001	3.57850E+000	9	...........
	61	0.826667	1.93891E-001	-9.93062E-005	0.00000E+000	-1.92546E-005	-5.99601E-002	1.93918E-001	3.57850E+000	9	...........
	62	0.84	1.84970E-001	-9.95063E-005	0.00000E+000	-1.84057E-005	-5.99601E-002	1.84993E-001	3.57850E+000	9	...........
	63	0.853333	1.76111E-001	-9.86780E-005	0.00000E+000	-1.73782E-005	-5.99601E-002	1.76134E-001	3.57850E+000	9	...........
	64	0.866667	1.67318E-001	-9.81987E-005	0.00000E+000	-1.64305E-005	-5.99601E-002	1.67342E-001	3.57850E+000	9	...........
	65	0.88	1.58595E-001	-9.86519E-005	0.00000E+000	-1.56457E-005	-5.99601E-002	1.58614E-001	3.57850E+000	9	...........
	66	0.893333	1.49939E-001	-9.86332E-005	0.00000E+000	-1.47890E-005	-5.99601E-002	1.49959E-001	3.57850E+000	9	...........
	67	0.906667	1.41359E-001	-9.89145E-005	0.00000E+000	-1.39825E-005	-5.99601E-002	1.41376E-001	3.57850E+000	9	...........
	68	0.92	1.32850E-001	-9.77684E-005	0.00000E+000	-1.29885E-005	-5.99601E-002	1.32865E-001	3.57850E+000	9	...........
	69	0.933333	1.24413E-001	-9.84206E-005	0.00000E+000	-1.22448E-005	-5.99601E-002	1.24430E-001	3.57850E+000	9	...........
	70	0.946667	1.16048E-001	-9.91281E-005	0.00000E+000	-1.15036E-005	-5.99601E-002	1.16061E-001	3.57850E+000	9	...........
	71	0.96	1.07770E-001	-9.94250E-005	0.00000E+000	-1.07150E-005	-5.99601E-002	1.07775E-001	3.57850E+000	9	...........
	72	0.97333	9.95597E-002	-9.84644E-005	0.00000E+000	-9.80308E-006	-5.99601E-002	9.95693E-002	3.57850E+000	9	...........
	73	0.98667	9.14277E-002	-9.91447E-005	0.00000E+000	-9.06458E-006	-5.99601E-002	9.14361E-002	3.57850E+000	9	...........
	74	1	8.33729E-002	-9.86196E-005	0.00000E+000	-8.22220E-006	-5.99601E-002	8.33761E-002	3.57850E+000	9	...........
	75	1.01333	7.53900E-002	-9.92448E-005	0.00000E+000	-7.48206E-006	-5.99601E-002	7.53900E-002	3.57850E+000	9	...........
	76	1.02667	6.74833E-002	-9.80310E-005	0.00000E+000	-6.61545E-006	-5.99601E-002	6.74795E-002	3.57850E+000	9	...........
	77	1.04	5.96441E-002	-9.90333E-005	0.00000E+000	-5.90675E-006	-5.99601E-002	5.96414E-002	3.57850E+000	9	...........
	78	1.05333	5.18819E-002	-9.88968E-005	0.00000E+000	-5.13095E-006	-5.99601E-002	5.18721E-002	3.57850E+000	9	...........
	79	1.06667	4.42203E-002	-9.88322E-005	0.00000E+000	-4.37039E-006	-5.99601E-002	4.42151E-002	3.57850E+000	9	...........
	80	1.08	3.65955E-002	-1.00141E-004	0.00000E+000	-3.66470E-006	-5.99601E-002	3.65832E-002	3.57850E+000	9	...........
	81	1.09333	2.90370E-002	-9.82706E-005	0.00000E+000	-2.85348E-006	-5.99601E-002	2.90221E-002	3.57850E+000	9	...........
	82	1.10667	2.15480E-002	-9.90228E-005	0.00000E+000	-2.13375E-006	-5.99601E-002	2.15225E-002	3.57850E+000	9	...........
	83	1.12	1.41251E-002	-9.86426E-005	0.00000E+000	-1.39333E-006	-5.99601E-002	1.40979E-002	3.57850E+000	9	...........
	84	1.13333	6.76402E-003	-9.88041E-005	0.00000E+000	-6.68313E-007	-5.99601E-002	6.73332E-003	3.57850E+000	9	...........
	85	1.14	1.29164E-003	-9.82914E-005	0.00000E+000	-1.26957E-007	-5.99601E-002	1.25235E-003	3.57851E+000	9	...........
STARTTIMEOFFSET	QUANT	2093.802	Start Time Offset (s)
