EXPLAIN
TAG	PWR800_DISCHARGE
TITLE	LABEL	PWR Cyclic Charge Discharge (Cell) - Discharge Step	Test &Identifier
DATE	LABEL	13-7-2017	Date
TIME	LABEL	15:05:39	Time
NOTES	NOTES	2	&Notes...
	supercap test cell
	6M KOH
PSTAT	PSTAT	IFC5000-01520	Potentiostat
CAPACITY	QUANT	1.00000E-003	Capacity (A-hr)
CELLTYPE	SELECTOR	1	&Cell Type
WORKINGCONNECTION	SELECTOR	0	&Working Lead
MAXDISCHARGETIME	VARIABLEANDUNITS	1.00000E+002	s	1.00000E+002	second(s)	Max &Discharge Time
DISCHARGEMODE	MULTIPARAM	0	1.00000E-004	&Discharge Mode	Constant Current	Amp(s)
SAMPLETIME	QUANT	1.00000E-002	Sa&mple Period (s)
DISCHARGESTOPAT1	MULTIPARAM	3	0.00000E+000	Discharge Stop At &1	Voltage < Limit	V
DISCHARGESTOPAT2	MULTIPARAM	0	0.00000E+000	Discharge Stop At &2	None	N/A
AESBHCSELECTOR	TOGGLE	F	Save Both Half Cells
IRCOMP	TOGGLE	F	IR &Measure
EOC	QUANT	0	Open Circuit (V)
SEQUENCER	TOGGLE	TRUE	Run as Sequence
PSTATMODEL	IQUANT	53	Pstat Model
PSTATSECTION	LABEL	IFC5000-01520	Pstat Section
PSTATSERIALNO	LABEL	01520	Pstat Serial Number
CTRLMODE	IQUANT	0	Control Mode
ELECTROMETER	IQUANT	1	RE=0 or CS=1
IESTAB	IQUANT	0	I/E Stability
CASPEED	IQUANT	4	Control Amp Speed
CONVENTION	IQUANT	1	Current Convention
ICHRANGE	IQUANT	2	Ich Range
ICHRANGEMODE	TOGGLE	T	Ich Auto Range
ICHOFFSETENABLE	TOGGLE	F	Ich Offset Enable
ICHOFFSET	QUANT	0	Ich Offset (V)
ICHFILTER	IQUANT	1	Ich Filter
VCHRANGE	IQUANT	2	Vch Range
VCHRANGEMODE	TOGGLE	T	Vch Auto Range
VCHOFFSETENABLE	TOGGLE	F	Vch Offset Enable
VCHOFFSET	QUANT	0	Vch Offset (V)
VCHFILTER	IQUANT	1	Vch Filter
IERANGELOWERLIMIT	IQUANT	9	I/E Range Lower Limit
IERANGEMODE	TOGGLE	F	I/E AutoRange
IERANGE	IQUANT	9	I/E Range
ACHSELECT	IQUANT	1	Ach Select
ACHRANGE	IQUANT	2	Ach Range
ACHOFFSETENABLE	TOGGLE	F	Ach Offset Enable
ACHOFFSET	QUANT	0	Ach Offset (V)
ACHFILTER	IQUANT	1	Ach Filter
CABLEID	IQUANT	14	Cable ID
DCCALDATE	LABEL	5-7-2017	DC Calibration Date
ACCALDATE	LABEL	12/3/2015	AC Calibration Date
FRAMEWORKVERSION	QUANT	7.01	Framework Version
INSTRUMENTVERSION	LABEL	4.00	Instrument Version
CURVE	TABLE	93
	Pt	T	Vf	Im	Vu	Pwr	Sig	Ach	Temp	IERange	Over
	#	s	V	A	V	W	V	V	deg C	#	bits
	0	0.013333	8.49944E-001	-9.94302E-005	0.00000E+000	-8.45102E-005	-5.99601E-002	8.50294E-001	3.57920E+000	9	...........
	1	0.026667	8.37145E-001	-9.80747E-005	0.00000E+000	-8.21027E-005	-5.99601E-002	8.37512E-001	3.57920E+000	9	...........
	2	0.04	8.25163E-001	-9.87665E-005	0.00000E+000	-8.14985E-005	-5.99601E-002	8.25513E-001	3.57920E+000	9	...........
	3	0.053333	8.13735E-001	-9.80258E-005	0.00000E+000	-7.97670E-005	-5.99601E-002	8.14068E-001	3.57920E+000	9	...........
	4	0.066667	8.02716E-001	-9.97553E-005	0.00000E+000	-8.00751E-005	-5.99601E-002	8.03021E-001	3.57920E+000	9	...........
	5	0.08	7.91958E-001	-9.91125E-005	0.00000E+000	-7.84929E-005	-5.99601E-002	7.92284E-001	3.57920E+000	9	...........
	6	0.093333	7.81444E-001	-9.87040E-005	0.00000E+000	-7.71317E-005	-5.99601E-002	7.81747E-001	3.57920E+000	9	...........
	7	0.106667	7.71101E-001	-9.99824E-005	0.00000E+000	-7.70966E-005	-5.99601E-002	7.71385E-001	3.57920E+000	9	...........
	8	0.12	7.60888E-001	-9.83144E-005	0.00000E+000	-7.48062E-005	-5.99601E-002	7.61151E-001	3.57920E+000	9	...........
	9	0.133333	7.50778E-001	-9.87884E-005	0.00000E+000	-7.41681E-005	-5.99601E-002	7.51064E-001	3.57920E+000	9	...........
	10	0.146667	7.40725E-001	-9.86759E-005	0.00000E+000	-7.30917E-005	-5.99601E-002	7.41031E-001	3.57920E+000	9	...........
	11	0.16	7.30762E-001	-9.88499E-005	0.00000E+000	-7.22357E-005	-5.99601E-002	7.31046E-001	3.57920E+000	9	...........
	12	0.173333	7.20862E-001	-9.85165E-005	0.00000E+000	-7.10168E-005	-5.99601E-002	7.21124E-001	3.57920E+000	9	...........
	13	0.186667	7.10933E-001	-9.95396E-005	0.00000E+000	-7.07660E-005	-5.99601E-002	7.11220E-001	3.57920E+000	9	...........
	14	0.2	7.01083E-001	-9.78830E-005	0.00000E+000	-6.86241E-005	-5.99601E-002	7.01368E-001	3.57920E+000	9	...........
	15	0.213333	6.91243E-001	-9.88759E-005	0.00000E+000	-6.83473E-005	-5.99601E-002	6.91517E-001	3.57920E+000	9	...........
	16	0.226667	6.81438E-001	-9.83592E-005	0.00000E+000	-6.70257E-005	-5.99601E-002	6.81703E-001	3.57920E+000	9	...........
	17	0.24	6.71635E-001	-9.96157E-005	0.00000E+000	-6.69053E-005	-5.99601E-002	6.71892E-001	3.57920E+000	9	...........
	18	0.253333	6.61815E-001	-9.87572E-005	0.00000E+000	-6.53590E-005	-5.99601E-002	6.62079E-001	3.57920E+000	9	...........
	19	0.266667	6.52019E-001	-9.92802E-005	0.00000E+000	-6.47325E-005	-5.99601E-002	6.52322E-001	3.57920E+000	9	...........
	20	0.28	6.42236E-001	-9.92792E-005	0.00000E+000	-6.37607E-005	-5.99601E-002	6.42523E-001	3.57920E+000	9	...........
	21	0.293333	6.32425E-001	-9.88739E-005	0.00000E+000	-6.25303E-005	-5.99601E-002	6.32708E-001	3.57920E+000	9	...........
	22	0.306667	6.22665E-001	-9.85644E-005	0.00000E+000	-6.13726E-005	-5.99601E-002	6.22942E-001	3.57920E+000	9	...........
	23	0.32	6.12844E-001	-9.87103E-005	0.00000E+000	-6.04940E-005	-5.99601E-002	6.13157E-001	3.57920E+000	9	...........
	24	0.333333	6.03076E-001	-9.89187E-005	0.00000E+000	-5.96554E-005	-5.99601E-002	6.03381E-001	3.57920E+000	9	...........
	25	0.346667	5.93297E-001	-9.93979E-005	0.00000E+000	-5.89725E-005	-5.99601E-002	5.93582E-001	3.57920E+000	9	...........
	26	0.36	5.83513E-001	-9.84727E-005	0.00000E+000	-5.74602E-005	-5.99601E-002	5.83805E-001	3.57920E+000	9	...........
	27	0.373333	5.73753E-001	-9.83592E-005	0.00000E+000	-5.64339E-005	-5.99601E-002	5.74040E-001	3.57920E+000	9	...........
	28	0.386667	5.64006E-001	-9.85425E-005	0.00000E+000	-5.55786E-005	-5.99601E-002	5.64280E-001	3.57920E+000	9	...........
	29	0.4	5.54237E-001	-9.86999E-005	0.00000E+000	-5.47032E-005	-5.99601E-002	5.54534E-001	3.57920E+000	9	...........
	30	0.413333	5.44511E-001	-9.82644E-005	0.00000E+000	-5.35061E-005	-5.99601E-002	5.44797E-001	3.57920E+000	9	...........
	31	0.426667	5.34754E-001	-9.81227E-005	0.00000E+000	-5.24715E-005	-5.99601E-002	5.35042E-001	3.57920E+000	9	...........
	32	0.44	5.25038E-001	-9.92229E-005	0.00000E+000	-5.20958E-005	-5.99601E-002	5.25320E-001	3.57920E+000	9	...........
	33	0.453333	5.15353E-001	-9.92396E-005	0.00000E+000	-5.11434E-005	-5.99601E-002	5.15603E-001	3.57920E+000	9	...........
	34	0.466667	5.05612E-001	-1.00000E-004	0.00000E+000	-5.05613E-005	-5.99601E-002	5.05908E-001	3.57920E+000	9	...........
	35	0.48	4.95952E-001	-9.88499E-005	0.00000E+000	-4.90248E-005	-5.99601E-002	4.96216E-001	3.57920E+000	9	...........
	36	0.493333	4.86437E-001	-9.95980E-005	0.00000E+000	-4.84481E-005	-5.99601E-002	4.86631E-001	3.57920E+000	9	...........
	37	0.506667	4.77064E-001	-1.00010E-004	0.00000E+000	-4.77109E-005	-5.99601E-002	4.77170E-001	3.57920E+000	9	...........
	38	0.52	4.67463E-001	-9.88374E-005	0.00000E+000	-4.62029E-005	-5.99601E-002	4.67560E-001	3.57920E+000	9	...........
	39	0.533333	4.57885E-001	-9.87645E-005	0.00000E+000	-4.52228E-005	-5.99601E-002	4.57982E-001	3.57920E+000	9	...........
	40	0.546667	4.48334E-001	-9.81352E-005	0.00000E+000	-4.39974E-005	-5.99601E-002	4.48429E-001	3.57920E+000	9	...........
	41	0.56	4.38805E-001	-9.78768E-005	0.00000E+000	-4.29489E-005	-5.99601E-002	4.38900E-001	3.57920E+000	9	...........
	42	0.573333	4.29306E-001	-1.00036E-004	0.00000E+000	-4.29459E-005	-5.99601E-002	4.29401E-001	3.57920E+000	9	...........
	43	0.586667	4.19841E-001	-9.89749E-005	0.00000E+000	-4.15537E-005	-5.99601E-002	4.19930E-001	3.57920E+000	9	...........
	44	0.6	4.10403E-001	-9.84925E-005	0.00000E+000	-4.04216E-005	-5.99601E-002	4.10489E-001	3.57920E+000	9	...........
	45	0.613333	4.00998E-001	-9.93177E-005	0.00000E+000	-3.98262E-005	-5.99601E-002	4.01083E-001	3.57920E+000	9	...........
	46	0.626667	3.91628E-001	-9.90343E-005	0.00000E+000	-3.87846E-005	-5.99601E-002	3.91706E-001	3.57920E+000	9	...........
	47	0.64	3.82286E-001	-9.86822E-005	0.00000E+000	-3.77248E-005	-5.99601E-002	3.82367E-001	3.57920E+000	9	...........
	48	0.653333	3.72983E-001	-9.89405E-005	0.00000E+000	-3.69031E-005	-5.99601E-002	3.73059E-001	3.57920E+000	9	...........
	49	0.666667	3.63708E-001	-9.94281E-005	0.00000E+000	-3.61628E-005	-5.99601E-002	3.63784E-001	3.57920E+000	9	...........
	50	0.68	3.54465E-001	-9.93542E-005	0.00000E+000	-3.52176E-005	-5.99601E-002	3.54538E-001	3.57920E+000	9	...........
	51	0.693333	3.45251E-001	-9.81216E-005	0.00000E+000	-3.38766E-005	-5.99601E-002	3.45317E-001	3.57920E+000	9	...........
	52	0.706667	3.36064E-001	-9.90083E-005	0.00000E+000	-3.32731E-005	-5.99601E-002	3.36133E-001	3.57920E+000	9	...........
	53	0.72	3.26917E-001	-9.82508E-005	0.00000E+000	-3.21198E-005	-5.99601E-002	3.26982E-001	3.57920E+000	9	...........
	54	0.733333	3.17799E-001	-9.84186E-005	0.00000E+000	-3.12773E-005	-5.99601E-002	3.17859E-001	3.57920E+000	9	...........
	55	0.746667	3.08706E-001	-9.90281E-005	0.00000E+000	-3.05706E-005	-5.99601E-002	3.08760E-001	3.57920E+000	9	...........
	56	0.76	2.99645E-001	-9.92562E-005	0.00000E+000	-2.97416E-005	-5.99601E-002	2.99699E-001	3.57920E+000	9	...........
	57	0.773333	2.90614E-001	-9.87707E-005	0.00000E+000	-2.87042E-005	-5.99601E-002	2.90668E-001	3.57920E+000	9	...........
	58	0.786667	2.81608E-001	-9.84550E-005	0.00000E+000	-2.77257E-005	-5.99601E-002	2.81661E-001	3.57920E+000	9	...........
	59	0.8	2.72628E-001	-9.87249E-005	0.00000E+000	-2.69152E-005	-5.99601E-002	2.72682E-001	3.57920E+000	9	...........
	60	0.813333	2.63682E-001	-9.89145E-005	0.00000E+000	-2.60820E-005	-5.99601E-002	2.63731E-001	3.57920E+000	9	...........
	61	0.826667	2.54767E-001	-9.90822E-005	0.00000E+000	-2.52428E-005	-5.99601E-002	2.54816E-001	3.57920E+000	9	...........
	62	0.84	2.45877E-001	-9.87780E-005	0.00000E+000	-2.42872E-005	-5.99601E-002	2.45918E-001	3.57920E+000	9	...........
	63	0.853333	2.37016E-001	-9.80497E-005	0.00000E+000	-2.32393E-005	-5.99601E-002	2.37055E-001	3.57920E+000	9	...........
	64	0.866667	2.28184E-001	-9.83258E-005	0.00000E+000	-2.24364E-005	-5.99601E-002	2.28222E-001	3.57920E+000	9	...........
	65	0.88	2.19379E-001	-9.90072E-005	0.00000E+000	-2.17201E-005	-5.99601E-002	2.19412E-001	3.57920E+000	9	...........
	66	0.893333	2.10605E-001	-9.88624E-005	0.00000E+000	-2.08210E-005	-5.99601E-002	2.10639E-001	3.57920E+000	9	...........
	67	0.906667	2.01858E-001	-9.90197E-005	0.00000E+000	-1.99879E-005	-5.99601E-002	2.01896E-001	3.57920E+000	9	...........
	68	0.92	1.93148E-001	-9.87051E-005	0.00000E+000	-1.90647E-005	-5.99601E-002	1.93180E-001	3.57920E+000	9	...........
	69	0.933333	1.84472E-001	-9.88926E-005	0.00000E+000	-1.82429E-005	-5.99601E-002	1.84504E-001	3.57920E+000	9	...........
	70	0.946667	1.75836E-001	-9.87499E-005	0.00000E+000	-1.73638E-005	-5.99601E-002	1.75865E-001	3.57920E+000	9	...........
	71	0.96	1.67237E-001	-9.96740E-005	0.00000E+000	-1.66692E-005	-5.99601E-002	1.67259E-001	3.57920E+000	9	...........
	72	0.97333	1.58682E-001	-9.88843E-005	0.00000E+000	-1.56912E-005	-5.99601E-002	1.58703E-001	3.57920E+000	9	...........
	73	0.98667	1.50169E-001	-9.86301E-005	0.00000E+000	-1.48112E-005	-5.99601E-002	1.50185E-001	3.57920E+000	9	...........
	74	1	1.41694E-001	-9.88082E-005	0.00000E+000	-1.40006E-005	-5.99601E-002	1.41713E-001	3.57920E+000	9	...........
	75	1.01333	1.33275E-001	-9.89166E-005	0.00000E+000	-1.31831E-005	-5.99601E-002	1.33292E-001	3.57920E+000	9	...........
	76	1.02667	1.24901E-001	-9.86926E-005	0.00000E+000	-1.23268E-005	-5.99601E-002	1.24916E-001	3.57920E+000	9	...........
	77	1.04	1.16582E-001	-9.89062E-005	0.00000E+000	-1.15307E-005	-5.99601E-002	1.16591E-001	3.57920E+000	9	...........
	78	1.05333	1.08318E-001	-9.85988E-005	0.00000E+000	-1.06801E-005	-5.99601E-002	1.08334E-001	3.57920E+000	9	...........
	79	1.06667	1.00104E-001	-9.92010E-005	0.00000E+000	-9.93045E-006	-5.99601E-002	1.00119E-001	3.57920E+000	9	...........
	80	1.08	9.19614E-002	-9.88822E-005	0.00000E+000	-9.09335E-006	-5.99601E-002	9.19722E-002	3.57920E+000	9	...........
	81	1.09333	8.38825E-002	-9.91187E-005	0.00000E+000	-8.31432E-006	-5.99601E-002	8.38792E-002	3.57920E+000	9	...........
	82	1.10667	7.58544E-002	-9.89312E-005	0.00000E+000	-7.50437E-006	-5.99601E-002	7.58576E-002	3.57920E+000	9	...........
	83	1.12	6.78887E-002	-9.89728E-005	0.00000E+000	-6.71914E-006	-5.99601E-002	6.78859E-002	3.57920E+000	9	...........
	84	1.13333	5.99910E-002	-9.92750E-005	0.00000E+000	-5.95561E-006	-5.99601E-002	5.99879E-002	3.57920E+000	9	...........
	85	1.14667	5.21497E-002	-9.87843E-005	0.00000E+000	-5.15157E-006	-5.99601E-002	5.21443E-002	3.57920E+000	9	...........
	86	1.16	4.44168E-002	-9.87520E-005	0.00000E+000	-4.38625E-006	-5.99601E-002	4.44011E-002	3.57920E+000	9	...........
	87	1.17333	3.66989E-002	-9.87020E-005	0.00000E+000	-3.62225E-006	-5.99601E-002	3.66854E-002	3.57920E+000	9	...........
	88	1.18667	2.90442E-002	-9.92375E-005	0.00000E+000	-2.88227E-006	-5.99601E-002	2.90255E-002	3.57920E+000	9	...........
	89	1.2	2.14476E-002	-9.95938E-005	0.00000E+000	-2.13605E-006	-5.99601E-002	2.14264E-002	3.57920E+000	9	...........
	90	1.21333	1.39053E-002	-9.88311E-005	0.00000E+000	-1.37427E-006	-5.99601E-002	1.38862E-002	3.57920E+000	9	...........
	91	1.22667	6.42331E-003	-9.80789E-005	0.00000E+000	-6.29991E-007	-5.99601E-002	6.39301E-003	3.57920E+000	9	...........
	92	1.23333	8.49752E-004	-9.91583E-005	0.00000E+000	-8.42600E-008	-5.99601E-002	8.12922E-004	3.57920E+000	9	...........
STARTTIMEOFFSET	QUANT	159.065	Start Time Offset (s)
