EXPLAIN
TAG	PWR800_DISCHARGE
TITLE	LABEL	PWR Cyclic Charge Discharge (Cell) - Discharge Step	Test &Identifier
DATE	LABEL	13-7-2017	Date
TIME	LABEL	15:47:20	Time
NOTES	NOTES	2	&Notes...
	supercap test cell
	6M KOH
PSTAT	PSTAT	IFC5000-01520	Potentiostat
CAPACITY	QUANT	1.00000E-003	Capacity (A-hr)
CELLTYPE	SELECTOR	1	&Cell Type
WORKINGCONNECTION	SELECTOR	0	&Working Lead
MAXDISCHARGETIME	VARIABLEANDUNITS	1.00000E+002	s	1.00000E+002	second(s)	Max &Discharge Time
DISCHARGEMODE	MULTIPARAM	0	1.00000E-004	&Discharge Mode	Constant Current	Amp(s)
SAMPLETIME	QUANT	1.00000E-002	Sa&mple Period (s)
DISCHARGESTOPAT1	MULTIPARAM	3	0.00000E+000	Discharge Stop At &1	Voltage < Limit	V
DISCHARGESTOPAT2	MULTIPARAM	0	0.00000E+000	Discharge Stop At &2	None	N/A
AESBHCSELECTOR	TOGGLE	F	Save Both Half Cells
IRCOMP	TOGGLE	F	IR &Measure
EOC	QUANT	0	Open Circuit (V)
SEQUENCER	TOGGLE	TRUE	Run as Sequence
PSTATMODEL	IQUANT	53	Pstat Model
PSTATSECTION	LABEL	IFC5000-01520	Pstat Section
PSTATSERIALNO	LABEL	01520	Pstat Serial Number
CTRLMODE	IQUANT	0	Control Mode
ELECTROMETER	IQUANT	1	RE=0 or CS=1
IESTAB	IQUANT	0	I/E Stability
CASPEED	IQUANT	4	Control Amp Speed
CONVENTION	IQUANT	1	Current Convention
ICHRANGE	IQUANT	2	Ich Range
ICHRANGEMODE	TOGGLE	T	Ich Auto Range
ICHOFFSETENABLE	TOGGLE	F	Ich Offset Enable
ICHOFFSET	QUANT	0	Ich Offset (V)
ICHFILTER	IQUANT	1	Ich Filter
VCHRANGE	IQUANT	2	Vch Range
VCHRANGEMODE	TOGGLE	T	Vch Auto Range
VCHOFFSETENABLE	TOGGLE	F	Vch Offset Enable
VCHOFFSET	QUANT	0	Vch Offset (V)
VCHFILTER	IQUANT	1	Vch Filter
IERANGELOWERLIMIT	IQUANT	9	I/E Range Lower Limit
IERANGEMODE	TOGGLE	F	I/E AutoRange
IERANGE	IQUANT	9	I/E Range
ACHSELECT	IQUANT	1	Ach Select
ACHRANGE	IQUANT	2	Ach Range
ACHOFFSETENABLE	TOGGLE	F	Ach Offset Enable
ACHOFFSET	QUANT	0	Ach Offset (V)
ACHFILTER	IQUANT	1	Ach Filter
CABLEID	IQUANT	14	Cable ID
DCCALDATE	LABEL	5-7-2017	DC Calibration Date
ACCALDATE	LABEL	12/3/2015	AC Calibration Date
FRAMEWORKVERSION	QUANT	7.01	Framework Version
INSTRUMENTVERSION	LABEL	4.00	Instrument Version
CURVE	TABLE	86
	Pt	T	Vf	Im	Vu	Pwr	Sig	Ach	Temp	IERange	Over
	#	s	V	A	V	W	V	V	deg C	#	bits
	0	0.013333	8.46958E-001	-9.83133E-005	0.00000E+000	-8.32673E-005	-5.99601E-002	8.47303E-001	3.57990E+000	9	...........
	1	0.026667	8.32763E-001	-9.91010E-005	0.00000E+000	-8.25276E-005	-5.99601E-002	8.33088E-001	3.57990E+000	9	...........
	2	0.04	8.19408E-001	-9.86759E-005	0.00000E+000	-8.08558E-005	-5.99601E-002	8.19735E-001	3.57990E+000	9	...........
	3	0.053333	8.06588E-001	-9.93510E-005	0.00000E+000	-8.01354E-005	-5.99601E-002	8.06890E-001	3.57990E+000	9	...........
	4	0.066667	7.94184E-001	-9.90614E-005	0.00000E+000	-7.86729E-005	-5.99601E-002	7.94456E-001	3.57990E+000	9	...........
	5	0.08	7.82015E-001	-9.87124E-005	0.00000E+000	-7.71946E-005	-5.99601E-002	7.82287E-001	3.57990E+000	9	...........
	6	0.093333	7.70065E-001	-9.80289E-005	0.00000E+000	-7.54886E-005	-5.99601E-002	7.70306E-001	3.57990E+000	9	...........
	7	0.106667	7.58280E-001	-9.88749E-005	0.00000E+000	-7.49749E-005	-5.99601E-002	7.58492E-001	3.57990E+000	9	...........
	8	0.12	7.46586E-001	-9.87624E-005	0.00000E+000	-7.37346E-005	-5.99601E-002	7.46813E-001	3.57990E+000	9	...........
	9	0.133333	7.34982E-001	-9.90718E-005	0.00000E+000	-7.28160E-005	-5.99601E-002	7.35200E-001	3.57990E+000	9	...........
	10	0.146667	7.23483E-001	-9.92469E-005	0.00000E+000	-7.18034E-005	-5.99601E-002	7.23690E-001	3.57990E+000	9	...........
	11	0.16	7.11970E-001	-9.79716E-005	0.00000E+000	-6.97528E-005	-5.99601E-002	7.12200E-001	3.57990E+000	9	...........
	12	0.173333	7.00548E-001	-9.88030E-005	0.00000E+000	-6.92162E-005	-5.99601E-002	7.00763E-001	3.57990E+000	9	...........
	13	0.186667	6.89156E-001	-9.96053E-005	0.00000E+000	-6.86436E-005	-5.99601E-002	6.89382E-001	3.57990E+000	9	...........
	14	0.2	6.77787E-001	-9.80529E-005	0.00000E+000	-6.64589E-005	-5.99601E-002	6.78017E-001	3.57990E+000	9	...........
	15	0.213333	6.66413E-001	-9.88457E-005	0.00000E+000	-6.58720E-005	-5.99601E-002	6.66653E-001	3.57990E+000	9	...........
	16	0.226667	6.55072E-001	-9.84436E-005	0.00000E+000	-6.44876E-005	-5.99601E-002	6.55327E-001	3.57990E+000	9	...........
	17	0.24	6.43774E-001	-9.85738E-005	0.00000E+000	-6.34593E-005	-5.99601E-002	6.44004E-001	3.57990E+000	9	...........
	18	0.253333	6.32478E-001	-9.88145E-005	0.00000E+000	-6.24980E-005	-5.99601E-002	6.32714E-001	3.57990E+000	9	...........
	19	0.266667	6.21234E-001	-9.84165E-005	0.00000E+000	-6.11396E-005	-5.99601E-002	6.21471E-001	3.57990E+000	9	...........
	20	0.28	6.09934E-001	-9.87509E-005	0.00000E+000	-6.02316E-005	-5.99601E-002	6.10211E-001	3.57990E+000	9	...........
	21	0.293333	5.98735E-001	-9.92739E-005	0.00000E+000	-5.94388E-005	-5.99601E-002	5.98998E-001	3.57990E+000	9	...........
	22	0.306667	5.87551E-001	-9.88103E-005	0.00000E+000	-5.80561E-005	-5.99601E-002	5.87815E-001	3.57990E+000	9	...........
	23	0.32	5.76397E-001	-9.86561E-005	0.00000E+000	-5.68651E-005	-5.99601E-002	5.76656E-001	3.57990E+000	9	...........
	24	0.333333	5.65295E-001	-9.92416E-005	0.00000E+000	-5.61008E-005	-5.99601E-002	5.65548E-001	3.57920E+000	9	...........
	25	0.346667	5.54184E-001	-9.92864E-005	0.00000E+000	-5.50229E-005	-5.99601E-002	5.54454E-001	3.57850E+000	9	...........
	26	0.36	5.43168E-001	-9.91812E-005	0.00000E+000	-5.38721E-005	-5.99601E-002	5.43415E-001	3.57850E+000	9	...........
	27	0.373333	5.32158E-001	-9.82998E-005	0.00000E+000	-5.23110E-005	-5.99601E-002	5.32420E-001	3.57850E+000	9	...........
	28	0.386667	5.21212E-001	-9.82466E-005	0.00000E+000	-5.12073E-005	-5.99601E-002	5.21466E-001	3.57850E+000	9	...........
	29	0.4	5.10294E-001	-9.89749E-005	0.00000E+000	-5.05063E-005	-5.99601E-002	5.10558E-001	3.57850E+000	9	...........
	30	0.413333	4.99440E-001	-9.82008E-005	0.00000E+000	-4.90454E-005	-5.99601E-002	4.99710E-001	3.57850E+000	9	...........
	31	0.426667	4.88727E-001	-9.89218E-005	0.00000E+000	-4.83458E-005	-5.99601E-002	4.88944E-001	3.57850E+000	9	...........
	32	0.44	4.78316E-001	-9.98022E-005	0.00000E+000	-4.77370E-005	-5.99601E-002	4.78413E-001	3.57850E+000	9	...........
	33	0.453333	4.67656E-001	-9.86978E-005	0.00000E+000	-4.61566E-005	-5.99601E-002	4.67747E-001	3.57850E+000	9	...........
	34	0.466667	4.57060E-001	-9.76101E-005	0.00000E+000	-4.46137E-005	-5.99601E-002	4.57147E-001	3.57850E+000	9	...........
	35	0.48	4.46525E-001	-9.92114E-005	0.00000E+000	-4.43004E-005	-5.99601E-002	4.46616E-001	3.57850E+000	9	...........
	36	0.493333	4.36069E-001	-9.81060E-005	0.00000E+000	-4.27810E-005	-5.99601E-002	4.36152E-001	3.57850E+000	9	...........
	37	0.506667	4.25681E-001	-9.94000E-005	0.00000E+000	-4.23127E-005	-5.99601E-002	4.25766E-001	3.57850E+000	9	...........
	38	0.52	4.15360E-001	-9.82362E-005	0.00000E+000	-4.08034E-005	-5.99601E-002	4.15440E-001	3.57850E+000	9	...........
	39	0.533333	4.05113E-001	-1.00117E-004	0.00000E+000	-4.05587E-005	-5.99601E-002	4.05191E-001	3.57850E+000	9	...........
	40	0.546667	3.94935E-001	-9.81320E-005	0.00000E+000	-3.87558E-005	-5.99601E-002	3.95004E-001	3.57850E+000	9	...........
	41	0.56	3.84817E-001	-9.91729E-005	0.00000E+000	-3.81634E-005	-5.99601E-002	3.84893E-001	3.57850E+000	9	...........
	42	0.573333	3.74770E-001	-9.93208E-005	0.00000E+000	-3.72225E-005	-5.99601E-002	3.74840E-001	3.57850E+000	9	...........
	43	0.586667	3.64793E-001	-9.87936E-005	0.00000E+000	-3.60392E-005	-5.99601E-002	3.64862E-001	3.57850E+000	9	...........
	44	0.6	3.54882E-001	-9.93260E-005	0.00000E+000	-3.52490E-005	-5.99601E-002	3.54946E-001	3.57850E+000	9	...........
	45	0.613333	3.45033E-001	-9.89676E-005	0.00000E+000	-3.41471E-005	-5.99601E-002	3.45095E-001	3.57850E+000	9	...........
	46	0.626667	3.35241E-001	-9.89051E-005	0.00000E+000	-3.31570E-005	-5.99601E-002	3.35305E-001	3.57850E+000	9	...........
	47	0.64	3.25518E-001	-9.87936E-005	0.00000E+000	-3.21591E-005	-5.99601E-002	3.25579E-001	3.57850E+000	9	...........
	48	0.653333	3.15843E-001	-9.87978E-005	0.00000E+000	-3.12046E-005	-5.99601E-002	3.15906E-001	3.57850E+000	9	...........
	49	0.666667	3.06228E-001	-9.96115E-005	0.00000E+000	-3.05038E-005	-5.99601E-002	3.06291E-001	3.57850E+000	9	...........
	50	0.68	2.96674E-001	-9.96667E-005	0.00000E+000	-2.95685E-005	-5.99601E-002	2.96728E-001	3.57850E+000	9	...........
	51	0.693333	2.87174E-001	-9.89062E-005	0.00000E+000	-2.84033E-005	-5.99601E-002	2.87229E-001	3.57850E+000	9	...........
	52	0.706667	2.77728E-001	-9.83810E-005	0.00000E+000	-2.73232E-005	-5.99601E-002	2.77781E-001	3.57850E+000	9	...........
	53	0.72	2.68329E-001	-9.87468E-005	0.00000E+000	-2.64966E-005	-5.99601E-002	2.68382E-001	3.57850E+000	9	...........
	54	0.733333	2.58981E-001	-9.98918E-005	0.00000E+000	-2.58701E-005	-5.99601E-002	2.59028E-001	3.57850E+000	9	...........
	55	0.746667	2.49697E-001	-9.81414E-005	0.00000E+000	-2.45057E-005	-5.99601E-002	2.49736E-001	3.57850E+000	9	...........
	56	0.76	2.40454E-001	-9.91020E-005	0.00000E+000	-2.38295E-005	-5.99601E-002	2.40494E-001	3.57850E+000	9	...........
	57	0.773333	2.31265E-001	-9.88353E-005	0.00000E+000	-2.28572E-005	-5.99601E-002	2.31307E-001	3.57850E+000	9	...........
	58	0.786667	2.22131E-001	-9.86790E-005	0.00000E+000	-2.19197E-005	-5.99601E-002	2.22165E-001	3.57850E+000	9	...........
	59	0.8	2.13048E-001	-9.91854E-005	0.00000E+000	-2.11312E-005	-5.99601E-002	2.13082E-001	3.57850E+000	9	...........
	60	0.813333	2.04028E-001	-9.86894E-005	0.00000E+000	-2.01354E-005	-5.99601E-002	2.04062E-001	3.57850E+000	9	...........
	61	0.826667	1.95065E-001	-9.90187E-005	0.00000E+000	-1.93151E-005	-5.99601E-002	1.95096E-001	3.57850E+000	9	...........
	62	0.84	1.86161E-001	-9.86040E-005	0.00000E+000	-1.83562E-005	-5.99601E-002	1.86187E-001	3.57850E+000	9	...........
	63	0.853333	1.77315E-001	-9.87738E-005	0.00000E+000	-1.75141E-005	-5.99601E-002	1.77345E-001	3.57850E+000	9	...........
	64	0.866667	1.68541E-001	-9.92531E-005	0.00000E+000	-1.67282E-005	-5.99601E-002	1.68563E-001	3.57850E+000	9	...........
	65	0.88	1.59832E-001	-9.87217E-005	0.00000E+000	-1.57788E-005	-5.99601E-002	1.59849E-001	3.57850E+000	9	...........
	66	0.893333	1.51190E-001	-9.93479E-005	0.00000E+000	-1.50204E-005	-5.99601E-002	1.51209E-001	3.57850E+000	9	...........
	67	0.906667	1.42623E-001	-9.83581E-005	0.00000E+000	-1.40281E-005	-5.99601E-002	1.42640E-001	3.57850E+000	9	...........
	68	0.92	1.34124E-001	-9.83998E-005	0.00000E+000	-1.31978E-005	-5.99601E-002	1.34135E-001	3.57850E+000	9	...........
	69	0.933333	1.25705E-001	-9.90062E-005	0.00000E+000	-1.24456E-005	-5.99601E-002	1.25712E-001	3.57850E+000	9	...........
	70	0.946667	1.17353E-001	-9.94771E-005	0.00000E+000	-1.16739E-005	-5.99601E-002	1.17365E-001	3.57850E+000	9	...........
	71	0.96	1.09084E-001	-9.86342E-005	0.00000E+000	-1.07594E-005	-5.99601E-002	1.09096E-001	3.57850E+000	9	...........
	72	0.97333	1.00891E-001	-9.85707E-005	0.00000E+000	-9.94489E-006	-5.99601E-002	1.00895E-001	3.57850E+000	9	...........
	73	0.98667	9.27715E-002	-9.90708E-005	0.00000E+000	-9.19094E-006	-5.99601E-002	9.27774E-002	3.57850E+000	9	...........
	74	1	8.47293E-002	-9.84873E-005	0.00000E+000	-8.34476E-006	-5.99601E-002	8.47332E-002	3.57850E+000	9	...........
	75	1.01333	7.67609E-002	-9.84738E-005	0.00000E+000	-7.55894E-006	-5.99601E-002	7.67554E-002	3.57850E+000	9	...........
	76	1.02667	6.88616E-002	-9.80852E-005	0.00000E+000	-6.75430E-006	-5.99601E-002	6.88524E-002	3.57850E+000	9	...........
	77	1.04	6.10323E-002	-9.86894E-005	0.00000E+000	-6.02325E-006	-5.99601E-002	6.10282E-002	3.57850E+000	9	...........
	78	1.05333	5.32772E-002	-9.94188E-005	0.00000E+000	-5.29676E-006	-5.99601E-002	5.32678E-002	3.57850E+000	9	...........
	79	1.06667	4.56174E-002	-9.94615E-005	0.00000E+000	-4.53718E-006	-5.99601E-002	4.56146E-002	3.57850E+000	9	...........
	80	1.08	3.80101E-002	-9.89978E-005	0.00000E+000	-3.76291E-006	-5.99601E-002	3.79971E-002	3.57850E+000	9	...........
	81	1.09333	3.04594E-002	-9.94531E-005	0.00000E+000	-3.02928E-006	-5.99601E-002	3.04419E-002	3.57850E+000	9	...........
	82	1.10667	2.29744E-002	-9.94063E-005	0.00000E+000	-2.28380E-006	-5.99601E-002	2.29509E-002	3.57850E+000	9	...........
	83	1.12	1.55574E-002	-9.91468E-005	0.00000E+000	-1.54246E-006	-5.99601E-002	1.55303E-002	3.57850E+000	9	...........
	84	1.13333	8.20676E-003	-9.84133E-005	0.00000E+000	-8.07655E-007	-5.99601E-002	8.17657E-003	3.57850E+000	9	...........
	85	1.14333	1.82725E-003	-9.89145E-005	0.00000E+000	-1.80741E-007	-5.99601E-002	1.79622E-003	3.57850E+000	9	...........
STARTTIMEOFFSET	QUANT	2047.089	Start Time Offset (s)
