EXPLAIN
TAG	PWR800_DISCHARGE
TITLE	LABEL	PWR Cyclic Charge Discharge (Cell) - Discharge Step	Test &Identifier
DATE	LABEL	13-7-2017	Date
TIME	LABEL	15:16:21	Time
NOTES	NOTES	2	&Notes...
	supercap test cell
	6M KOH
PSTAT	PSTAT	IFC5000-01520	Potentiostat
CAPACITY	QUANT	1.00000E-003	Capacity (A-hr)
CELLTYPE	SELECTOR	1	&Cell Type
WORKINGCONNECTION	SELECTOR	0	&Working Lead
MAXDISCHARGETIME	VARIABLEANDUNITS	1.00000E+002	s	1.00000E+002	second(s)	Max &Discharge Time
DISCHARGEMODE	MULTIPARAM	0	1.00000E-004	&Discharge Mode	Constant Current	Amp(s)
SAMPLETIME	QUANT	1.00000E-002	Sa&mple Period (s)
DISCHARGESTOPAT1	MULTIPARAM	3	0.00000E+000	Discharge Stop At &1	Voltage < Limit	V
DISCHARGESTOPAT2	MULTIPARAM	0	0.00000E+000	Discharge Stop At &2	None	N/A
AESBHCSELECTOR	TOGGLE	F	Save Both Half Cells
IRCOMP	TOGGLE	F	IR &Measure
EOC	QUANT	0	Open Circuit (V)
SEQUENCER	TOGGLE	TRUE	Run as Sequence
PSTATMODEL	IQUANT	53	Pstat Model
PSTATSECTION	LABEL	IFC5000-01520	Pstat Section
PSTATSERIALNO	LABEL	01520	Pstat Serial Number
CTRLMODE	IQUANT	0	Control Mode
ELECTROMETER	IQUANT	1	RE=0 or CS=1
IESTAB	IQUANT	0	I/E Stability
CASPEED	IQUANT	4	Control Amp Speed
CONVENTION	IQUANT	1	Current Convention
ICHRANGE	IQUANT	2	Ich Range
ICHRANGEMODE	TOGGLE	T	Ich Auto Range
ICHOFFSETENABLE	TOGGLE	F	Ich Offset Enable
ICHOFFSET	QUANT	0	Ich Offset (V)
ICHFILTER	IQUANT	1	Ich Filter
VCHRANGE	IQUANT	2	Vch Range
VCHRANGEMODE	TOGGLE	T	Vch Auto Range
VCHOFFSETENABLE	TOGGLE	F	Vch Offset Enable
VCHOFFSET	QUANT	0	Vch Offset (V)
VCHFILTER	IQUANT	1	Vch Filter
IERANGELOWERLIMIT	IQUANT	9	I/E Range Lower Limit
IERANGEMODE	TOGGLE	F	I/E AutoRange
IERANGE	IQUANT	9	I/E Range
ACHSELECT	IQUANT	1	Ach Select
ACHRANGE	IQUANT	2	Ach Range
ACHOFFSETENABLE	TOGGLE	F	Ach Offset Enable
ACHOFFSET	QUANT	0	Ach Offset (V)
ACHFILTER	IQUANT	1	Ach Filter
CABLEID	IQUANT	14	Cable ID
DCCALDATE	LABEL	5-7-2017	DC Calibration Date
ACCALDATE	LABEL	12/3/2015	AC Calibration Date
FRAMEWORKVERSION	QUANT	7.01	Framework Version
INSTRUMENTVERSION	LABEL	4.00	Instrument Version
CURVE	TABLE	90
	Pt	T	Vf	Im	Vu	Pwr	Sig	Ach	Temp	IERange	Over
	#	s	V	A	V	W	V	V	deg C	#	bits
	0	0.013333	8.52166E-001	-1.00056E-004	0.00000E+000	-8.52647E-005	-5.99601E-002	8.52508E-001	3.57960E+000	9	...........
	1	0.026667	8.38625E-001	-9.86915E-005	0.00000E+000	-8.27652E-005	-5.99601E-002	8.38972E-001	3.57960E+000	9	...........
	2	0.04	8.25980E-001	-9.91802E-005	0.00000E+000	-8.19209E-005	-5.99601E-002	8.26282E-001	3.57960E+000	9	...........
	3	0.053333	8.13836E-001	-9.79237E-005	0.00000E+000	-7.96938E-005	-5.99601E-002	8.14133E-001	3.57960E+000	9	...........
	4	0.066667	8.02145E-001	-9.74975E-005	0.00000E+000	-7.82072E-005	-5.99601E-002	8.02422E-001	3.57960E+000	9	...........
	5	0.08	7.90686E-001	-9.87957E-005	0.00000E+000	-7.81164E-005	-5.99601E-002	7.90999E-001	3.57960E+000	9	...........
	6	0.093333	7.79482E-001	-9.97220E-005	0.00000E+000	-7.77315E-005	-5.99601E-002	7.79785E-001	3.57960E+000	9	...........
	7	0.106667	7.68442E-001	-9.82143E-005	0.00000E+000	-7.54720E-005	-5.99601E-002	7.68732E-001	3.57960E+000	9	...........
	8	0.12	7.57520E-001	-9.82748E-005	0.00000E+000	-7.44451E-005	-5.99601E-002	7.57804E-001	3.57960E+000	9	...........
	9	0.133333	7.46710E-001	-9.94844E-005	0.00000E+000	-7.42860E-005	-5.99601E-002	7.46989E-001	3.57960E+000	9	...........
	10	0.146667	7.35916E-001	-9.82029E-005	0.00000E+000	-7.22691E-005	-5.99601E-002	7.36228E-001	3.57960E+000	9	...........
	11	0.16	7.25269E-001	-9.79903E-005	0.00000E+000	-7.10694E-005	-5.99601E-002	7.25546E-001	3.57960E+000	9	...........
	12	0.173333	7.14602E-001	-9.84456E-005	0.00000E+000	-7.03494E-005	-5.99601E-002	7.14914E-001	3.57960E+000	9	...........
	13	0.186667	7.04000E-001	-9.90197E-005	0.00000E+000	-6.97099E-005	-5.99601E-002	7.04309E-001	3.57960E+000	9	...........
	14	0.2	6.93440E-001	-9.81800E-005	0.00000E+000	-6.80819E-005	-5.99601E-002	6.93730E-001	3.57960E+000	9	...........
	15	0.213333	6.82883E-001	-9.91104E-005	0.00000E+000	-6.76807E-005	-5.99601E-002	6.83164E-001	3.57960E+000	9	...........
	16	0.226667	6.72367E-001	-9.83508E-005	0.00000E+000	-6.61279E-005	-5.99601E-002	6.72619E-001	3.57960E+000	9	...........
	17	0.24	6.61840E-001	-9.82362E-005	0.00000E+000	-6.50166E-005	-5.99601E-002	6.62102E-001	3.57960E+000	9	...........
	18	0.253333	6.51318E-001	-9.88384E-005	0.00000E+000	-6.43753E-005	-5.99601E-002	6.51593E-001	3.57960E+000	9	...........
	19	0.266667	6.40819E-001	-9.92573E-005	0.00000E+000	-6.36060E-005	-5.99601E-002	6.41072E-001	3.57960E+000	9	...........
	20	0.28	6.30319E-001	-9.89853E-005	0.00000E+000	-6.23924E-005	-5.99601E-002	6.30602E-001	3.57960E+000	9	...........
	21	0.293333	6.19866E-001	-1.00136E-004	0.00000E+000	-6.20706E-005	-5.99601E-002	6.20126E-001	3.57960E+000	9	...........
	22	0.306667	6.09343E-001	-9.82362E-005	0.00000E+000	-5.98595E-005	-5.99601E-002	6.09632E-001	3.57960E+000	9	...........
	23	0.32	5.98910E-001	-9.90031E-005	0.00000E+000	-5.92939E-005	-5.99601E-002	5.99195E-001	3.57960E+000	9	...........
	24	0.333333	5.88465E-001	-9.91739E-005	0.00000E+000	-5.83604E-005	-5.99601E-002	5.88721E-001	3.57960E+000	9	...........
	25	0.346667	5.78039E-001	-1.00083E-004	0.00000E+000	-5.78521E-005	-5.99601E-002	5.78278E-001	3.57960E+000	9	...........
	26	0.36	5.67614E-001	-9.85780E-005	0.00000E+000	-5.59542E-005	-5.99601E-002	5.67857E-001	3.57960E+000	9	...........
	27	0.373333	5.57214E-001	-9.85467E-005	0.00000E+000	-5.49116E-005	-5.99601E-002	5.57445E-001	3.57960E+000	9	...........
	28	0.386667	5.46845E-001	-9.82341E-005	0.00000E+000	-5.37188E-005	-5.99601E-002	5.47062E-001	3.57960E+000	9	...........
	29	0.4	5.36506E-001	-9.79976E-005	0.00000E+000	-5.25763E-005	-5.99601E-002	5.36735E-001	3.57960E+000	9	...........
	30	0.413333	5.26180E-001	-9.78372E-005	0.00000E+000	-5.14799E-005	-5.99601E-002	5.26424E-001	3.57899E+000	9	...........
	31	0.426667	5.15927E-001	-9.92052E-005	0.00000E+000	-5.11826E-005	-5.99601E-002	5.16158E-001	3.57890E+000	9	...........
	32	0.44	5.05622E-001	-9.91489E-005	0.00000E+000	-5.01319E-005	-5.99601E-002	5.05891E-001	3.57890E+000	9	...........
	33	0.453333	4.95430E-001	-9.98866E-005	0.00000E+000	-4.94868E-005	-5.99601E-002	4.95676E-001	3.57890E+000	9	...........
	34	0.466667	4.85403E-001	-9.85655E-005	0.00000E+000	-4.78440E-005	-5.99601E-002	4.85590E-001	3.57890E+000	9	...........
	35	0.48	4.75500E-001	-9.79507E-005	0.00000E+000	-4.65756E-005	-5.99601E-002	4.75598E-001	3.57890E+000	9	...........
	36	0.493333	4.65412E-001	-9.81039E-005	0.00000E+000	-4.56587E-005	-5.99601E-002	4.65511E-001	3.57890E+000	9	...........
	37	0.506667	4.55369E-001	-9.86519E-005	0.00000E+000	-4.49230E-005	-5.99601E-002	4.55463E-001	3.57890E+000	9	...........
	38	0.52	4.45367E-001	-9.94406E-005	0.00000E+000	-4.42876E-005	-5.99601E-002	4.45464E-001	3.57890E+000	9	...........
	39	0.533333	4.35430E-001	-9.89999E-005	0.00000E+000	-4.31076E-005	-5.99601E-002	4.35516E-001	3.57890E+000	9	...........
	40	0.546667	4.25529E-001	-9.83623E-005	0.00000E+000	-4.18561E-005	-5.99601E-002	4.25620E-001	3.57890E+000	9	...........
	41	0.56	4.15680E-001	-9.89895E-005	0.00000E+000	-4.11479E-005	-5.99601E-002	4.15769E-001	3.57890E+000	9	...........
	42	0.573333	4.05889E-001	-9.89697E-005	0.00000E+000	-4.01707E-005	-5.99601E-002	4.05973E-001	3.57890E+000	9	...........
	43	0.586667	3.96144E-001	-9.94604E-005	0.00000E+000	-3.94006E-005	-5.99601E-002	3.96228E-001	3.57890E+000	9	...........
	44	0.6	3.86455E-001	-9.93333E-005	0.00000E+000	-3.83878E-005	-5.99601E-002	3.86534E-001	3.57890E+000	9	...........
	45	0.613333	3.76815E-001	-9.85113E-005	0.00000E+000	-3.71205E-005	-5.99601E-002	3.76892E-001	3.57890E+000	9	...........
	46	0.626667	3.67224E-001	-9.85571E-005	0.00000E+000	-3.61925E-005	-5.99601E-002	3.67299E-001	3.57890E+000	9	...........
	47	0.64	3.57686E-001	-9.91604E-005	0.00000E+000	-3.54682E-005	-5.99601E-002	3.57752E-001	3.57890E+000	9	...........
	48	0.653333	3.48195E-001	-9.80258E-005	0.00000E+000	-3.41320E-005	-5.99601E-002	3.48259E-001	3.57890E+000	9	...........
	49	0.666667	3.38752E-001	-9.94604E-005	0.00000E+000	-3.36924E-005	-5.99601E-002	3.38815E-001	3.57890E+000	9	...........
	50	0.68	3.29352E-001	-9.89499E-005	0.00000E+000	-3.25893E-005	-5.99601E-002	3.29417E-001	3.57890E+000	9	...........
	51	0.693333	3.20011E-001	-9.83144E-005	0.00000E+000	-3.14617E-005	-5.99601E-002	3.20067E-001	3.57890E+000	9	...........
	52	0.706667	3.10706E-001	-9.81966E-005	0.00000E+000	-3.05103E-005	-5.99601E-002	3.10771E-001	3.57890E+000	9	...........
	53	0.72	3.01442E-001	-9.87249E-005	0.00000E+000	-2.97598E-005	-5.99601E-002	3.01500E-001	3.57890E+000	9	...........
	54	0.733333	2.92224E-001	-9.84519E-005	0.00000E+000	-2.87700E-005	-5.99601E-002	2.92283E-001	3.57890E+000	9	...........
	55	0.746667	2.83051E-001	-9.96219E-005	0.00000E+000	-2.81981E-005	-5.99601E-002	2.83106E-001	3.57890E+000	9	...........
	56	0.76	2.73919E-001	-9.88697E-005	0.00000E+000	-2.70822E-005	-5.99601E-002	2.73968E-001	3.57890E+000	9	...........
	57	0.773333	2.64819E-001	-9.81185E-005	0.00000E+000	-2.59837E-005	-5.99601E-002	2.64876E-001	3.57890E+000	9	...........
	58	0.786667	2.55767E-001	-9.88311E-005	0.00000E+000	-2.52777E-005	-5.99601E-002	2.55821E-001	3.57890E+000	9	...........
	59	0.8	2.46756E-001	-9.89270E-005	0.00000E+000	-2.44108E-005	-5.99601E-002	2.46798E-001	3.57890E+000	9	...........
	60	0.813333	2.37778E-001	-9.88614E-005	0.00000E+000	-2.35071E-005	-5.99601E-002	2.37823E-001	3.57890E+000	9	...........
	61	0.826667	2.28844E-001	-9.91291E-005	0.00000E+000	-2.26851E-005	-5.99601E-002	2.28882E-001	3.57890E+000	9	...........
	62	0.84	2.19944E-001	-9.82654E-005	0.00000E+000	-2.16129E-005	-5.99601E-002	2.19986E-001	3.57890E+000	9	...........
	63	0.853333	2.11094E-001	-9.93979E-005	0.00000E+000	-2.09823E-005	-5.99601E-002	2.11130E-001	3.57890E+000	9	...........
	64	0.866667	2.02282E-001	-9.85207E-005	0.00000E+000	-1.99290E-005	-5.99601E-002	2.02316E-001	3.57890E+000	9	...........
	65	0.88	1.93519E-001	-9.93344E-005	0.00000E+000	-1.92231E-005	-5.99601E-002	1.93548E-001	3.57890E+000	9	...........
	66	0.893333	1.84804E-001	-9.93167E-005	0.00000E+000	-1.83541E-005	-5.99601E-002	1.84830E-001	3.57890E+000	9	...........
	67	0.906667	1.76133E-001	-9.85373E-005	0.00000E+000	-1.73557E-005	-5.99601E-002	1.76164E-001	3.57890E+000	9	...........
	68	0.92	1.67512E-001	-9.90760E-005	0.00000E+000	-1.65965E-005	-5.99601E-002	1.67541E-001	3.57890E+000	9	...........
	69	0.933333	1.58949E-001	-9.85717E-005	0.00000E+000	-1.56679E-005	-5.99601E-002	1.58972E-001	3.57890E+000	9	...........
	70	0.946667	1.50439E-001	-9.88937E-005	0.00000E+000	-1.48775E-005	-5.99601E-002	1.50463E-001	3.57890E+000	9	...........
	71	0.96	1.41993E-001	-9.85665E-005	0.00000E+000	-1.39957E-005	-5.99601E-002	1.42007E-001	3.57890E+000	9	...........
	72	0.97333	1.33599E-001	-9.87009E-005	0.00000E+000	-1.31864E-005	-5.99601E-002	1.33617E-001	3.57890E+000	9	...........
	73	0.98667	1.25271E-001	-9.90333E-005	0.00000E+000	-1.24060E-005	-5.99601E-002	1.25291E-001	3.57890E+000	9	...........
	74	1	1.17007E-001	-9.84613E-005	0.00000E+000	-1.15206E-005	-5.99601E-002	1.17026E-001	3.57890E+000	9	...........
	75	1.01333	1.08808E-001	-9.88551E-005	0.00000E+000	-1.07562E-005	-5.99601E-002	1.08818E-001	3.57890E+000	9	...........
	76	1.02667	1.00673E-001	-9.96907E-005	0.00000E+000	-1.00362E-005	-5.99601E-002	1.00684E-001	3.57890E+000	9	...........
	77	1.04	9.26060E-002	-9.89280E-005	0.00000E+000	-9.16133E-006	-5.99601E-002	9.26169E-002	3.57890E+000	9	...........
	78	1.05333	8.46155E-002	-9.85728E-005	0.00000E+000	-8.34078E-006	-5.99601E-002	8.46183E-002	3.57890E+000	9	...........
	79	1.06667	7.66879E-002	-1.00136E-004	0.00000E+000	-7.67918E-006	-5.99601E-002	7.66873E-002	3.57890E+000	9	...........
	80	1.08	6.88282E-002	-9.89603E-005	0.00000E+000	-6.81126E-006	-5.99601E-002	6.88264E-002	3.57890E+000	9	...........
	81	1.09333	6.10298E-002	-9.88082E-005	0.00000E+000	-6.03025E-006	-5.99601E-002	6.10243E-002	3.57890E+000	9	...........
	82	1.10667	5.32924E-002	-9.91489E-005	0.00000E+000	-5.28388E-006	-5.99601E-002	5.32822E-002	3.57890E+000	9	...........
	83	1.12	4.56514E-002	-9.88249E-005	0.00000E+000	-4.51149E-006	-5.99601E-002	4.56478E-002	3.57890E+000	9	...........
	84	1.13333	3.80621E-002	-9.84977E-005	0.00000E+000	-3.74903E-006	-5.99601E-002	3.80504E-002	3.57890E+000	9	...........
	85	1.14667	3.05227E-002	-9.84217E-005	0.00000E+000	-3.00409E-006	-5.99601E-002	3.05031E-002	3.57890E+000	9	...........
	86	1.16	2.30428E-002	-9.86457E-005	0.00000E+000	-2.27308E-006	-5.99601E-002	2.30223E-002	3.57890E+000	9	...........
	87	1.17333	1.56312E-002	-9.97042E-005	0.00000E+000	-1.55850E-006	-5.99601E-002	1.56040E-002	3.57890E+000	9	...........
	88	1.18667	8.27701E-003	-9.88853E-005	0.00000E+000	-8.18475E-007	-5.99601E-002	8.24681E-003	3.57890E+000	9	...........
	89	1.19667	1.88701E-003	-9.76309E-005	0.00000E+000	-1.84231E-007	-5.99601E-002	1.85192E-003	3.57890E+000	9	...........
STARTTIMEOFFSET	QUANT	648.1225	Start Time Offset (s)
