EXPLAIN
TAG	PWR800_DISCHARGE
TITLE	LABEL	PWR Cyclic Charge Discharge (Cell) - Discharge Step	Test &Identifier
DATE	LABEL	13-7-2017	Date
TIME	LABEL	15:54:56	Time
NOTES	NOTES	2	&Notes...
	supercap test cell
	6M KOH
PSTAT	PSTAT	IFC5000-01520	Potentiostat
CAPACITY	QUANT	1.00000E-003	Capacity (A-hr)
CELLTYPE	SELECTOR	1	&Cell Type
WORKINGCONNECTION	SELECTOR	0	&Working Lead
MAXDISCHARGETIME	VARIABLEANDUNITS	1.00000E+002	s	1.00000E+002	second(s)	Max &Discharge Time
DISCHARGEMODE	MULTIPARAM	0	1.00000E-004	&Discharge Mode	Constant Current	Amp(s)
SAMPLETIME	QUANT	1.00000E-002	Sa&mple Period (s)
DISCHARGESTOPAT1	MULTIPARAM	3	0.00000E+000	Discharge Stop At &1	Voltage < Limit	V
DISCHARGESTOPAT2	MULTIPARAM	0	0.00000E+000	Discharge Stop At &2	None	N/A
AESBHCSELECTOR	TOGGLE	F	Save Both Half Cells
IRCOMP	TOGGLE	F	IR &Measure
EOC	QUANT	0	Open Circuit (V)
SEQUENCER	TOGGLE	TRUE	Run as Sequence
PSTATMODEL	IQUANT	53	Pstat Model
PSTATSECTION	LABEL	IFC5000-01520	Pstat Section
PSTATSERIALNO	LABEL	01520	Pstat Serial Number
CTRLMODE	IQUANT	0	Control Mode
ELECTROMETER	IQUANT	1	RE=0 or CS=1
IESTAB	IQUANT	0	I/E Stability
CASPEED	IQUANT	4	Control Amp Speed
CONVENTION	IQUANT	1	Current Convention
ICHRANGE	IQUANT	2	Ich Range
ICHRANGEMODE	TOGGLE	T	Ich Auto Range
ICHOFFSETENABLE	TOGGLE	F	Ich Offset Enable
ICHOFFSET	QUANT	0	Ich Offset (V)
ICHFILTER	IQUANT	1	Ich Filter
VCHRANGE	IQUANT	2	Vch Range
VCHRANGEMODE	TOGGLE	T	Vch Auto Range
VCHOFFSETENABLE	TOGGLE	F	Vch Offset Enable
VCHOFFSET	QUANT	0	Vch Offset (V)
VCHFILTER	IQUANT	1	Vch Filter
IERANGELOWERLIMIT	IQUANT	9	I/E Range Lower Limit
IERANGEMODE	TOGGLE	F	I/E AutoRange
IERANGE	IQUANT	9	I/E Range
ACHSELECT	IQUANT	1	Ach Select
ACHRANGE	IQUANT	2	Ach Range
ACHOFFSETENABLE	TOGGLE	F	Ach Offset Enable
ACHOFFSET	QUANT	0	Ach Offset (V)
ACHFILTER	IQUANT	1	Ach Filter
CABLEID	IQUANT	14	Cable ID
DCCALDATE	LABEL	5-7-2017	DC Calibration Date
ACCALDATE	LABEL	12/3/2015	AC Calibration Date
FRAMEWORKVERSION	QUANT	7.01	Framework Version
INSTRUMENTVERSION	LABEL	4.00	Instrument Version
CURVE	TABLE	85
	Pt	T	Vf	Im	Vu	Pwr	Sig	Ach	Temp	IERange	Over
	#	s	V	A	V	W	V	V	deg C	#	bits
	0	0.013333	8.46340E-001	-9.78070E-005	0.00000E+000	-8.27780E-005	-5.99601E-002	8.46689E-001	3.57900E+000	9	...........
	1	0.026667	8.32003E-001	-9.86155E-005	0.00000E+000	-8.20483E-005	-5.99601E-002	8.32353E-001	3.57900E+000	9	...........
	2	0.04	8.18491E-001	-9.94677E-005	0.00000E+000	-8.14135E-005	-5.99601E-002	8.18842E-001	3.57900E+000	9	...........
	3	0.053333	8.05552E-001	-9.88655E-005	0.00000E+000	-7.96413E-005	-5.99601E-002	8.05846E-001	3.57900E+000	9	...........
	4	0.066667	7.92973E-001	-9.82519E-005	0.00000E+000	-7.79111E-005	-5.99601E-002	7.93271E-001	3.57900E+000	9	...........
	5	0.08	7.80661E-001	-9.97303E-005	0.00000E+000	-7.78556E-005	-5.99601E-002	7.80984E-001	3.57900E+000	9	...........
	6	0.093333	7.68560E-001	-9.96730E-005	0.00000E+000	-7.66047E-005	-5.99601E-002	7.68884E-001	3.57900E+000	9	...........
	7	0.106667	7.56630E-001	-9.86853E-005	0.00000E+000	-7.46682E-005	-5.99601E-002	7.56920E-001	3.57900E+000	9	...........
	8	0.12	7.44803E-001	-9.99699E-005	0.00000E+000	-7.44579E-005	-5.99601E-002	7.45084E-001	3.57900E+000	9	...........
	9	0.133333	7.33047E-001	-9.85280E-005	0.00000E+000	-7.22257E-005	-5.99601E-002	7.33333E-001	3.57900E+000	9	...........
	10	0.146667	7.21404E-001	-9.97740E-005	0.00000E+000	-7.19774E-005	-5.99601E-002	7.21685E-001	3.57900E+000	9	...........
	11	0.16	7.09758E-001	-9.80810E-005	0.00000E+000	-6.96137E-005	-5.99601E-002	7.10034E-001	3.57900E+000	9	...........
	12	0.173333	6.98201E-001	-9.93344E-005	0.00000E+000	-6.93553E-005	-5.99601E-002	6.98477E-001	3.57900E+000	9	...........
	13	0.186667	6.86654E-001	-9.95563E-005	0.00000E+000	-6.83607E-005	-5.99601E-002	6.86922E-001	3.57900E+000	9	...........
	14	0.2	6.75142E-001	-9.94406E-005	0.00000E+000	-6.71366E-005	-5.99601E-002	6.75425E-001	3.57900E+000	9	...........
	15	0.213333	6.63659E-001	-9.80685E-005	0.00000E+000	-6.50841E-005	-5.99601E-002	6.63947E-001	3.57900E+000	9	...........
	16	0.226667	6.52194E-001	-9.91885E-005	0.00000E+000	-6.46901E-005	-5.99601E-002	6.52478E-001	3.57900E+000	9	...........
	17	0.24	6.40742E-001	-9.85009E-005	0.00000E+000	-6.31136E-005	-5.99601E-002	6.41036E-001	3.57900E+000	9	...........
	18	0.253333	6.29327E-001	-9.87884E-005	0.00000E+000	-6.21702E-005	-5.99601E-002	6.29639E-001	3.57900E+000	9	...........
	19	0.266667	6.17974E-001	-9.89760E-005	0.00000E+000	-6.11645E-005	-5.99601E-002	6.18262E-001	3.57900E+000	9	...........
	20	0.28	6.06543E-001	-9.74183E-005	0.00000E+000	-5.90884E-005	-5.99601E-002	6.06871E-001	3.57900E+000	9	...........
	21	0.293333	5.95248E-001	-9.89708E-005	0.00000E+000	-5.89121E-005	-5.99601E-002	5.95550E-001	3.57900E+000	9	...........
	22	0.306667	5.83946E-001	-9.96094E-005	0.00000E+000	-5.81665E-005	-5.99601E-002	5.84227E-001	3.57900E+000	9	...........
	23	0.32	5.72709E-001	-9.94229E-005	0.00000E+000	-5.69404E-005	-5.99601E-002	5.72968E-001	3.57900E+000	9	...........
	24	0.333333	5.61464E-001	-9.87395E-005	0.00000E+000	-5.54386E-005	-5.99601E-002	5.61740E-001	3.57900E+000	9	...........
	25	0.346667	5.50286E-001	-9.90729E-005	0.00000E+000	-5.45184E-005	-5.99601E-002	5.50542E-001	3.57900E+000	9	...........
	26	0.36	5.39146E-001	-9.87676E-005	0.00000E+000	-5.32501E-005	-5.99601E-002	5.39395E-001	3.57900E+000	9	...........
	27	0.373333	5.28027E-001	-9.93625E-005	0.00000E+000	-5.24660E-005	-5.99601E-002	5.28267E-001	3.57900E+000	9	...........
	28	0.386667	5.16999E-001	-9.85530E-005	0.00000E+000	-5.09518E-005	-5.99601E-002	5.17218E-001	3.57900E+000	9	...........
	29	0.4	5.05962E-001	-9.99418E-005	0.00000E+000	-5.05668E-005	-5.99601E-002	5.06215E-001	3.57900E+000	9	...........
	30	0.413333	4.95043E-001	-9.96667E-005	0.00000E+000	-4.93393E-005	-5.99601E-002	4.95276E-001	3.57900E+000	9	...........
	31	0.426667	4.84375E-001	-9.77632E-005	0.00000E+000	-4.73541E-005	-5.99601E-002	4.84544E-001	3.57900E+000	9	...........
	32	0.44	4.73763E-001	-9.85842E-005	0.00000E+000	-4.67056E-005	-5.99601E-002	4.73857E-001	3.57900E+000	9	...........
	33	0.453333	4.63023E-001	-9.95355E-005	0.00000E+000	-4.60873E-005	-5.99601E-002	4.63118E-001	3.57900E+000	9	...........
	34	0.466667	4.52361E-001	-9.83727E-005	0.00000E+000	-4.45000E-005	-5.99601E-002	4.52456E-001	3.57900E+000	9	...........
	35	0.48	4.41770E-001	-9.89728E-005	0.00000E+000	-4.37232E-005	-5.99601E-002	4.41855E-001	3.57900E+000	9	...........
	36	0.493333	4.31244E-001	-9.90333E-005	0.00000E+000	-4.27075E-005	-5.99601E-002	4.31334E-001	3.57900E+000	9	...........
	37	0.506667	4.20799E-001	-9.86207E-005	0.00000E+000	-4.14995E-005	-5.99601E-002	4.20883E-001	3.57900E+000	9	...........
	38	0.52	4.10425E-001	-9.89364E-005	0.00000E+000	-4.06060E-005	-5.99601E-002	4.10508E-001	3.57900E+000	9	...........
	39	0.533333	4.00118E-001	-9.88968E-005	0.00000E+000	-3.95704E-005	-5.99601E-002	4.00195E-001	3.57900E+000	9	...........
	40	0.546667	3.89881E-001	-9.95104E-005	0.00000E+000	-3.87973E-005	-5.99601E-002	3.89957E-001	3.57900E+000	9	...........
	41	0.56	3.79719E-001	-9.87176E-005	0.00000E+000	-3.74849E-005	-5.99601E-002	3.79789E-001	3.57900E+000	9	...........
	42	0.573333	3.69625E-001	-9.91625E-005	0.00000E+000	-3.66530E-005	-5.99601E-002	3.69690E-001	3.57900E+000	9	...........
	43	0.586667	3.59595E-001	-9.88947E-005	0.00000E+000	-3.55620E-005	-5.99601E-002	3.59658E-001	3.57900E+000	9	...........
	44	0.6	3.49629E-001	-9.89249E-005	0.00000E+000	-3.45870E-005	-5.99601E-002	3.49697E-001	3.57900E+000	9	...........
	45	0.613333	3.39730E-001	-9.92062E-005	0.00000E+000	-3.37033E-005	-5.99601E-002	3.39797E-001	3.57900E+000	9	...........
	46	0.626667	3.29899E-001	-9.75017E-005	0.00000E+000	-3.21657E-005	-5.99601E-002	3.29961E-001	3.57900E+000	9	...........
	47	0.64	3.20126E-001	-9.91843E-005	0.00000E+000	-3.17515E-005	-5.99601E-002	3.20188E-001	3.57900E+000	9	...........
	48	0.653333	3.10412E-001	-9.88207E-005	0.00000E+000	-3.06751E-005	-5.99601E-002	3.10470E-001	3.57900E+000	9	...........
	49	0.666667	3.00760E-001	-9.82206E-005	0.00000E+000	-2.95408E-005	-5.99601E-002	3.00816E-001	3.57900E+000	9	...........
	50	0.68	2.91156E-001	-9.98980E-005	0.00000E+000	-2.90859E-005	-5.99601E-002	2.91218E-001	3.57970E+000	9	...........
	51	0.693333	2.81614E-001	-9.82123E-005	0.00000E+000	-2.76579E-005	-5.99601E-002	2.81670E-001	3.57990E+000	9	...........
	52	0.706667	2.72121E-001	-1.00124E-004	0.00000E+000	-2.72458E-005	-5.99601E-002	2.72176E-001	3.57990E+000	9	...........
	53	0.72	2.62688E-001	-9.94000E-005	0.00000E+000	-2.61111E-005	-5.99601E-002	2.62741E-001	3.57990E+000	9	...........
	54	0.733333	2.53310E-001	-9.90062E-005	0.00000E+000	-2.50792E-005	-5.99601E-002	2.53356E-001	3.57990E+000	9	...........
	55	0.746667	2.43982E-001	-9.92937E-005	0.00000E+000	-2.42259E-005	-5.99601E-002	2.44026E-001	3.57990E+000	9	...........
	56	0.76	2.34714E-001	-9.91562E-005	0.00000E+000	-2.32734E-005	-5.99601E-002	2.34749E-001	3.57990E+000	9	...........
	57	0.773333	2.25492E-001	-9.87332E-005	0.00000E+000	-2.22636E-005	-5.99601E-002	2.25527E-001	3.57990E+000	9	...........
	58	0.786667	2.16327E-001	-9.89583E-005	0.00000E+000	-2.14074E-005	-5.99601E-002	2.16360E-001	3.57990E+000	9	...........
	59	0.8	2.07220E-001	-9.92000E-005	0.00000E+000	-2.05562E-005	-5.99601E-002	2.07250E-001	3.57990E+000	9	...........
	60	0.813333	1.98166E-001	-9.96407E-005	0.00000E+000	-1.97454E-005	-5.99601E-002	1.98199E-001	3.57990E+000	9	...........
	61	0.826667	1.89179E-001	-9.94625E-005	0.00000E+000	-1.88163E-005	-5.99601E-002	1.89206E-001	3.57990E+000	9	...........
	62	0.84	1.80247E-001	-9.86092E-005	0.00000E+000	-1.77740E-005	-5.99601E-002	1.80272E-001	3.57990E+000	9	...........
	63	0.853333	1.71388E-001	-9.87603E-005	0.00000E+000	-1.69263E-005	-5.99601E-002	1.71406E-001	3.57990E+000	9	...........
	64	0.866667	1.62595E-001	-9.87290E-005	0.00000E+000	-1.60529E-005	-5.99601E-002	1.62613E-001	3.57990E+000	9	...........
	65	0.88	1.53874E-001	-9.96959E-005	0.00000E+000	-1.53406E-005	-5.99601E-002	1.53884E-001	3.57990E+000	9	...........
	66	0.893333	1.45222E-001	-9.90895E-005	0.00000E+000	-1.43900E-005	-5.99601E-002	1.45227E-001	3.57990E+000	9	...........
	67	0.906667	1.36635E-001	-9.92187E-005	0.00000E+000	-1.35568E-005	-5.99601E-002	1.36644E-001	3.57990E+000	9	...........
	68	0.92	1.28131E-001	-9.92041E-005	0.00000E+000	-1.27111E-005	-5.99601E-002	1.28139E-001	3.57990E+000	9	...........
	69	0.933333	1.19706E-001	-9.84404E-005	0.00000E+000	-1.17839E-005	-5.99601E-002	1.19716E-001	3.57990E+000	9	...........
	70	0.946667	1.11356E-001	-9.91416E-005	0.00000E+000	-1.10401E-005	-5.99601E-002	1.11366E-001	3.57990E+000	9	...........
	71	0.96	1.03077E-001	-9.85540E-005	0.00000E+000	-1.01586E-005	-5.99601E-002	1.03085E-001	3.57990E+000	9	...........
	72	0.97333	9.48796E-002	-9.80726E-005	0.00000E+000	-9.30510E-006	-5.99601E-002	9.48894E-002	3.57990E+000	9	...........
	73	0.98667	8.67567E-002	-9.96501E-005	0.00000E+000	-8.64531E-006	-5.99601E-002	8.67647E-002	3.57990E+000	9	...........
	74	1	7.87198E-002	-9.87801E-005	0.00000E+000	-7.77594E-006	-5.99601E-002	7.87191E-002	3.57990E+000	9	...........
	75	1.01333	7.07496E-002	-9.82925E-005	0.00000E+000	-6.95416E-006	-5.99601E-002	7.07491E-002	3.57990E+000	9	...........
	76	1.02667	6.28521E-002	-9.81810E-005	0.00000E+000	-6.17088E-006	-5.99601E-002	6.28482E-002	3.57990E+000	9	...........
	77	1.04	5.50263E-002	-9.89947E-005	0.00000E+000	-5.44731E-006	-5.99601E-002	5.50210E-002	3.57990E+000	9	...........
	78	1.05333	4.72950E-002	-9.87259E-005	0.00000E+000	-4.66924E-006	-5.99601E-002	4.72858E-002	3.57990E+000	9	...........
	79	1.06667	3.96284E-002	-9.88259E-005	0.00000E+000	-3.91631E-006	-5.99601E-002	3.96207E-002	3.57990E+000	9	...........
	80	1.08	3.20156E-002	-9.90051E-005	0.00000E+000	-3.16971E-006	-5.99601E-002	3.19988E-002	3.57990E+000	9	...........
	81	1.09333	2.44716E-002	-9.91698E-005	0.00000E+000	-2.42685E-006	-5.99601E-002	2.44484E-002	3.57990E+000	9	...........
	82	1.10667	1.69973E-002	-9.91041E-005	0.00000E+000	-1.68450E-006	-5.99601E-002	1.69716E-002	3.57990E+000	9	...........
	83	1.12	9.59339E-003	-9.89551E-005	0.00000E+000	-9.49315E-007	-5.99601E-002	9.56455E-003	3.57990E+000	9	...........
	84	1.13167	2.70668E-003	-9.76196E-005	0.00000E+000	-2.64225E-007	-5.99601E-002	2.67582E-003	3.57990E+000	9	...........
STARTTIMEOFFSET	QUANT	2388.884	Start Time Offset (s)
