EXPLAIN
TAG	PWR800_DISCHARGE
TITLE	LABEL	PWR Cyclic Charge Discharge (Cell) - Discharge Step	Test &Identifier
DATE	LABEL	13-7-2017	Date
TIME	LABEL	15:35:24	Time
NOTES	NOTES	2	&Notes...
	supercap test cell
	6M KOH
PSTAT	PSTAT	IFC5000-01520	Potentiostat
CAPACITY	QUANT	1.00000E-003	Capacity (A-hr)
CELLTYPE	SELECTOR	1	&Cell Type
WORKINGCONNECTION	SELECTOR	0	&Working Lead
MAXDISCHARGETIME	VARIABLEANDUNITS	1.00000E+002	s	1.00000E+002	second(s)	Max &Discharge Time
DISCHARGEMODE	MULTIPARAM	0	1.00000E-004	&Discharge Mode	Constant Current	Amp(s)
SAMPLETIME	QUANT	1.00000E-002	Sa&mple Period (s)
DISCHARGESTOPAT1	MULTIPARAM	3	0.00000E+000	Discharge Stop At &1	Voltage < Limit	V
DISCHARGESTOPAT2	MULTIPARAM	0	0.00000E+000	Discharge Stop At &2	None	N/A
AESBHCSELECTOR	TOGGLE	F	Save Both Half Cells
IRCOMP	TOGGLE	F	IR &Measure
EOC	QUANT	0	Open Circuit (V)
SEQUENCER	TOGGLE	TRUE	Run as Sequence
PSTATMODEL	IQUANT	53	Pstat Model
PSTATSECTION	LABEL	IFC5000-01520	Pstat Section
PSTATSERIALNO	LABEL	01520	Pstat Serial Number
CTRLMODE	IQUANT	0	Control Mode
ELECTROMETER	IQUANT	1	RE=0 or CS=1
IESTAB	IQUANT	0	I/E Stability
CASPEED	IQUANT	4	Control Amp Speed
CONVENTION	IQUANT	1	Current Convention
ICHRANGE	IQUANT	2	Ich Range
ICHRANGEMODE	TOGGLE	T	Ich Auto Range
ICHOFFSETENABLE	TOGGLE	F	Ich Offset Enable
ICHOFFSET	QUANT	0	Ich Offset (V)
ICHFILTER	IQUANT	1	Ich Filter
VCHRANGE	IQUANT	2	Vch Range
VCHRANGEMODE	TOGGLE	T	Vch Auto Range
VCHOFFSETENABLE	TOGGLE	F	Vch Offset Enable
VCHOFFSET	QUANT	0	Vch Offset (V)
VCHFILTER	IQUANT	1	Vch Filter
IERANGELOWERLIMIT	IQUANT	9	I/E Range Lower Limit
IERANGEMODE	TOGGLE	F	I/E AutoRange
IERANGE	IQUANT	9	I/E Range
ACHSELECT	IQUANT	1	Ach Select
ACHRANGE	IQUANT	2	Ach Range
ACHOFFSETENABLE	TOGGLE	F	Ach Offset Enable
ACHOFFSET	QUANT	0	Ach Offset (V)
ACHFILTER	IQUANT	1	Ach Filter
CABLEID	IQUANT	14	Cable ID
DCCALDATE	LABEL	5-7-2017	DC Calibration Date
ACCALDATE	LABEL	12/3/2015	AC Calibration Date
FRAMEWORKVERSION	QUANT	7.01	Framework Version
INSTRUMENTVERSION	LABEL	4.00	Instrument Version
CURVE	TABLE	87
	Pt	T	Vf	Im	Vu	Pwr	Sig	Ach	Temp	IERange	Over
	#	s	V	A	V	W	V	V	deg C	#	bits
	0	0.013333	8.45473E-001	-9.87801E-005	0.00000E+000	-8.35159E-005	-5.99601E-002	8.45809E-001	3.57990E+000	9	...........
	1	0.026667	8.31374E-001	-9.89020E-005	0.00000E+000	-8.22245E-005	-5.99601E-002	8.31697E-001	3.57990E+000	9	...........
	2	0.04	8.18119E-001	-9.89301E-005	0.00000E+000	-8.09366E-005	-5.99601E-002	8.18426E-001	3.57990E+000	9	...........
	3	0.053333	8.05457E-001	-9.87072E-005	0.00000E+000	-7.95043E-005	-5.99601E-002	8.05733E-001	3.57990E+000	9	...........
	4	0.066667	7.93160E-001	-9.94125E-005	0.00000E+000	-7.88500E-005	-5.99601E-002	7.93440E-001	3.57990E+000	9	...........
	5	0.08	7.81151E-001	-9.93458E-005	0.00000E+000	-7.76041E-005	-5.99601E-002	7.81454E-001	3.57955E+000	9	...........
	6	0.093333	7.69383E-001	-9.88687E-005	0.00000E+000	-7.60679E-005	-5.99601E-002	7.69679E-001	3.57850E+000	9	...........
	7	0.106667	7.57774E-001	-9.86749E-005	0.00000E+000	-7.47732E-005	-5.99601E-002	7.58065E-001	3.57850E+000	9	...........
	8	0.12	7.46292E-001	-9.92354E-005	0.00000E+000	-7.40586E-005	-5.99601E-002	7.46591E-001	3.57850E+000	9	...........
	9	0.133333	7.34873E-001	-9.87176E-005	0.00000E+000	-7.25449E-005	-5.99601E-002	7.35168E-001	3.57850E+000	9	...........
	10	0.146667	7.23591E-001	-9.92677E-005	0.00000E+000	-7.18292E-005	-5.99601E-002	7.23866E-001	3.57850E+000	9	...........
	11	0.16	7.12302E-001	-9.91281E-005	0.00000E+000	-7.06092E-005	-5.99601E-002	7.12606E-001	3.57850E+000	9	...........
	12	0.173333	7.01106E-001	-9.92604E-005	0.00000E+000	-6.95920E-005	-5.99601E-002	7.01395E-001	3.57850E+000	9	...........
	13	0.186667	6.89925E-001	-9.85196E-005	0.00000E+000	-6.79712E-005	-5.99601E-002	6.90205E-001	3.57850E+000	9	...........
	14	0.2	6.78785E-001	-9.88238E-005	0.00000E+000	-6.70801E-005	-5.99601E-002	6.79059E-001	3.57850E+000	9	...........
	15	0.213333	6.67652E-001	-9.83331E-005	0.00000E+000	-6.56523E-005	-5.99601E-002	6.67935E-001	3.57850E+000	9	...........
	16	0.226667	6.56547E-001	-9.88103E-005	0.00000E+000	-6.48736E-005	-5.99601E-002	6.56824E-001	3.57850E+000	9	...........
	17	0.24	6.45464E-001	-9.93969E-005	0.00000E+000	-6.41571E-005	-5.99601E-002	6.45764E-001	3.57850E+000	9	...........
	18	0.253333	6.34395E-001	-9.82800E-005	0.00000E+000	-6.23483E-005	-5.99601E-002	6.34659E-001	3.57850E+000	9	...........
	19	0.266667	6.23383E-001	-9.96657E-005	0.00000E+000	-6.21299E-005	-5.99601E-002	6.23644E-001	3.57850E+000	9	...........
	20	0.28	6.12338E-001	-9.95886E-005	0.00000E+000	-6.09819E-005	-5.99601E-002	6.12631E-001	3.57850E+000	9	...........
	21	0.293333	6.01336E-001	-9.90364E-005	0.00000E+000	-5.95542E-005	-5.99601E-002	6.01611E-001	3.57850E+000	9	...........
	22	0.306667	5.90385E-001	-9.88916E-005	0.00000E+000	-5.83841E-005	-5.99601E-002	5.90661E-001	3.57850E+000	9	...........
	23	0.32	5.79431E-001	-9.90572E-005	0.00000E+000	-5.73968E-005	-5.99601E-002	5.79710E-001	3.57850E+000	9	...........
	24	0.333333	5.68542E-001	-9.87978E-005	0.00000E+000	-5.61707E-005	-5.99601E-002	5.68818E-001	3.57850E+000	9	...........
	25	0.346667	5.57608E-001	-9.94834E-005	0.00000E+000	-5.54727E-005	-5.99601E-002	5.57922E-001	3.57850E+000	9	...........
	26	0.36	5.46801E-001	-9.90656E-005	0.00000E+000	-5.41691E-005	-5.99601E-002	5.47059E-001	3.57850E+000	9	...........
	27	0.373333	5.35978E-001	-1.00119E-004	0.00000E+000	-5.36616E-005	-5.99601E-002	5.36225E-001	3.57850E+000	9	...........
	28	0.386667	5.25197E-001	-9.96282E-005	0.00000E+000	-5.23244E-005	-5.99601E-002	5.25465E-001	3.57850E+000	9	...........
	29	0.4	5.14470E-001	-9.94938E-005	0.00000E+000	-5.11866E-005	-5.99601E-002	5.14741E-001	3.57850E+000	9	...........
	30	0.413333	5.03758E-001	-9.95521E-005	0.00000E+000	-5.01501E-005	-5.99601E-002	5.04041E-001	3.57850E+000	9	...........
	31	0.426667	4.93152E-001	-9.90833E-005	0.00000E+000	-4.88632E-005	-5.99601E-002	4.93415E-001	3.57850E+000	9	...........
	32	0.44	4.82815E-001	-9.92614E-005	0.00000E+000	-4.79249E-005	-5.99601E-002	4.82974E-001	3.57850E+000	9	...........
	33	0.453333	4.72434E-001	-9.89134E-005	0.00000E+000	-4.67300E-005	-5.99601E-002	4.72532E-001	3.57850E+000	9	...........
	34	0.466667	4.61976E-001	-9.91646E-005	0.00000E+000	-4.58116E-005	-5.99601E-002	4.62070E-001	3.57850E+000	9	...........
	35	0.48	4.51565E-001	-9.86634E-005	0.00000E+000	-4.45529E-005	-5.99601E-002	4.51657E-001	3.57850E+000	9	...........
	36	0.493333	4.41226E-001	-9.92594E-005	0.00000E+000	-4.37959E-005	-5.99601E-002	4.41319E-001	3.57850E+000	9	...........
	37	0.506667	4.30946E-001	-9.84727E-005	0.00000E+000	-4.24364E-005	-5.99601E-002	4.31039E-001	3.57850E+000	9	...........
	38	0.52	4.20730E-001	-9.89416E-005	0.00000E+000	-4.16277E-005	-5.99601E-002	4.20818E-001	3.57850E+000	9	...........
	39	0.533333	4.10581E-001	-9.99897E-005	0.00000E+000	-4.10539E-005	-5.99601E-002	4.10665E-001	3.57850E+000	9	...........
	40	0.546667	4.00497E-001	-9.87655E-005	0.00000E+000	-3.95553E-005	-5.99601E-002	4.00579E-001	3.57850E+000	9	...........
	41	0.56	3.90476E-001	-9.88947E-005	0.00000E+000	-3.86160E-005	-5.99601E-002	3.90552E-001	3.57850E+000	9	...........
	42	0.573333	3.80508E-001	-9.92510E-005	0.00000E+000	-3.77658E-005	-5.99601E-002	3.80591E-001	3.57850E+000	9	...........
	43	0.586667	3.70611E-001	-9.97313E-005	0.00000E+000	-3.69615E-005	-5.99601E-002	3.70686E-001	3.57850E+000	9	...........
	44	0.6	3.60773E-001	-9.85905E-005	0.00000E+000	-3.55688E-005	-5.99601E-002	3.60849E-001	3.57850E+000	9	...........
	45	0.613333	3.50996E-001	-9.90531E-005	0.00000E+000	-3.47672E-005	-5.99601E-002	3.51063E-001	3.57850E+000	9	...........
	46	0.626667	3.41267E-001	-9.90291E-005	0.00000E+000	-3.37954E-005	-5.99601E-002	3.41340E-001	3.57850E+000	9	...........
	47	0.64	3.31609E-001	-9.83852E-005	0.00000E+000	-3.26255E-005	-5.99601E-002	3.31671E-001	3.57850E+000	9	...........
	48	0.653333	3.22004E-001	-9.95209E-005	0.00000E+000	-3.20461E-005	-5.99601E-002	3.22068E-001	3.57850E+000	9	...........
	49	0.666667	3.12448E-001	-9.87155E-005	0.00000E+000	-3.08434E-005	-5.99601E-002	3.12506E-001	3.57850E+000	9	...........
	50	0.68	3.02945E-001	-9.93219E-005	0.00000E+000	-3.00891E-005	-5.99601E-002	3.03001E-001	3.57850E+000	9	...........
	51	0.693333	2.93489E-001	-9.86988E-005	0.00000E+000	-2.89671E-005	-5.99601E-002	2.93544E-001	3.57850E+000	9	...........
	52	0.706667	2.84085E-001	-9.87947E-005	0.00000E+000	-2.80661E-005	-5.99601E-002	2.84137E-001	3.57850E+000	9	...........
	53	0.72	2.74729E-001	-9.78278E-005	0.00000E+000	-2.68761E-005	-5.99601E-002	2.74778E-001	3.57850E+000	9	...........
	54	0.733333	2.65421E-001	-9.93250E-005	0.00000E+000	-2.63630E-005	-5.99601E-002	2.65474E-001	3.57850E+000	9	...........
	55	0.746667	2.56158E-001	-9.85800E-005	0.00000E+000	-2.52521E-005	-5.99601E-002	2.56207E-001	3.57850E+000	9	...........
	56	0.76	2.46943E-001	-9.86811E-005	0.00000E+000	-2.43686E-005	-5.99601E-002	2.46991E-001	3.57850E+000	9	...........
	57	0.773333	2.37781E-001	-9.82623E-005	0.00000E+000	-2.33649E-005	-5.99601E-002	2.37822E-001	3.57850E+000	9	...........
	58	0.786667	2.28658E-001	-9.93406E-005	0.00000E+000	-2.27150E-005	-5.99601E-002	2.28699E-001	3.57850E+000	9	...........
	59	0.8	2.19583E-001	-9.95323E-005	0.00000E+000	-2.18556E-005	-5.99601E-002	2.19623E-001	3.57850E+000	9	...........
	60	0.813333	2.10566E-001	-9.85175E-005	0.00000E+000	-2.07444E-005	-5.99601E-002	2.10600E-001	3.57850E+000	9	...........
	61	0.826667	2.01597E-001	-9.87884E-005	0.00000E+000	-1.99154E-005	-5.99601E-002	2.01626E-001	3.57850E+000	9	...........
	62	0.84	1.92675E-001	-9.88520E-005	0.00000E+000	-1.90463E-005	-5.99601E-002	1.92712E-001	3.57850E+000	9	...........
	63	0.853333	1.83814E-001	-9.92979E-005	0.00000E+000	-1.82524E-005	-5.99601E-002	1.83849E-001	3.57850E+000	9	...........
	64	0.866667	1.75010E-001	-9.83362E-005	0.00000E+000	-1.72098E-005	-5.99601E-002	1.75036E-001	3.57850E+000	9	...........
	65	0.88	1.66268E-001	-9.90239E-005	0.00000E+000	-1.64645E-005	-5.99601E-002	1.66298E-001	3.57850E+000	9	...........
	66	0.893333	1.57590E-001	-9.94406E-005	0.00000E+000	-1.56709E-005	-5.99601E-002	1.57610E-001	3.57850E+000	9	...........
	67	0.906667	1.48973E-001	-9.88832E-005	0.00000E+000	-1.47309E-005	-5.99601E-002	1.48997E-001	3.57850E+000	9	...........
	68	0.92	1.40421E-001	-9.91500E-005	0.00000E+000	-1.39228E-005	-5.99601E-002	1.40443E-001	3.57850E+000	9	...........
	69	0.933333	1.31947E-001	-9.89062E-005	0.00000E+000	-1.30504E-005	-5.99601E-002	1.31965E-001	3.57850E+000	9	...........
	70	0.946667	1.23538E-001	-9.90281E-005	0.00000E+000	-1.22338E-005	-5.99601E-002	1.23559E-001	3.57850E+000	9	...........
	71	0.96	1.15202E-001	-9.98543E-005	0.00000E+000	-1.15034E-005	-5.99601E-002	1.15219E-001	3.57850E+000	9	...........
	72	0.97333	1.06938E-001	-9.87124E-005	0.00000E+000	-1.05561E-005	-5.99601E-002	1.06952E-001	3.57850E+000	9	...........
	73	0.98667	9.87529E-002	-9.79341E-005	0.00000E+000	-9.67127E-006	-5.99601E-002	9.87652E-002	3.57850E+000	9	...........
	74	1	9.06350E-002	-9.99168E-005	0.00000E+000	-9.05596E-006	-5.99601E-002	9.06446E-002	3.57850E+000	9	...........
	75	1.01333	8.25991E-002	-9.85102E-005	0.00000E+000	-8.13686E-006	-5.99601E-002	8.26019E-002	3.57850E+000	9	...........
	76	1.02667	7.46279E-002	-9.84509E-005	0.00000E+000	-7.34718E-006	-5.99601E-002	7.46327E-002	3.57850E+000	9	...........
	77	1.04	6.67358E-002	-9.85894E-005	0.00000E+000	-6.57944E-006	-5.99601E-002	6.67297E-002	3.57850E+000	9	...........
	78	1.05333	5.89089E-002	-9.96459E-005	0.00000E+000	-5.87003E-006	-5.99601E-002	5.89039E-002	3.57850E+000	9	...........
	79	1.06667	5.11551E-002	-9.85967E-005	0.00000E+000	-5.04373E-006	-5.99601E-002	5.11396E-002	3.57850E+000	9	...........
	80	1.08	4.34971E-002	-9.85029E-005	0.00000E+000	-4.28459E-006	-5.99601E-002	4.34864E-002	3.57850E+000	9	...........
	81	1.09333	3.58768E-002	-9.98053E-005	0.00000E+000	-3.58070E-006	-5.99601E-002	3.58644E-002	3.57850E+000	9	...........
	82	1.10667	2.83196E-002	-9.87030E-005	0.00000E+000	-2.79523E-006	-5.99601E-002	2.83036E-002	3.57850E+000	9	...........
	83	1.12	2.08291E-002	-9.91270E-005	0.00000E+000	-2.06473E-006	-5.99601E-002	2.08081E-002	3.57850E+000	9	...........
	84	1.13333	1.34087E-002	-9.84092E-005	0.00000E+000	-1.31954E-006	-5.99601E-002	1.33845E-002	3.57850E+000	9	...........
	85	1.14667	6.04904E-003	-9.85894E-005	0.00000E+000	-5.96372E-007	-5.99601E-002	6.01882E-003	3.57850E+000	9	...........
	86	1.15333	5.76876E-004	-9.82664E-005	0.00000E+000	-5.66876E-008	-5.99601E-002	5.35693E-004	3.57850E+000	9	...........
STARTTIMEOFFSET	QUANT	1509.585	Start Time Offset (s)
