EXPLAIN
TAG	PWR800_DISCHARGE
TITLE	LABEL	PWR Cyclic Charge Discharge (Cell) - Discharge Step	Test &Identifier
DATE	LABEL	13-7-2017	Date
TIME	LABEL	15:31:42	Time
NOTES	NOTES	2	&Notes...
	supercap test cell
	6M KOH
PSTAT	PSTAT	IFC5000-01520	Potentiostat
CAPACITY	QUANT	1.00000E-003	Capacity (A-hr)
CELLTYPE	SELECTOR	1	&Cell Type
WORKINGCONNECTION	SELECTOR	0	&Working Lead
MAXDISCHARGETIME	VARIABLEANDUNITS	1.00000E+002	s	1.00000E+002	second(s)	Max &Discharge Time
DISCHARGEMODE	MULTIPARAM	0	1.00000E-004	&Discharge Mode	Constant Current	Amp(s)
SAMPLETIME	QUANT	1.00000E-002	Sa&mple Period (s)
DISCHARGESTOPAT1	MULTIPARAM	3	0.00000E+000	Discharge Stop At &1	Voltage < Limit	V
DISCHARGESTOPAT2	MULTIPARAM	0	0.00000E+000	Discharge Stop At &2	None	N/A
AESBHCSELECTOR	TOGGLE	F	Save Both Half Cells
IRCOMP	TOGGLE	F	IR &Measure
EOC	QUANT	0	Open Circuit (V)
SEQUENCER	TOGGLE	TRUE	Run as Sequence
PSTATMODEL	IQUANT	53	Pstat Model
PSTATSECTION	LABEL	IFC5000-01520	Pstat Section
PSTATSERIALNO	LABEL	01520	Pstat Serial Number
CTRLMODE	IQUANT	0	Control Mode
ELECTROMETER	IQUANT	1	RE=0 or CS=1
IESTAB	IQUANT	0	I/E Stability
CASPEED	IQUANT	4	Control Amp Speed
CONVENTION	IQUANT	1	Current Convention
ICHRANGE	IQUANT	2	Ich Range
ICHRANGEMODE	TOGGLE	T	Ich Auto Range
ICHOFFSETENABLE	TOGGLE	F	Ich Offset Enable
ICHOFFSET	QUANT	0	Ich Offset (V)
ICHFILTER	IQUANT	1	Ich Filter
VCHRANGE	IQUANT	2	Vch Range
VCHRANGEMODE	TOGGLE	T	Vch Auto Range
VCHOFFSETENABLE	TOGGLE	F	Vch Offset Enable
VCHOFFSET	QUANT	0	Vch Offset (V)
VCHFILTER	IQUANT	1	Vch Filter
IERANGELOWERLIMIT	IQUANT	9	I/E Range Lower Limit
IERANGEMODE	TOGGLE	F	I/E AutoRange
IERANGE	IQUANT	9	I/E Range
ACHSELECT	IQUANT	1	Ach Select
ACHRANGE	IQUANT	2	Ach Range
ACHOFFSETENABLE	TOGGLE	F	Ach Offset Enable
ACHOFFSET	QUANT	0	Ach Offset (V)
ACHFILTER	IQUANT	1	Ach Filter
CABLEID	IQUANT	14	Cable ID
DCCALDATE	LABEL	5-7-2017	DC Calibration Date
ACCALDATE	LABEL	12/3/2015	AC Calibration Date
FRAMEWORKVERSION	QUANT	7.01	Framework Version
INSTRUMENTVERSION	LABEL	4.00	Instrument Version
CURVE	TABLE	88
	Pt	T	Vf	Im	Vu	Pwr	Sig	Ach	Temp	IERange	Over
	#	s	V	A	V	W	V	V	deg C	#	bits
	0	0.013333	8.47670E-001	-9.82352E-005	0.00000E+000	-8.32710E-005	-5.99601E-002	8.48022E-001	3.58000E+000	9	...........
	1	0.026667	8.33680E-001	-9.86811E-005	0.00000E+000	-8.22684E-005	-5.99601E-002	8.33995E-001	3.58000E+000	9	...........
	2	0.04	8.20518E-001	-9.82268E-005	0.00000E+000	-8.05969E-005	-5.99601E-002	8.20852E-001	3.58000E+000	9	...........
	3	0.053333	8.07930E-001	-9.86811E-005	0.00000E+000	-7.97274E-005	-5.99601E-002	8.08227E-001	3.58000E+000	9	...........
	4	0.066667	7.95743E-001	-9.93719E-005	0.00000E+000	-7.90745E-005	-5.99601E-002	7.96032E-001	3.58000E+000	9	...........
	5	0.08	7.83830E-001	-9.88843E-005	0.00000E+000	-7.75085E-005	-5.99601E-002	7.84127E-001	3.58000E+000	9	...........
	6	0.093333	7.72138E-001	-9.85446E-005	0.00000E+000	-7.60901E-005	-5.99601E-002	7.72436E-001	3.58000E+000	9	...........
	7	0.106667	7.60607E-001	-9.82883E-005	0.00000E+000	-7.47588E-005	-5.99601E-002	7.60900E-001	3.58000E+000	9	...........
	8	0.12	7.49201E-001	-9.93865E-005	0.00000E+000	-7.44604E-005	-5.99601E-002	7.49500E-001	3.58000E+000	9	...........
	9	0.133333	7.37875E-001	-9.88228E-005	0.00000E+000	-7.29189E-005	-5.99601E-002	7.38184E-001	3.58000E+000	9	...........
	10	0.146667	7.26660E-001	-9.91125E-005	0.00000E+000	-7.20211E-005	-5.99601E-002	7.26936E-001	3.58000E+000	9	...........
	11	0.16	7.15465E-001	-9.96667E-005	0.00000E+000	-7.13080E-005	-5.99601E-002	7.15761E-001	3.58000E+000	9	...........
	12	0.173333	7.04328E-001	-9.83581E-005	0.00000E+000	-6.92764E-005	-5.99601E-002	7.04629E-001	3.58000E+000	9	...........
	13	0.186667	6.93256E-001	-9.88895E-005	0.00000E+000	-6.85558E-005	-5.99601E-002	6.93534E-001	3.58000E+000	9	...........
	14	0.2	6.82185E-001	-9.89312E-005	0.00000E+000	-6.74893E-005	-5.99601E-002	6.82485E-001	3.58000E+000	9	...........
	15	0.213333	6.71157E-001	-9.85561E-005	0.00000E+000	-6.61466E-005	-5.99601E-002	6.71439E-001	3.58000E+000	9	...........
	16	0.226667	6.60127E-001	-9.80706E-005	0.00000E+000	-6.47390E-005	-5.99601E-002	6.60399E-001	3.58000E+000	9	...........
	17	0.24	6.49144E-001	-9.87134E-005	0.00000E+000	-6.40792E-005	-5.99601E-002	6.49414E-001	3.58000E+000	9	...........
	18	0.253333	6.38132E-001	-9.87134E-005	0.00000E+000	-6.29922E-005	-5.99601E-002	6.38418E-001	3.58000E+000	9	...........
	19	0.266667	6.27199E-001	-9.85738E-005	0.00000E+000	-6.18254E-005	-5.99601E-002	6.27431E-001	3.58000E+000	9	...........
	20	0.28	6.16240E-001	-9.91208E-005	0.00000E+000	-6.10822E-005	-5.99601E-002	6.16501E-001	3.58000E+000	9	...........
	21	0.293333	6.05274E-001	-9.95198E-005	0.00000E+000	-6.02367E-005	-5.99601E-002	6.05536E-001	3.58000E+000	9	...........
	22	0.306667	5.94391E-001	-9.91708E-005	0.00000E+000	-5.89462E-005	-5.99601E-002	5.94633E-001	3.58000E+000	9	...........
	23	0.32	5.83501E-001	-9.89124E-005	0.00000E+000	-5.77155E-005	-5.99601E-002	5.83755E-001	3.58000E+000	9	...........
	24	0.333333	5.72668E-001	-9.96907E-005	0.00000E+000	-5.70897E-005	-5.99601E-002	5.72895E-001	3.58000E+000	9	...........
	25	0.346667	5.61844E-001	-9.84352E-005	0.00000E+000	-5.53052E-005	-5.99601E-002	5.62064E-001	3.58000E+000	9	...........
	26	0.36	5.51049E-001	-9.85425E-005	0.00000E+000	-5.43018E-005	-5.99601E-002	5.51285E-001	3.57895E+000	9	...........
	27	0.373333	5.40289E-001	-9.89072E-005	0.00000E+000	-5.34384E-005	-5.99601E-002	5.40544E-001	3.57880E+000	9	...........
	28	0.386667	5.29541E-001	-9.88593E-005	0.00000E+000	-5.23500E-005	-5.99601E-002	5.29799E-001	3.57880E+000	9	...........
	29	0.4	5.18889E-001	-9.89124E-005	0.00000E+000	-5.13246E-005	-5.99601E-002	5.19100E-001	3.57880E+000	9	...........
	30	0.413333	5.08215E-001	-9.90833E-005	0.00000E+000	-5.03557E-005	-5.99601E-002	5.08434E-001	3.57880E+000	9	...........
	31	0.426667	4.97629E-001	-9.87322E-005	0.00000E+000	-4.91320E-005	-5.99601E-002	4.97848E-001	3.57880E+000	9	...........
	32	0.44	4.87170E-001	-9.92510E-005	0.00000E+000	-4.83522E-005	-5.99601E-002	4.87355E-001	3.57880E+000	9	...........
	33	0.453333	4.76973E-001	-9.92427E-005	0.00000E+000	-4.73361E-005	-5.99601E-002	4.77070E-001	3.57880E+000	9	...........
	34	0.466667	4.66546E-001	-9.98220E-005	0.00000E+000	-4.65715E-005	-5.99601E-002	4.66640E-001	3.57880E+000	9	...........
	35	0.48	4.56172E-001	-9.85071E-005	0.00000E+000	-4.49362E-005	-5.99601E-002	4.56262E-001	3.57880E+000	9	...........
	36	0.493333	4.45860E-001	-9.90739E-005	0.00000E+000	-4.41731E-005	-5.99601E-002	4.45954E-001	3.57880E+000	9	...........
	37	0.506667	4.35611E-001	-9.86248E-005	0.00000E+000	-4.29621E-005	-5.99601E-002	4.35700E-001	3.57880E+000	9	...........
	38	0.52	4.25418E-001	-9.88468E-005	0.00000E+000	-4.20512E-005	-5.99601E-002	4.25504E-001	3.57880E+000	9	...........
	39	0.533333	4.15290E-001	-9.84623E-005	0.00000E+000	-4.08904E-005	-5.99601E-002	4.15380E-001	3.57880E+000	9	...........
	40	0.546667	4.05230E-001	-9.86759E-005	0.00000E+000	-3.99864E-005	-5.99601E-002	4.05308E-001	3.57880E+000	9	...........
	41	0.56	3.95221E-001	-9.90166E-005	0.00000E+000	-3.91334E-005	-5.99601E-002	3.95299E-001	3.57880E+000	9	...........
	42	0.573333	3.85276E-001	-9.85540E-005	0.00000E+000	-3.79705E-005	-5.99601E-002	3.85353E-001	3.57880E+000	9	...........
	43	0.586667	3.75393E-001	-9.82612E-005	0.00000E+000	-3.68866E-005	-5.99601E-002	3.75465E-001	3.57880E+000	9	...........
	44	0.6	3.65575E-001	-9.93073E-005	0.00000E+000	-3.63042E-005	-5.99601E-002	3.65647E-001	3.57880E+000	9	...........
	45	0.613333	3.55811E-001	-9.91437E-005	0.00000E+000	-3.52764E-005	-5.99601E-002	3.55883E-001	3.57880E+000	9	...........
	46	0.626667	3.46102E-001	-9.94177E-005	0.00000E+000	-3.44087E-005	-5.99601E-002	3.46175E-001	3.57880E+000	9	...........
	47	0.64	3.36457E-001	-9.81883E-005	0.00000E+000	-3.30361E-005	-5.99601E-002	3.36523E-001	3.57880E+000	9	...........
	48	0.653333	3.26859E-001	-9.88707E-005	0.00000E+000	-3.23168E-005	-5.99601E-002	3.26919E-001	3.57880E+000	9	...........
	49	0.666667	3.17311E-001	-9.84904E-005	0.00000E+000	-3.12521E-005	-5.99601E-002	3.17373E-001	3.57880E+000	9	...........
	50	0.68	3.07818E-001	-9.92854E-005	0.00000E+000	-3.05618E-005	-5.99601E-002	3.07875E-001	3.57880E+000	9	...........
	51	0.693333	2.98373E-001	-9.90041E-005	0.00000E+000	-2.95402E-005	-5.99601E-002	2.98430E-001	3.57880E+000	9	...........
	52	0.706667	2.88984E-001	-9.85009E-005	0.00000E+000	-2.84651E-005	-5.99601E-002	2.89036E-001	3.57880E+000	9	...........
	53	0.72	2.79638E-001	-9.93688E-005	0.00000E+000	-2.77873E-005	-5.99601E-002	2.79692E-001	3.57880E+000	9	...........
	54	0.733333	2.70335E-001	-9.92937E-005	0.00000E+000	-2.68426E-005	-5.99601E-002	2.70394E-001	3.57880E+000	9	...........
	55	0.746667	2.61088E-001	-9.92166E-005	0.00000E+000	-2.59043E-005	-5.99601E-002	2.61138E-001	3.57880E+000	9	...........
	56	0.76	2.51881E-001	-9.87905E-005	0.00000E+000	-2.48834E-005	-5.99601E-002	2.51931E-001	3.57880E+000	9	...........
	57	0.773333	2.42729E-001	-9.90051E-005	0.00000E+000	-2.40314E-005	-5.99601E-002	2.42775E-001	3.57880E+000	9	...........
	58	0.786667	2.33619E-001	-9.85019E-005	0.00000E+000	-2.30119E-005	-5.99601E-002	2.33658E-001	3.57880E+000	9	...........
	59	0.8	2.24552E-001	-9.98241E-005	0.00000E+000	-2.24157E-005	-5.99601E-002	2.24592E-001	3.57880E+000	9	...........
	60	0.813333	2.15537E-001	-9.97334E-005	0.00000E+000	-2.14963E-005	-5.99601E-002	2.15576E-001	3.57880E+000	9	...........
	61	0.826667	2.06570E-001	-9.89791E-005	0.00000E+000	-2.04461E-005	-5.99601E-002	2.06606E-001	3.57880E+000	9	...........
	62	0.84	1.97651E-001	-9.87947E-005	0.00000E+000	-1.95269E-005	-5.99601E-002	1.97687E-001	3.57880E+000	9	...........
	63	0.853333	1.88792E-001	-9.84706E-005	0.00000E+000	-1.85904E-005	-5.99601E-002	1.88822E-001	3.57880E+000	9	...........
	64	0.866667	1.79978E-001	-9.83394E-005	0.00000E+000	-1.76989E-005	-5.99601E-002	1.80012E-001	3.57880E+000	9	...........
	65	0.88	1.71237E-001	-9.90895E-005	0.00000E+000	-1.69678E-005	-5.99601E-002	1.71262E-001	3.57880E+000	9	...........
	66	0.893333	1.62551E-001	-9.83446E-005	0.00000E+000	-1.59861E-005	-5.99601E-002	1.62573E-001	3.57880E+000	9	...........
	67	0.906667	1.53922E-001	-9.84936E-005	0.00000E+000	-1.51604E-005	-5.99601E-002	1.53947E-001	3.57880E+000	9	...........
	68	0.92	1.45369E-001	-9.89885E-005	0.00000E+000	-1.43898E-005	-5.99601E-002	1.45387E-001	3.57880E+000	9	...........
	69	0.933333	1.36874E-001	-9.87509E-005	0.00000E+000	-1.35165E-005	-5.99601E-002	1.36894E-001	3.57880E+000	9	...........
	70	0.946667	1.28454E-001	-9.85071E-005	0.00000E+000	-1.26536E-005	-5.99601E-002	1.28471E-001	3.57880E+000	9	...........
	71	0.96	1.20101E-001	-9.82862E-005	0.00000E+000	-1.18043E-005	-5.99601E-002	1.20121E-001	3.57880E+000	9	...........
	72	0.97333	1.11824E-001	-9.91520E-005	0.00000E+000	-1.10875E-005	-5.99601E-002	1.11836E-001	3.57880E+000	9	...........
	73	0.98667	1.03618E-001	-9.88030E-005	0.00000E+000	-1.02378E-005	-5.99601E-002	1.03630E-001	3.57880E+000	9	...........
	74	1	9.54853E-002	-9.88280E-005	0.00000E+000	-9.43662E-006	-5.99601E-002	9.54918E-002	3.57880E+000	9	...........
	75	1.01333	8.74181E-002	-9.95396E-005	0.00000E+000	-8.70157E-006	-5.99601E-002	8.74279E-002	3.57880E+000	9	...........
	76	1.02667	7.94355E-002	-9.91604E-005	0.00000E+000	-7.87685E-006	-5.99601E-002	7.94336E-002	3.57880E+000	9	...........
	77	1.04	7.15199E-002	-9.85175E-005	0.00000E+000	-7.04596E-006	-5.99601E-002	7.15147E-002	3.57880E+000	9	...........
	78	1.05333	6.36719E-002	-9.92489E-005	0.00000E+000	-6.31936E-006	-5.99601E-002	6.36698E-002	3.57880E+000	9	...........
	79	1.06667	5.58970E-002	-9.84613E-005	0.00000E+000	-5.50369E-006	-5.99601E-002	5.58918E-002	3.57880E+000	9	...........
	80	1.08	4.82099E-002	-9.88707E-005	0.00000E+000	-4.76655E-006	-5.99601E-002	4.81957E-002	3.57880E+000	9	...........
	81	1.09333	4.05851E-002	-9.93813E-005	0.00000E+000	-4.03340E-006	-5.99601E-002	4.05752E-002	3.57880E+000	9	...........
	82	1.10667	3.30109E-002	-9.93667E-005	0.00000E+000	-3.28018E-006	-5.99601E-002	3.29983E-002	3.57880E+000	9	...........
	83	1.12	2.55083E-002	-9.81383E-005	0.00000E+000	-2.50334E-006	-5.99601E-002	2.54898E-002	3.57880E+000	9	...........
	84	1.13333	1.80673E-002	-9.89166E-005	0.00000E+000	-1.78715E-006	-5.99601E-002	1.80419E-002	3.57880E+000	9	...........
	85	1.14667	1.06941E-002	-9.96699E-005	0.00000E+000	-1.06588E-006	-5.99601E-002	1.06621E-002	3.57880E+000	9	...........
	86	1.16	3.38352E-003	-9.89041E-005	0.00000E+000	-3.34644E-007	-5.99601E-002	3.34550E-003	3.57880E+000	9	...........
	87	1.16167	-7.17826E-004	-9.85603E-005	0.00000E+000	7.07491E-008	-5.99601E-002	-7.36702E-004	3.57880E+000	9	...........
STARTTIMEOFFSET	QUANT	1343.53	Start Time Offset (s)
