EXPLAIN
TAG	PWR800_DISCHARGE
TITLE	LABEL	PWR Cyclic Charge Discharge (Cell) - Discharge Step	Test &Identifier
DATE	LABEL	13-7-2017	Date
TIME	LABEL	15:51:32	Time
NOTES	NOTES	2	&Notes...
	supercap test cell
	6M KOH
PSTAT	PSTAT	IFC5000-01520	Potentiostat
CAPACITY	QUANT	1.00000E-003	Capacity (A-hr)
CELLTYPE	SELECTOR	1	&Cell Type
WORKINGCONNECTION	SELECTOR	0	&Working Lead
MAXDISCHARGETIME	VARIABLEANDUNITS	1.00000E+002	s	1.00000E+002	second(s)	Max &Discharge Time
DISCHARGEMODE	MULTIPARAM	0	1.00000E-004	&Discharge Mode	Constant Current	Amp(s)
SAMPLETIME	QUANT	1.00000E-002	Sa&mple Period (s)
DISCHARGESTOPAT1	MULTIPARAM	3	0.00000E+000	Discharge Stop At &1	Voltage < Limit	V
DISCHARGESTOPAT2	MULTIPARAM	0	0.00000E+000	Discharge Stop At &2	None	N/A
AESBHCSELECTOR	TOGGLE	F	Save Both Half Cells
IRCOMP	TOGGLE	F	IR &Measure
EOC	QUANT	0	Open Circuit (V)
SEQUENCER	TOGGLE	TRUE	Run as Sequence
PSTATMODEL	IQUANT	53	Pstat Model
PSTATSECTION	LABEL	IFC5000-01520	Pstat Section
PSTATSERIALNO	LABEL	01520	Pstat Serial Number
CTRLMODE	IQUANT	0	Control Mode
ELECTROMETER	IQUANT	1	RE=0 or CS=1
IESTAB	IQUANT	0	I/E Stability
CASPEED	IQUANT	4	Control Amp Speed
CONVENTION	IQUANT	1	Current Convention
ICHRANGE	IQUANT	2	Ich Range
ICHRANGEMODE	TOGGLE	T	Ich Auto Range
ICHOFFSETENABLE	TOGGLE	F	Ich Offset Enable
ICHOFFSET	QUANT	0	Ich Offset (V)
ICHFILTER	IQUANT	1	Ich Filter
VCHRANGE	IQUANT	2	Vch Range
VCHRANGEMODE	TOGGLE	T	Vch Auto Range
VCHOFFSETENABLE	TOGGLE	F	Vch Offset Enable
VCHOFFSET	QUANT	0	Vch Offset (V)
VCHFILTER	IQUANT	1	Vch Filter
IERANGELOWERLIMIT	IQUANT	9	I/E Range Lower Limit
IERANGEMODE	TOGGLE	F	I/E AutoRange
IERANGE	IQUANT	9	I/E Range
ACHSELECT	IQUANT	1	Ach Select
ACHRANGE	IQUANT	2	Ach Range
ACHOFFSETENABLE	TOGGLE	F	Ach Offset Enable
ACHOFFSET	QUANT	0	Ach Offset (V)
ACHFILTER	IQUANT	1	Ach Filter
CABLEID	IQUANT	14	Cable ID
DCCALDATE	LABEL	5-7-2017	DC Calibration Date
ACCALDATE	LABEL	12/3/2015	AC Calibration Date
FRAMEWORKVERSION	QUANT	7.01	Framework Version
INSTRUMENTVERSION	LABEL	4.00	Instrument Version
CURVE	TABLE	86
	Pt	T	Vf	Im	Vu	Pwr	Sig	Ach	Temp	IERange	Over
	#	s	V	A	V	W	V	V	deg C	#	bits
	0	0.013333	8.46343E-001	-9.90176E-005	0.00000E+000	-8.38029E-005	-5.99601E-002	8.46683E-001	3.57900E+000	9	...........
	1	0.026667	8.32056E-001	-9.82164E-005	0.00000E+000	-8.17216E-005	-5.99601E-002	8.32415E-001	3.57900E+000	9	...........
	2	0.04	8.18629E-001	-9.92010E-005	0.00000E+000	-8.12088E-005	-5.99601E-002	8.18957E-001	3.57900E+000	9	...........
	3	0.053333	8.05732E-001	-9.82800E-005	0.00000E+000	-7.91873E-005	-5.99601E-002	8.06046E-001	3.57900E+000	9	...........
	4	0.066667	7.93265E-001	-9.82394E-005	0.00000E+000	-7.79298E-005	-5.99601E-002	7.93557E-001	3.57900E+000	9	...........
	5	0.08	7.81014E-001	-9.90593E-005	0.00000E+000	-7.73667E-005	-5.99601E-002	7.81314E-001	3.57900E+000	9	...........
	6	0.093333	7.69004E-001	-9.82821E-005	0.00000E+000	-7.55793E-005	-5.99601E-002	7.69297E-001	3.57900E+000	9	...........
	7	0.106667	7.57149E-001	-9.91833E-005	0.00000E+000	-7.50965E-005	-5.99601E-002	7.57402E-001	3.57900E+000	9	...........
	8	0.12	7.45384E-001	-9.85717E-005	0.00000E+000	-7.34738E-005	-5.99601E-002	7.45663E-001	3.57900E+000	9	...........
	9	0.133333	7.33714E-001	-9.88291E-005	0.00000E+000	-7.25123E-005	-5.99601E-002	7.33998E-001	3.57900E+000	9	...........
	10	0.146667	7.22156E-001	-9.86467E-005	0.00000E+000	-7.12383E-005	-5.99601E-002	7.22394E-001	3.57900E+000	9	...........
	11	0.16	7.10564E-001	-9.90906E-005	0.00000E+000	-7.04102E-005	-5.99601E-002	7.10839E-001	3.57900E+000	9	...........
	12	0.173333	6.99077E-001	-9.97084E-005	0.00000E+000	-6.97039E-005	-5.99601E-002	6.99348E-001	3.57900E+000	9	...........
	13	0.186667	6.87596E-001	-9.91718E-005	0.00000E+000	-6.81901E-005	-5.99601E-002	6.87868E-001	3.57900E+000	9	...........
	14	0.2	6.76173E-001	-9.88457E-005	0.00000E+000	-6.68368E-005	-5.99601E-002	6.76462E-001	3.57900E+000	9	...........
	15	0.213333	6.64748E-001	-9.91145E-005	0.00000E+000	-6.58862E-005	-5.99601E-002	6.65030E-001	3.57900E+000	9	...........
	16	0.226667	6.53353E-001	-9.83446E-005	0.00000E+000	-6.42537E-005	-5.99601E-002	6.53629E-001	3.57900E+000	9	...........
	17	0.24	6.41996E-001	-9.91718E-005	0.00000E+000	-6.36679E-005	-5.99601E-002	6.42249E-001	3.57900E+000	9	...........
	18	0.253333	6.30617E-001	-9.81247E-005	0.00000E+000	-6.18791E-005	-5.99601E-002	6.30891E-001	3.57900E+000	9	...........
	19	0.266667	6.19330E-001	-9.92062E-005	0.00000E+000	-6.14414E-005	-5.99601E-002	6.19583E-001	3.57900E+000	9	...........
	20	0.28	6.07962E-001	-9.85238E-005	0.00000E+000	-5.98988E-005	-5.99601E-002	6.08256E-001	3.57900E+000	9	...........
	21	0.293333	5.96701E-001	-9.84415E-005	0.00000E+000	-5.87401E-005	-5.99601E-002	5.96981E-001	3.57900E+000	9	...........
	22	0.306667	5.85448E-001	-9.89947E-005	0.00000E+000	-5.79562E-005	-5.99601E-002	5.85736E-001	3.57900E+000	9	...........
	23	0.32	5.74236E-001	-9.80987E-005	0.00000E+000	-5.63318E-005	-5.99601E-002	5.74516E-001	3.57900E+000	9	...........
	24	0.333333	5.63057E-001	-9.94344E-005	0.00000E+000	-5.59872E-005	-5.99601E-002	5.63316E-001	3.57900E+000	9	...........
	25	0.346667	5.51909E-001	-9.95344E-005	0.00000E+000	-5.49340E-005	-5.99601E-002	5.52152E-001	3.57900E+000	9	...........
	26	0.36	5.40813E-001	-9.78747E-005	0.00000E+000	-5.29319E-005	-5.99601E-002	5.41052E-001	3.57900E+000	9	...........
	27	0.373333	5.29750E-001	-9.85613E-005	0.00000E+000	-5.22128E-005	-5.99601E-002	5.29994E-001	3.57900E+000	9	...........
	28	0.386667	5.18768E-001	-9.75694E-005	0.00000E+000	-5.06159E-005	-5.99601E-002	5.18989E-001	3.57900E+000	9	...........
	29	0.4	5.07785E-001	-9.88499E-005	0.00000E+000	-5.01945E-005	-5.99601E-002	5.08031E-001	3.57900E+000	9	...........
	30	0.413333	4.96904E-001	-9.84592E-005	0.00000E+000	-4.89247E-005	-5.99601E-002	4.97119E-001	3.57900E+000	9	...........
	31	0.426667	4.86217E-001	-9.91687E-005	0.00000E+000	-4.82175E-005	-5.99601E-002	4.86365E-001	3.57900E+000	9	...........
	32	0.44	4.75679E-001	-9.91500E-005	0.00000E+000	-4.71635E-005	-5.99601E-002	4.75774E-001	3.57900E+000	9	...........
	33	0.453333	4.64977E-001	-9.84727E-005	0.00000E+000	-4.57875E-005	-5.99601E-002	4.65066E-001	3.57900E+000	9	...........
	34	0.466667	4.54338E-001	-9.90239E-005	0.00000E+000	-4.49903E-005	-5.99601E-002	4.54424E-001	3.57900E+000	9	...........
	35	0.48	4.43769E-001	-9.81466E-005	0.00000E+000	-4.35544E-005	-5.99601E-002	4.43864E-001	3.57900E+000	9	...........
	36	0.493333	4.33272E-001	-9.87509E-005	0.00000E+000	-4.27860E-005	-5.99601E-002	4.33364E-001	3.57900E+000	9	...........
	37	0.506667	4.22851E-001	-9.83404E-005	0.00000E+000	-4.15833E-005	-5.99601E-002	4.22937E-001	3.57900E+000	9	...........
	38	0.52	4.12497E-001	-9.88468E-005	0.00000E+000	-4.07740E-005	-5.99601E-002	4.12583E-001	3.57900E+000	9	...........
	39	0.533333	4.02214E-001	-9.80268E-005	0.00000E+000	-3.94277E-005	-5.99601E-002	4.02291E-001	3.57900E+000	9	...........
	40	0.546667	3.91998E-001	-9.88197E-005	0.00000E+000	-3.87371E-005	-5.99601E-002	3.92071E-001	3.57900E+000	9	...........
	41	0.56	3.81848E-001	-9.90176E-005	0.00000E+000	-3.78097E-005	-5.99601E-002	3.81925E-001	3.57900E+000	9	...........
	42	0.573333	3.71775E-001	-9.88707E-005	0.00000E+000	-3.67577E-005	-5.99601E-002	3.71849E-001	3.57900E+000	9	...........
	43	0.586667	3.61766E-001	-9.93677E-005	0.00000E+000	-3.59478E-005	-5.99601E-002	3.61837E-001	3.57900E+000	9	...........
	44	0.6	3.51820E-001	-9.97803E-005	0.00000E+000	-3.51047E-005	-5.99601E-002	3.51882E-001	3.57900E+000	9	...........
	45	0.613333	3.41935E-001	-9.93948E-005	0.00000E+000	-3.39866E-005	-5.99601E-002	3.42000E-001	3.57900E+000	9	...........
	46	0.626667	3.32114E-001	-9.92812E-005	0.00000E+000	-3.29727E-005	-5.99601E-002	3.32170E-001	3.57900E+000	9	...........
	47	0.64	3.22363E-001	-9.95407E-005	0.00000E+000	-3.20882E-005	-5.99601E-002	3.22417E-001	3.57900E+000	9	...........
	48	0.653333	3.12659E-001	-9.91135E-005	0.00000E+000	-3.09888E-005	-5.99601E-002	3.12720E-001	3.57900E+000	9	...........
	49	0.666667	3.03022E-001	-9.93667E-005	0.00000E+000	-3.01103E-005	-5.99601E-002	3.03077E-001	3.57900E+000	9	...........
	50	0.68	2.93434E-001	-9.83769E-005	0.00000E+000	-2.88672E-005	-5.99601E-002	2.93488E-001	3.57900E+000	9	...........
	51	0.693333	2.83900E-001	-9.88895E-005	0.00000E+000	-2.80747E-005	-5.99601E-002	2.83958E-001	3.57900E+000	9	...........
	52	0.706667	2.74424E-001	-9.91583E-005	0.00000E+000	-2.72115E-005	-5.99601E-002	2.74470E-001	3.57900E+000	9	...........
	53	0.72	2.64996E-001	-9.78445E-005	0.00000E+000	-2.59284E-005	-5.99601E-002	2.65050E-001	3.57900E+000	9	...........
	54	0.733333	2.55621E-001	-9.86832E-005	0.00000E+000	-2.52255E-005	-5.99601E-002	2.55669E-001	3.57900E+000	9	...........
	55	0.746667	2.46301E-001	-9.82008E-005	0.00000E+000	-2.41870E-005	-5.99601E-002	2.46342E-001	3.57900E+000	9	...........
	56	0.76	2.37030E-001	-9.91812E-005	0.00000E+000	-2.35089E-005	-5.99601E-002	2.37069E-001	3.57900E+000	9	...........
	57	0.773333	2.27812E-001	-9.86582E-005	0.00000E+000	-2.24755E-005	-5.99601E-002	2.27851E-001	3.57900E+000	9	...........
	58	0.786667	2.18647E-001	-9.84217E-005	0.00000E+000	-2.15196E-005	-5.99601E-002	2.18687E-001	3.57900E+000	9	...........
	59	0.8	2.09545E-001	-9.90187E-005	0.00000E+000	-2.07489E-005	-5.99601E-002	2.09574E-001	3.57900E+000	9	...........
	60	0.813333	2.00488E-001	-9.87207E-005	0.00000E+000	-1.97924E-005	-5.99601E-002	2.00521E-001	3.57900E+000	9	...........
	61	0.826667	1.91502E-001	-9.96334E-005	0.00000E+000	-1.90800E-005	-5.99601E-002	1.91530E-001	3.57900E+000	9	...........
	62	0.84	1.82567E-001	-9.83258E-005	0.00000E+000	-1.79511E-005	-5.99601E-002	1.82599E-001	3.57900E+000	9	...........
	63	0.853333	1.73699E-001	-9.86613E-005	0.00000E+000	-1.71374E-005	-5.99601E-002	1.73729E-001	3.57900E+000	9	...........
	64	0.866667	1.64899E-001	-9.94261E-005	0.00000E+000	-1.63953E-005	-5.99601E-002	1.64926E-001	3.57900E+000	9	...........
	65	0.88	1.56174E-001	-9.89072E-005	0.00000E+000	-1.54467E-005	-5.99601E-002	1.56191E-001	3.57900E+000	9	...........
	66	0.893333	1.47509E-001	-9.89114E-005	0.00000E+000	-1.45903E-005	-5.99601E-002	1.47527E-001	3.57900E+000	9	...........
	67	0.906667	1.38918E-001	-9.87019E-005	0.00000E+000	-1.37115E-005	-5.99601E-002	1.38934E-001	3.57900E+000	9	...........
	68	0.92	1.30404E-001	-9.85165E-005	0.00000E+000	-1.28470E-005	-5.99601E-002	1.30414E-001	3.57900E+000	9	...........
	69	0.933333	1.21956E-001	-9.96157E-005	0.00000E+000	-1.21488E-005	-5.99601E-002	1.21972E-001	3.57938E+000	9	...........
	70	0.946667	1.13593E-001	-9.87676E-005	0.00000E+000	-1.12193E-005	-5.99601E-002	1.13609E-001	3.58000E+000	9	...........
	71	0.96	1.05309E-001	-9.86822E-005	0.00000E+000	-1.03922E-005	-5.99601E-002	1.05317E-001	3.58000E+000	9	...........
	72	0.97333	9.70954E-002	-9.85894E-005	0.00000E+000	-9.57258E-006	-5.99601E-002	9.71076E-002	3.58000E+000	9	...........
	73	0.98667	8.89635E-002	-9.95500E-005	0.00000E+000	-8.85632E-006	-5.99601E-002	8.89742E-002	3.58000E+000	9	...........
	74	1	8.09069E-002	-9.87582E-005	0.00000E+000	-7.99022E-006	-5.99601E-002	8.09143E-002	3.58000E+000	9	...........
	75	1.01333	7.29257E-002	-9.88020E-005	0.00000E+000	-7.20520E-006	-5.99601E-002	7.29290E-002	3.58000E+000	9	...........
	76	1.02667	6.50174E-002	-9.78591E-005	0.00000E+000	-6.36254E-006	-5.99601E-002	6.50162E-002	3.58000E+000	9	...........
	77	1.04	5.71740E-002	-9.93615E-005	0.00000E+000	-5.68089E-006	-5.99601E-002	5.71714E-002	3.58000E+000	9	...........
	78	1.05333	4.94158E-002	-9.86749E-005	0.00000E+000	-4.87610E-006	-5.99601E-002	4.94125E-002	3.58000E+000	9	...........
	79	1.06667	4.17483E-002	-9.93781E-005	0.00000E+000	-4.14886E-006	-5.99601E-002	4.17355E-002	3.58000E+000	9	...........
	80	1.08	3.41173E-002	-9.80164E-005	0.00000E+000	-3.34405E-006	-5.99601E-002	3.41049E-002	3.58000E+000	9	...........
	81	1.09333	2.65567E-002	-9.95771E-005	0.00000E+000	-2.64444E-006	-5.99601E-002	2.65368E-002	3.58000E+000	9	...........
	82	1.10667	1.90641E-002	-9.77372E-005	0.00000E+000	-1.86327E-006	-5.99601E-002	1.90473E-002	3.58000E+000	9	...........
	83	1.12	1.16429E-002	-9.99720E-005	0.00000E+000	-1.16396E-006	-5.99601E-002	1.16172E-002	3.58000E+000	9	...........
	84	1.13333	4.28554E-003	-9.85446E-005	0.00000E+000	-4.22317E-007	-5.99601E-002	4.25238E-003	3.58000E+000	9	...........
	85	1.13667	-2.83447E-004	-9.80685E-005	0.00000E+000	2.77972E-008	-5.99601E-002	-3.17042E-004	3.58000E+000	9	...........
STARTTIMEOFFSET	QUANT	2235.84	Start Time Offset (s)
