EXPLAIN
TAG	PWR800_DISCHARGE
TITLE	LABEL	PWR Cyclic Charge Discharge (Cell) - Discharge Step	Test &Identifier
DATE	LABEL	13-7-2017	Date
TIME	LABEL	15:13:45	Time
NOTES	NOTES	2	&Notes...
	supercap test cell
	6M KOH
PSTAT	PSTAT	IFC5000-01520	Potentiostat
CAPACITY	QUANT	1.00000E-003	Capacity (A-hr)
CELLTYPE	SELECTOR	1	&Cell Type
WORKINGCONNECTION	SELECTOR	0	&Working Lead
MAXDISCHARGETIME	VARIABLEANDUNITS	1.00000E+002	s	1.00000E+002	second(s)	Max &Discharge Time
DISCHARGEMODE	MULTIPARAM	0	1.00000E-004	&Discharge Mode	Constant Current	Amp(s)
SAMPLETIME	QUANT	1.00000E-002	Sa&mple Period (s)
DISCHARGESTOPAT1	MULTIPARAM	3	0.00000E+000	Discharge Stop At &1	Voltage < Limit	V
DISCHARGESTOPAT2	MULTIPARAM	0	0.00000E+000	Discharge Stop At &2	None	N/A
AESBHCSELECTOR	TOGGLE	F	Save Both Half Cells
IRCOMP	TOGGLE	F	IR &Measure
EOC	QUANT	0	Open Circuit (V)
SEQUENCER	TOGGLE	TRUE	Run as Sequence
PSTATMODEL	IQUANT	53	Pstat Model
PSTATSECTION	LABEL	IFC5000-01520	Pstat Section
PSTATSERIALNO	LABEL	01520	Pstat Serial Number
CTRLMODE	IQUANT	0	Control Mode
ELECTROMETER	IQUANT	1	RE=0 or CS=1
IESTAB	IQUANT	0	I/E Stability
CASPEED	IQUANT	4	Control Amp Speed
CONVENTION	IQUANT	1	Current Convention
ICHRANGE	IQUANT	2	Ich Range
ICHRANGEMODE	TOGGLE	T	Ich Auto Range
ICHOFFSETENABLE	TOGGLE	F	Ich Offset Enable
ICHOFFSET	QUANT	0	Ich Offset (V)
ICHFILTER	IQUANT	1	Ich Filter
VCHRANGE	IQUANT	2	Vch Range
VCHRANGEMODE	TOGGLE	T	Vch Auto Range
VCHOFFSETENABLE	TOGGLE	F	Vch Offset Enable
VCHOFFSET	QUANT	0	Vch Offset (V)
VCHFILTER	IQUANT	1	Vch Filter
IERANGELOWERLIMIT	IQUANT	9	I/E Range Lower Limit
IERANGEMODE	TOGGLE	F	I/E AutoRange
IERANGE	IQUANT	9	I/E Range
ACHSELECT	IQUANT	1	Ach Select
ACHRANGE	IQUANT	2	Ach Range
ACHOFFSETENABLE	TOGGLE	F	Ach Offset Enable
ACHOFFSET	QUANT	0	Ach Offset (V)
ACHFILTER	IQUANT	1	Ach Filter
CABLEID	IQUANT	14	Cable ID
DCCALDATE	LABEL	5-7-2017	DC Calibration Date
ACCALDATE	LABEL	12/3/2015	AC Calibration Date
FRAMEWORKVERSION	QUANT	7.01	Framework Version
INSTRUMENTVERSION	LABEL	4.00	Instrument Version
CURVE	TABLE	90
	Pt	T	Vf	Im	Vu	Pwr	Sig	Ach	Temp	IERange	Over
	#	s	V	A	V	W	V	V	deg C	#	bits
	0	0.013333	8.47686E-001	-9.86936E-005	0.00000E+000	-8.36612E-005	-5.99601E-002	8.48038E-001	3.57880E+000	9	...........
	1	0.026667	8.34316E-001	-9.89593E-005	0.00000E+000	-8.25633E-005	-5.99601E-002	8.34658E-001	3.57880E+000	9	...........
	2	0.04	8.21776E-001	-9.91052E-005	0.00000E+000	-8.14423E-005	-5.99601E-002	8.22111E-001	3.57880E+000	9	...........
	3	0.053333	8.09794E-001	-9.82279E-005	0.00000E+000	-7.95444E-005	-5.99601E-002	8.10106E-001	3.57880E+000	9	...........
	4	0.066667	7.98216E-001	-9.92479E-005	0.00000E+000	-7.92213E-005	-5.99601E-002	7.98540E-001	3.57880E+000	9	...........
	5	0.08	7.86898E-001	-9.85217E-005	0.00000E+000	-7.75266E-005	-5.99601E-002	7.87191E-001	3.57880E+000	9	...........
	6	0.093333	7.75824E-001	-9.87863E-005	0.00000E+000	-7.66409E-005	-5.99601E-002	7.76124E-001	3.57880E+000	9	...........
	7	0.106667	7.64888E-001	-9.95230E-005	0.00000E+000	-7.61239E-005	-5.99601E-002	7.65200E-001	3.57880E+000	9	...........
	8	0.12	7.54109E-001	-9.94865E-005	0.00000E+000	-7.50236E-005	-5.99601E-002	7.54402E-001	3.57880E+000	9	...........
	9	0.133333	7.43426E-001	-9.94136E-005	0.00000E+000	-7.39066E-005	-5.99601E-002	7.43704E-001	3.57880E+000	9	...........
	10	0.146667	7.32800E-001	-9.90749E-005	0.00000E+000	-7.26021E-005	-5.99601E-002	7.33088E-001	3.57880E+000	9	...........
	11	0.16	7.22261E-001	-9.93969E-005	0.00000E+000	-7.17905E-005	-5.99601E-002	7.22534E-001	3.57880E+000	9	...........
	12	0.173333	7.11698E-001	-9.89697E-005	0.00000E+000	-7.04366E-005	-5.99601E-002	7.12005E-001	3.57880E+000	9	...........
	13	0.186667	7.01244E-001	-9.86790E-005	0.00000E+000	-6.91981E-005	-5.99601E-002	7.01535E-001	3.57880E+000	9	...........
	14	0.2	6.90795E-001	-9.77955E-005	0.00000E+000	-6.75567E-005	-5.99601E-002	6.91062E-001	3.57880E+000	9	...........
	15	0.213333	6.80377E-001	-9.90822E-005	0.00000E+000	-6.74132E-005	-5.99601E-002	6.80644E-001	3.57880E+000	9	...........
	16	0.226667	6.69970E-001	-9.97240E-005	0.00000E+000	-6.68121E-005	-5.99601E-002	6.70223E-001	3.57880E+000	9	...........
	17	0.24	6.59566E-001	-9.84779E-005	0.00000E+000	-6.49527E-005	-5.99601E-002	6.59812E-001	3.57880E+000	9	...........
	18	0.253333	6.49186E-001	-9.87478E-005	0.00000E+000	-6.41057E-005	-5.99601E-002	6.49442E-001	3.57880E+000	9	...........
	19	0.266667	6.38810E-001	-9.94073E-005	0.00000E+000	-6.35024E-005	-5.99601E-002	6.39046E-001	3.57880E+000	9	...........
	20	0.28	6.28459E-001	-9.88145E-005	0.00000E+000	-6.21008E-005	-5.99601E-002	6.28688E-001	3.57880E+000	9	...........
	21	0.293333	6.18112E-001	-9.94448E-005	0.00000E+000	-6.14681E-005	-5.99601E-002	6.18347E-001	3.57880E+000	9	...........
	22	0.306667	6.07706E-001	-9.83071E-005	0.00000E+000	-5.97418E-005	-5.99601E-002	6.08001E-001	3.57880E+000	9	...........
	23	0.32	5.97393E-001	-9.93292E-005	0.00000E+000	-5.93386E-005	-5.99601E-002	5.97670E-001	3.57880E+000	9	...........
	24	0.333333	5.87063E-001	-9.86009E-005	0.00000E+000	-5.78850E-005	-5.99601E-002	5.87357E-001	3.57880E+000	9	...........
	25	0.346667	5.76761E-001	-9.99001E-005	0.00000E+000	-5.76185E-005	-5.99601E-002	5.77026E-001	3.57880E+000	9	...........
	26	0.36	5.66476E-001	-9.90551E-005	0.00000E+000	-5.61123E-005	-5.99601E-002	5.66755E-001	3.57880E+000	9	...........
	27	0.373333	5.56199E-001	-9.87738E-005	0.00000E+000	-5.49380E-005	-5.99601E-002	5.56456E-001	3.57880E+000	9	...........
	28	0.386667	5.45964E-001	-9.90291E-005	0.00000E+000	-5.40664E-005	-5.99601E-002	5.46224E-001	3.57880E+000	9	...........
	29	0.4	5.35716E-001	-9.87665E-005	0.00000E+000	-5.29108E-005	-5.99601E-002	5.35980E-001	3.57880E+000	9	...........
	30	0.413333	5.25513E-001	-9.87926E-005	0.00000E+000	-5.19168E-005	-5.99601E-002	5.25780E-001	3.57880E+000	9	...........
	31	0.426667	5.15348E-001	-9.86551E-005	0.00000E+000	-5.08417E-005	-5.99601E-002	5.15591E-001	3.57880E+000	9	...........
	32	0.44	5.05144E-001	-9.91760E-005	0.00000E+000	-5.00982E-005	-5.99601E-002	5.05426E-001	3.57880E+000	9	...........
	33	0.453333	4.95064E-001	-9.90864E-005	0.00000E+000	-4.90541E-005	-5.99601E-002	4.95340E-001	3.57880E+000	9	...........
	34	0.466667	4.85135E-001	-9.97574E-005	0.00000E+000	-4.83958E-005	-5.99601E-002	4.85339E-001	3.57880E+000	9	...........
	35	0.48	4.75337E-001	-9.90979E-005	0.00000E+000	-4.71049E-005	-5.99601E-002	4.75440E-001	3.57880E+000	9	...........
	36	0.493333	4.65348E-001	-9.85144E-005	0.00000E+000	-4.58435E-005	-5.99601E-002	4.65446E-001	3.57880E+000	9	...........
	37	0.506667	4.55399E-001	-9.85363E-005	0.00000E+000	-4.48734E-005	-5.99601E-002	4.55500E-001	3.57880E+000	9	...........
	38	0.52	4.45497E-001	-9.85394E-005	0.00000E+000	-4.38990E-005	-5.99601E-002	4.45592E-001	3.57880E+000	9	...........
	39	0.533333	4.35643E-001	-9.85311E-005	0.00000E+000	-4.29244E-005	-5.99601E-002	4.35730E-001	3.57880E+000	9	...........
	40	0.546667	4.25834E-001	-9.86988E-005	0.00000E+000	-4.20293E-005	-5.99601E-002	4.25920E-001	3.57880E+000	9	...........
	41	0.56	4.16078E-001	-9.87603E-005	0.00000E+000	-4.10920E-005	-5.99601E-002	4.16157E-001	3.57880E+000	9	...........
	42	0.573333	4.06365E-001	-9.87915E-005	0.00000E+000	-4.01454E-005	-5.99601E-002	4.06439E-001	3.57880E+000	9	...........
	43	0.586667	3.96706E-001	-9.84446E-005	0.00000E+000	-3.90536E-005	-5.99601E-002	3.96778E-001	3.57880E+000	9	...........
	44	0.6	3.87088E-001	-9.89072E-005	0.00000E+000	-3.82858E-005	-5.99601E-002	3.87163E-001	3.57880E+000	9	...........
	45	0.613333	3.77522E-001	-9.87061E-005	0.00000E+000	-3.72638E-005	-5.99601E-002	3.77591E-001	3.57880E+000	9	...........
	46	0.626667	3.67999E-001	-9.85217E-005	0.00000E+000	-3.62558E-005	-5.99601E-002	3.68072E-001	3.57880E+000	9	...........
	47	0.64	3.58530E-001	-9.93208E-005	0.00000E+000	-3.56095E-005	-5.99601E-002	3.58597E-001	3.57880E+000	9	...........
	48	0.653333	3.49104E-001	-9.86165E-005	0.00000E+000	-3.44274E-005	-5.99601E-002	3.49172E-001	3.57880E+000	9	...........
	49	0.666667	3.39728E-001	-9.83706E-005	0.00000E+000	-3.34193E-005	-5.99601E-002	3.39788E-001	3.57880E+000	9	...........
	50	0.68	3.30399E-001	-9.95344E-005	0.00000E+000	-3.28860E-005	-5.99601E-002	3.30467E-001	3.57880E+000	9	...........
	51	0.693333	3.21118E-001	-9.85321E-005	0.00000E+000	-3.16404E-005	-5.99601E-002	3.21183E-001	3.57880E+000	9	...........
	52	0.706667	3.11872E-001	-9.88124E-005	0.00000E+000	-3.08168E-005	-5.99601E-002	3.11934E-001	3.57880E+000	9	...........
	53	0.72	3.02669E-001	-9.81581E-005	0.00000E+000	-2.97094E-005	-5.99601E-002	3.02730E-001	3.57961E+000	9	...........
	54	0.733333	2.93509E-001	-9.85207E-005	0.00000E+000	-2.89167E-005	-5.99601E-002	2.93564E-001	3.58010E+000	9	...........
	55	0.746667	2.84383E-001	-9.93750E-005	0.00000E+000	-2.82606E-005	-5.99601E-002	2.84434E-001	3.58010E+000	9	...........
	56	0.76	2.75297E-001	-9.90885E-005	0.00000E+000	-2.72787E-005	-5.99601E-002	2.75348E-001	3.58010E+000	9	...........
	57	0.773333	2.66256E-001	-9.92948E-005	0.00000E+000	-2.64378E-005	-5.99601E-002	2.66305E-001	3.58010E+000	9	...........
	58	0.786667	2.57252E-001	-9.96459E-005	0.00000E+000	-2.56341E-005	-5.99601E-002	2.57296E-001	3.58010E+000	9	...........
	59	0.8	2.48282E-001	-9.82914E-005	0.00000E+000	-2.44039E-005	-5.99601E-002	2.48333E-001	3.58010E+000	9	...........
	60	0.813333	2.39355E-001	-9.84519E-005	0.00000E+000	-2.35650E-005	-5.99601E-002	2.39398E-001	3.58010E+000	9	...........
	61	0.826667	2.30470E-001	-9.89062E-005	0.00000E+000	-2.27949E-005	-5.99601E-002	2.30504E-001	3.58010E+000	9	...........
	62	0.84	2.21611E-001	-9.98074E-005	0.00000E+000	-2.21184E-005	-5.99601E-002	2.21647E-001	3.58010E+000	9	...........
	63	0.853333	2.12800E-001	-9.96292E-005	0.00000E+000	-2.12011E-005	-5.99601E-002	2.12831E-001	3.58010E+000	9	...........
	64	0.866667	2.04027E-001	-9.85457E-005	0.00000E+000	-2.01060E-005	-5.99601E-002	2.04056E-001	3.58010E+000	9	...........
	65	0.88	1.95298E-001	-9.96813E-005	0.00000E+000	-1.94675E-005	-5.99601E-002	1.95327E-001	3.58010E+000	9	...........
	66	0.893333	1.86614E-001	-9.90156E-005	0.00000E+000	-1.84776E-005	-5.99601E-002	1.86644E-001	3.58010E+000	9	...........
	67	0.906667	1.77974E-001	-9.87801E-005	0.00000E+000	-1.75802E-005	-5.99601E-002	1.78007E-001	3.58010E+000	9	...........
	68	0.92	1.69387E-001	-9.90322E-005	0.00000E+000	-1.67748E-005	-5.99601E-002	1.69416E-001	3.58010E+000	9	...........
	69	0.933333	1.60853E-001	-9.88061E-005	0.00000E+000	-1.58932E-005	-5.99601E-002	1.60878E-001	3.58010E+000	9	...........
	70	0.946667	1.52376E-001	-9.95115E-005	0.00000E+000	-1.51631E-005	-5.99601E-002	1.52397E-001	3.58010E+000	9	...........
	71	0.96	1.43950E-001	-9.85978E-005	0.00000E+000	-1.41932E-005	-5.99601E-002	1.43971E-001	3.58010E+000	9	...........
	72	0.97333	1.35577E-001	-9.88436E-005	0.00000E+000	-1.34009E-005	-5.99601E-002	1.35600E-001	3.58010E+000	9	...........
	73	0.98667	1.27273E-001	-9.88291E-005	0.00000E+000	-1.25783E-005	-5.99601E-002	1.27294E-001	3.58010E+000	9	...........
	74	1	1.19025E-001	-1.00297E-004	0.00000E+000	-1.19379E-005	-5.99601E-002	1.19046E-001	3.58010E+000	9	...........
	75	1.01333	1.10843E-001	-9.80383E-005	0.00000E+000	-1.08668E-005	-5.99601E-002	1.10865E-001	3.58010E+000	9	...........
	76	1.02667	1.02726E-001	-9.87832E-005	0.00000E+000	-1.01476E-005	-5.99601E-002	1.02743E-001	3.58010E+000	9	...........
	77	1.04	9.46731E-002	-9.97793E-005	0.00000E+000	-9.44641E-006	-5.99601E-002	9.46874E-002	3.58010E+000	9	...........
	78	1.05333	8.66874E-002	-9.91510E-005	0.00000E+000	-8.59514E-006	-5.99601E-002	8.66988E-002	3.58010E+000	9	...........
	79	1.06667	7.87664E-002	-9.96928E-005	0.00000E+000	-7.85244E-006	-5.99601E-002	7.87725E-002	3.58010E+000	9	...........
	80	1.08	7.09182E-002	-9.99918E-005	0.00000E+000	-7.09124E-006	-5.99601E-002	7.09121E-002	3.58010E+000	9	...........
	81	1.09333	6.31251E-002	-9.84519E-005	0.00000E+000	-6.21479E-006	-5.99601E-002	6.31189E-002	3.58010E+000	9	...........
	82	1.10667	5.53969E-002	-1.00031E-004	0.00000E+000	-5.54143E-006	-5.99601E-002	5.53967E-002	3.58010E+000	9	...........
	83	1.12	4.77546E-002	-9.90208E-005	0.00000E+000	-4.72870E-006	-5.99601E-002	4.77456E-002	3.58010E+000	9	...........
	84	1.13333	4.01743E-002	-9.89697E-005	0.00000E+000	-3.97603E-006	-5.99601E-002	4.01671E-002	3.58010E+000	9	...........
	85	1.14667	3.26377E-002	-9.91312E-005	0.00000E+000	-3.23541E-006	-5.99601E-002	3.26263E-002	3.58010E+000	9	...........
	86	1.16	2.51637E-002	-9.83904E-005	0.00000E+000	-2.47586E-006	-5.99601E-002	2.51458E-002	3.58010E+000	9	...........
	87	1.17333	1.77451E-002	-9.87749E-005	0.00000E+000	-1.75277E-006	-5.99601E-002	1.77243E-002	3.58010E+000	9	...........
	88	1.18667	1.03887E-002	-9.91771E-005	0.00000E+000	-1.03032E-006	-5.99601E-002	1.03614E-002	3.58010E+000	9	...........
	89	1.2	3.09190E-003	-9.83237E-005	0.00000E+000	-3.04007E-007	-5.99601E-002	3.05866E-003	3.58010E+000	9	...........
STARTTIMEOFFSET	QUANT	529.6633	Start Time Offset (s)
