EXPLAIN
TAG	PWR800_DISCHARGE
TITLE	LABEL	PWR Cyclic Charge Discharge (Cell) - Discharge Step	Test &Identifier
DATE	LABEL	13-7-2017	Date
TIME	LABEL	15:52:53	Time
NOTES	NOTES	2	&Notes...
	supercap test cell
	6M KOH
PSTAT	PSTAT	IFC5000-01520	Potentiostat
CAPACITY	QUANT	1.00000E-003	Capacity (A-hr)
CELLTYPE	SELECTOR	1	&Cell Type
WORKINGCONNECTION	SELECTOR	0	&Working Lead
MAXDISCHARGETIME	VARIABLEANDUNITS	1.00000E+002	s	1.00000E+002	second(s)	Max &Discharge Time
DISCHARGEMODE	MULTIPARAM	0	1.00000E-004	&Discharge Mode	Constant Current	Amp(s)
SAMPLETIME	QUANT	1.00000E-002	Sa&mple Period (s)
DISCHARGESTOPAT1	MULTIPARAM	3	0.00000E+000	Discharge Stop At &1	Voltage < Limit	V
DISCHARGESTOPAT2	MULTIPARAM	0	0.00000E+000	Discharge Stop At &2	None	N/A
AESBHCSELECTOR	TOGGLE	F	Save Both Half Cells
IRCOMP	TOGGLE	F	IR &Measure
EOC	QUANT	0	Open Circuit (V)
SEQUENCER	TOGGLE	TRUE	Run as Sequence
PSTATMODEL	IQUANT	53	Pstat Model
PSTATSECTION	LABEL	IFC5000-01520	Pstat Section
PSTATSERIALNO	LABEL	01520	Pstat Serial Number
CTRLMODE	IQUANT	0	Control Mode
ELECTROMETER	IQUANT	1	RE=0 or CS=1
IESTAB	IQUANT	0	I/E Stability
CASPEED	IQUANT	4	Control Amp Speed
CONVENTION	IQUANT	1	Current Convention
ICHRANGE	IQUANT	2	Ich Range
ICHRANGEMODE	TOGGLE	T	Ich Auto Range
ICHOFFSETENABLE	TOGGLE	F	Ich Offset Enable
ICHOFFSET	QUANT	0	Ich Offset (V)
ICHFILTER	IQUANT	1	Ich Filter
VCHRANGE	IQUANT	2	Vch Range
VCHRANGEMODE	TOGGLE	T	Vch Auto Range
VCHOFFSETENABLE	TOGGLE	F	Vch Offset Enable
VCHOFFSET	QUANT	0	Vch Offset (V)
VCHFILTER	IQUANT	1	Vch Filter
IERANGELOWERLIMIT	IQUANT	9	I/E Range Lower Limit
IERANGEMODE	TOGGLE	F	I/E AutoRange
IERANGE	IQUANT	9	I/E Range
ACHSELECT	IQUANT	1	Ach Select
ACHRANGE	IQUANT	2	Ach Range
ACHOFFSETENABLE	TOGGLE	F	Ach Offset Enable
ACHOFFSET	QUANT	0	Ach Offset (V)
ACHFILTER	IQUANT	1	Ach Filter
CABLEID	IQUANT	14	Cable ID
DCCALDATE	LABEL	5-7-2017	DC Calibration Date
ACCALDATE	LABEL	12/3/2015	AC Calibration Date
FRAMEWORKVERSION	QUANT	7.01	Framework Version
INSTRUMENTVERSION	LABEL	4.00	Instrument Version
CURVE	TABLE	86
	Pt	T	Vf	Im	Vu	Pwr	Sig	Ach	Temp	IERange	Over
	#	s	V	A	V	W	V	V	deg C	#	bits
	0	0.013333	8.45867E-001	-9.90604E-005	0.00000E+000	-8.37918E-005	-5.99601E-002	8.46204E-001	3.57990E+000	9	...........
	1	0.026667	8.31564E-001	-9.85061E-005	0.00000E+000	-8.19141E-005	-5.99601E-002	8.31882E-001	3.57990E+000	9	...........
	2	0.04	8.18079E-001	-9.84519E-005	0.00000E+000	-8.05414E-005	-5.99601E-002	8.18408E-001	3.57990E+000	9	...........
	3	0.053333	8.05161E-001	-9.91937E-005	0.00000E+000	-7.98670E-005	-5.99601E-002	8.05485E-001	3.57990E+000	9	...........
	4	0.066667	7.92639E-001	-9.91416E-005	0.00000E+000	-7.85836E-005	-5.99601E-002	7.92937E-001	3.57990E+000	9	...........
	5	0.08	7.80380E-001	-9.83352E-005	0.00000E+000	-7.67388E-005	-5.99601E-002	7.80675E-001	3.57990E+000	9	...........
	6	0.093333	7.68322E-001	-9.82883E-005	0.00000E+000	-7.55170E-005	-5.99601E-002	7.68631E-001	3.57990E+000	9	...........
	7	0.106667	7.56452E-001	-9.89749E-005	0.00000E+000	-7.48698E-005	-5.99601E-002	7.56731E-001	3.57990E+000	9	...........
	8	0.12	7.44670E-001	-9.88624E-005	0.00000E+000	-7.36199E-005	-5.99601E-002	7.44966E-001	3.57935E+000	9	...........
	9	0.133333	7.32954E-001	-9.82456E-005	0.00000E+000	-7.20095E-005	-5.99601E-002	7.33255E-001	3.57880E+000	9	...........
	10	0.146667	7.21352E-001	-9.89020E-005	0.00000E+000	-7.13431E-005	-5.99601E-002	7.21635E-001	3.57880E+000	9	...........
	11	0.16	7.09751E-001	-9.88749E-005	0.00000E+000	-7.01766E-005	-5.99601E-002	7.10046E-001	3.57880E+000	9	...........
	12	0.173333	6.98245E-001	-9.84206E-005	0.00000E+000	-6.87217E-005	-5.99601E-002	6.98520E-001	3.57880E+000	9	...........
	13	0.186667	6.86723E-001	-9.98730E-005	0.00000E+000	-6.85851E-005	-5.99601E-002	6.87024E-001	3.57880E+000	9	...........
	14	0.2	6.75277E-001	-9.83581E-005	0.00000E+000	-6.64190E-005	-5.99601E-002	6.75559E-001	3.57880E+000	9	...........
	15	0.213333	6.63818E-001	-9.77236E-005	0.00000E+000	-6.48707E-005	-5.99601E-002	6.64102E-001	3.57880E+000	9	...........
	16	0.226667	6.52389E-001	-9.85686E-005	0.00000E+000	-6.43050E-005	-5.99601E-002	6.52687E-001	3.57880E+000	9	...........
	17	0.24	6.40997E-001	-9.78455E-005	0.00000E+000	-6.27187E-005	-5.99601E-002	6.41274E-001	3.57880E+000	9	...........
	18	0.253333	6.29608E-001	-9.95928E-005	0.00000E+000	-6.27044E-005	-5.99601E-002	6.29887E-001	3.57880E+000	9	...........
	19	0.266667	6.18292E-001	-9.88072E-005	0.00000E+000	-6.10917E-005	-5.99601E-002	6.18531E-001	3.57880E+000	9	...........
	20	0.28	6.06906E-001	-9.87249E-005	0.00000E+000	-5.99167E-005	-5.99601E-002	6.07193E-001	3.57880E+000	9	...........
	21	0.293333	5.95638E-001	-9.81768E-005	0.00000E+000	-5.84778E-005	-5.99601E-002	5.95898E-001	3.57880E+000	9	...........
	22	0.306667	5.84357E-001	-9.85457E-005	0.00000E+000	-5.75859E-005	-5.99601E-002	5.84613E-001	3.57880E+000	9	...........
	23	0.32	5.73137E-001	-9.94938E-005	0.00000E+000	-5.70236E-005	-5.99601E-002	5.73362E-001	3.57880E+000	9	...........
	24	0.333333	5.61937E-001	-9.94115E-005	0.00000E+000	-5.58629E-005	-5.99601E-002	5.62167E-001	3.57880E+000	9	...........
	25	0.346667	5.50770E-001	-9.83623E-005	0.00000E+000	-5.41750E-005	-5.99601E-002	5.50994E-001	3.57880E+000	9	...........
	26	0.36	5.39663E-001	-9.87228E-005	0.00000E+000	-5.32771E-005	-5.99601E-002	5.39911E-001	3.57880E+000	9	...........
	27	0.373333	5.28573E-001	-9.87020E-005	0.00000E+000	-5.21712E-005	-5.99601E-002	5.28830E-001	3.57880E+000	9	...........
	28	0.386667	5.17595E-001	-9.89301E-005	0.00000E+000	-5.12058E-005	-5.99601E-002	5.17810E-001	3.57880E+000	9	...........
	29	0.4	5.06596E-001	-9.91916E-005	0.00000E+000	-5.02501E-005	-5.99601E-002	5.06844E-001	3.57880E+000	9	...........
	30	0.413333	4.95685E-001	-9.92010E-005	0.00000E+000	-4.91724E-005	-5.99601E-002	4.95946E-001	3.57880E+000	9	...........
	31	0.426667	4.85035E-001	-9.83654E-005	0.00000E+000	-4.77107E-005	-5.99601E-002	4.85183E-001	3.57880E+000	9	...........
	32	0.44	4.74439E-001	-9.84623E-005	0.00000E+000	-4.67144E-005	-5.99601E-002	4.74535E-001	3.57880E+000	9	...........
	33	0.453333	4.63726E-001	-9.89645E-005	0.00000E+000	-4.58924E-005	-5.99601E-002	4.63820E-001	3.57880E+000	9	...........
	34	0.466667	4.53082E-001	-9.91906E-005	0.00000E+000	-4.49415E-005	-5.99601E-002	4.53174E-001	3.57880E+000	9	...........
	35	0.48	4.42506E-001	-9.87176E-005	0.00000E+000	-4.36831E-005	-5.99601E-002	4.42595E-001	3.57880E+000	9	...........
	36	0.493333	4.31998E-001	-9.86332E-005	0.00000E+000	-4.26094E-005	-5.99601E-002	4.32086E-001	3.57880E+000	9	...........
	37	0.506667	4.21562E-001	-9.88124E-005	0.00000E+000	-4.16556E-005	-5.99601E-002	4.21647E-001	3.57880E+000	9	...........
	38	0.52	4.11209E-001	-9.96344E-005	0.00000E+000	-4.09706E-005	-5.99601E-002	4.11285E-001	3.57880E+000	9	...........
	39	0.533333	4.00922E-001	-9.85821E-005	0.00000E+000	-3.95237E-005	-5.99601E-002	4.00994E-001	3.57880E+000	9	...........
	40	0.546667	3.90701E-001	-9.81310E-005	0.00000E+000	-3.83398E-005	-5.99601E-002	3.90769E-001	3.57880E+000	9	...........
	41	0.56	3.80549E-001	-9.82487E-005	0.00000E+000	-3.73885E-005	-5.99601E-002	3.80619E-001	3.57880E+000	9	...........
	42	0.573333	3.70468E-001	-9.84581E-005	0.00000E+000	-3.64756E-005	-5.99601E-002	3.70537E-001	3.57880E+000	9	...........
	43	0.586667	3.60456E-001	-9.95292E-005	0.00000E+000	-3.58759E-005	-5.99601E-002	3.60525E-001	3.57880E+000	9	...........
	44	0.6	3.50514E-001	-9.95084E-005	0.00000E+000	-3.48791E-005	-5.99601E-002	3.50577E-001	3.57880E+000	9	...........
	45	0.613333	3.40629E-001	-9.83800E-005	0.00000E+000	-3.35111E-005	-5.99601E-002	3.40690E-001	3.57880E+000	9	...........
	46	0.626667	3.30807E-001	-9.89780E-005	0.00000E+000	-3.27426E-005	-5.99601E-002	3.30868E-001	3.57880E+000	9	...........
	47	0.64	3.21052E-001	-9.88572E-005	0.00000E+000	-3.17383E-005	-5.99601E-002	3.21110E-001	3.57880E+000	9	...........
	48	0.653333	3.11354E-001	-9.92302E-005	0.00000E+000	-3.08958E-005	-5.99601E-002	3.11405E-001	3.57880E+000	9	...........
	49	0.666667	3.01707E-001	-9.90239E-005	0.00000E+000	-2.98762E-005	-5.99601E-002	3.01761E-001	3.57880E+000	9	...........
	50	0.68	2.92115E-001	-9.85186E-005	0.00000E+000	-2.87787E-005	-5.99601E-002	2.92167E-001	3.57880E+000	9	...........
	51	0.693333	2.82583E-001	-9.90583E-005	0.00000E+000	-2.79922E-005	-5.99601E-002	2.82635E-001	3.57880E+000	9	...........
	52	0.706667	2.73103E-001	-9.85759E-005	0.00000E+000	-2.69214E-005	-5.99601E-002	2.73156E-001	3.57880E+000	9	...........
	53	0.72	2.63676E-001	-9.84665E-005	0.00000E+000	-2.59633E-005	-5.99601E-002	2.63726E-001	3.57880E+000	9	...........
	54	0.733333	2.54307E-001	-9.84123E-005	0.00000E+000	-2.50269E-005	-5.99601E-002	2.54355E-001	3.57880E+000	9	...........
	55	0.746667	2.44991E-001	-9.85592E-005	0.00000E+000	-2.41462E-005	-5.99601E-002	2.45024E-001	3.57880E+000	9	...........
	56	0.76	2.35722E-001	-9.88311E-005	0.00000E+000	-2.32966E-005	-5.99601E-002	2.35759E-001	3.57880E+000	9	...........
	57	0.773333	2.26508E-001	-9.88301E-005	0.00000E+000	-2.23858E-005	-5.99601E-002	2.26541E-001	3.57880E+000	9	...........
	58	0.786667	2.17352E-001	-9.88832E-005	0.00000E+000	-2.14925E-005	-5.99601E-002	2.17384E-001	3.57880E+000	9	...........
	59	0.8	2.08255E-001	-9.91322E-005	0.00000E+000	-2.06448E-005	-5.99601E-002	2.08281E-001	3.57880E+000	9	...........
	60	0.813333	1.99207E-001	-9.82925E-005	0.00000E+000	-1.95805E-005	-5.99601E-002	1.99238E-001	3.57880E+000	9	...........
	61	0.826667	1.90229E-001	-9.87572E-005	0.00000E+000	-1.87864E-005	-5.99601E-002	1.90253E-001	3.57880E+000	9	...........
	62	0.84	1.81307E-001	-9.92250E-005	0.00000E+000	-1.79902E-005	-5.99601E-002	1.81328E-001	3.57880E+000	9	...........
	63	0.853333	1.72444E-001	-9.87749E-005	0.00000E+000	-1.70331E-005	-5.99601E-002	1.72469E-001	3.57880E+000	9	...........
	64	0.866667	1.63652E-001	-9.78966E-005	0.00000E+000	-1.60210E-005	-5.99601E-002	1.63678E-001	3.57880E+000	9	...........
	65	0.88	1.54929E-001	-9.86603E-005	0.00000E+000	-1.52853E-005	-5.99601E-002	1.54953E-001	3.57880E+000	9	...........
	66	0.893333	1.46281E-001	-9.81893E-005	0.00000E+000	-1.43632E-005	-5.99601E-002	1.46307E-001	3.57880E+000	9	...........
	67	0.906667	1.37700E-001	-9.93500E-005	0.00000E+000	-1.36805E-005	-5.99601E-002	1.37721E-001	3.57880E+000	9	...........
	68	0.92	1.29199E-001	-9.82383E-005	0.00000E+000	-1.26923E-005	-5.99601E-002	1.29216E-001	3.57880E+000	9	...........
	69	0.933333	1.20773E-001	-9.85144E-005	0.00000E+000	-1.18979E-005	-5.99601E-002	1.20785E-001	3.57880E+000	9	...........
	70	0.946667	1.12421E-001	-9.92156E-005	0.00000E+000	-1.11539E-005	-5.99601E-002	1.12435E-001	3.57880E+000	9	...........
	71	0.96	1.04148E-001	-9.86571E-005	0.00000E+000	-1.02749E-005	-5.99601E-002	1.04155E-001	3.57880E+000	9	...........
	72	0.97333	9.59489E-002	-9.86186E-005	0.00000E+000	-9.46234E-006	-5.99601E-002	9.59528E-002	3.57880E+000	9	...........
	73	0.98667	8.78256E-002	-9.79956E-005	0.00000E+000	-8.60652E-006	-5.99601E-002	8.78242E-002	3.57880E+000	9	...........
	74	1	7.97781E-002	-9.87811E-005	0.00000E+000	-7.88057E-006	-5.99601E-002	7.97780E-002	3.57880E+000	9	...........
	75	1.01333	7.18092E-002	-9.88311E-005	0.00000E+000	-7.09699E-006	-5.99601E-002	7.18036E-002	3.57880E+000	9	...........
	76	1.02667	6.39080E-002	-9.91760E-005	0.00000E+000	-6.33814E-006	-5.99601E-002	6.38999E-002	3.57880E+000	9	...........
	77	1.04	5.60785E-002	-9.92552E-005	0.00000E+000	-5.56608E-006	-5.99601E-002	5.60698E-002	3.57880E+000	9	...........
	78	1.05333	4.83410E-002	-9.76048E-005	0.00000E+000	-4.71831E-006	-5.99601E-002	4.83256E-002	3.57880E+000	9	...........
	79	1.06667	4.06701E-002	-9.97949E-005	0.00000E+000	-4.05867E-006	-5.99601E-002	4.06612E-002	3.57880E+000	9	...........
	80	1.08	3.30584E-002	-9.86853E-005	0.00000E+000	-3.26238E-006	-5.99601E-002	3.30447E-002	3.57880E+000	9	...........
	81	1.09333	2.55040E-002	-9.97772E-005	0.00000E+000	-2.54472E-006	-5.99601E-002	2.54858E-002	3.57880E+000	9	...........
	82	1.10667	1.80267E-002	-9.85405E-005	0.00000E+000	-1.77636E-006	-5.99601E-002	1.80022E-002	3.57880E+000	9	...........
	83	1.12	1.06134E-002	-9.98616E-005	0.00000E+000	-1.05987E-006	-5.99601E-002	1.05855E-002	3.57885E+000	9	...........
	84	1.13333	3.26798E-003	-9.87207E-005	0.00000E+000	-3.22617E-007	-5.99601E-002	3.23418E-003	3.57890E+000	9	...........
	85	1.135	-8.35755E-004	-9.62931E-005	0.00000E+000	8.04775E-008	-5.99601E-002	-8.69547E-004	3.57890E+000	9	...........
STARTTIMEOFFSET	QUANT	2296.184	Start Time Offset (s)
