EXPLAIN
TAG	PWR800_DISCHARGE
TITLE	LABEL	PWR Cyclic Charge Discharge (Cell) - Discharge Step	Test &Identifier
DATE	LABEL	13-7-2017	Date
TIME	LABEL	15:18:43	Time
NOTES	NOTES	2	&Notes...
	supercap test cell
	6M KOH
PSTAT	PSTAT	IFC5000-01520	Potentiostat
CAPACITY	QUANT	1.00000E-003	Capacity (A-hr)
CELLTYPE	SELECTOR	1	&Cell Type
WORKINGCONNECTION	SELECTOR	0	&Working Lead
MAXDISCHARGETIME	VARIABLEANDUNITS	1.00000E+002	s	1.00000E+002	second(s)	Max &Discharge Time
DISCHARGEMODE	MULTIPARAM	0	1.00000E-004	&Discharge Mode	Constant Current	Amp(s)
SAMPLETIME	QUANT	1.00000E-002	Sa&mple Period (s)
DISCHARGESTOPAT1	MULTIPARAM	3	0.00000E+000	Discharge Stop At &1	Voltage < Limit	V
DISCHARGESTOPAT2	MULTIPARAM	0	0.00000E+000	Discharge Stop At &2	None	N/A
AESBHCSELECTOR	TOGGLE	F	Save Both Half Cells
IRCOMP	TOGGLE	F	IR &Measure
EOC	QUANT	0	Open Circuit (V)
SEQUENCER	TOGGLE	TRUE	Run as Sequence
PSTATMODEL	IQUANT	53	Pstat Model
PSTATSECTION	LABEL	IFC5000-01520	Pstat Section
PSTATSERIALNO	LABEL	01520	Pstat Serial Number
CTRLMODE	IQUANT	0	Control Mode
ELECTROMETER	IQUANT	1	RE=0 or CS=1
IESTAB	IQUANT	0	I/E Stability
CASPEED	IQUANT	4	Control Amp Speed
CONVENTION	IQUANT	1	Current Convention
ICHRANGE	IQUANT	2	Ich Range
ICHRANGEMODE	TOGGLE	T	Ich Auto Range
ICHOFFSETENABLE	TOGGLE	F	Ich Offset Enable
ICHOFFSET	QUANT	0	Ich Offset (V)
ICHFILTER	IQUANT	1	Ich Filter
VCHRANGE	IQUANT	2	Vch Range
VCHRANGEMODE	TOGGLE	T	Vch Auto Range
VCHOFFSETENABLE	TOGGLE	F	Vch Offset Enable
VCHOFFSET	QUANT	0	Vch Offset (V)
VCHFILTER	IQUANT	1	Vch Filter
IERANGELOWERLIMIT	IQUANT	9	I/E Range Lower Limit
IERANGEMODE	TOGGLE	F	I/E AutoRange
IERANGE	IQUANT	9	I/E Range
ACHSELECT	IQUANT	1	Ach Select
ACHRANGE	IQUANT	2	Ach Range
ACHOFFSETENABLE	TOGGLE	F	Ach Offset Enable
ACHOFFSET	QUANT	0	Ach Offset (V)
ACHFILTER	IQUANT	1	Ach Filter
CABLEID	IQUANT	14	Cable ID
DCCALDATE	LABEL	5-7-2017	DC Calibration Date
ACCALDATE	LABEL	12/3/2015	AC Calibration Date
FRAMEWORKVERSION	QUANT	7.01	Framework Version
INSTRUMENTVERSION	LABEL	4.00	Instrument Version
CURVE	TABLE	90
	Pt	T	Vf	Im	Vu	Pwr	Sig	Ach	Temp	IERange	Over
	#	s	V	A	V	W	V	V	deg C	#	bits
	0	0.013333	8.52451E-001	-9.89270E-005	0.00000E+000	-8.43305E-005	-5.99601E-002	8.52808E-001	3.57900E+000	9	...........
	1	0.026667	8.38819E-001	-9.98105E-005	0.00000E+000	-8.37229E-005	-5.99601E-002	8.39164E-001	3.57900E+000	9	...........
	2	0.04	8.26078E-001	-9.83550E-005	0.00000E+000	-8.12489E-005	-5.99601E-002	8.26366E-001	3.57900E+000	9	...........
	3	0.053333	8.13813E-001	-9.85207E-005	0.00000E+000	-8.01774E-005	-5.99601E-002	8.14122E-001	3.57900E+000	9	...........
	4	0.066667	8.02025E-001	-9.89364E-005	0.00000E+000	-7.93495E-005	-5.99601E-002	8.02315E-001	3.57900E+000	9	...........
	5	0.08	7.90476E-001	-9.87165E-005	0.00000E+000	-7.80331E-005	-5.99601E-002	7.90784E-001	3.57900E+000	9	...........
	6	0.093333	7.79166E-001	-9.90416E-005	0.00000E+000	-7.71698E-005	-5.99601E-002	7.79479E-001	3.57900E+000	9	...........
	7	0.106667	7.68020E-001	-9.88614E-005	0.00000E+000	-7.59275E-005	-5.99601E-002	7.68316E-001	3.57900E+000	9	...........
	8	0.12	7.56994E-001	-9.94792E-005	0.00000E+000	-7.53051E-005	-5.99601E-002	7.57312E-001	3.57900E+000	9	...........
	9	0.133333	7.46076E-001	-9.88426E-005	0.00000E+000	-7.37441E-005	-5.99601E-002	7.46391E-001	3.57900E+000	9	...........
	10	0.146667	7.35222E-001	-9.82310E-005	0.00000E+000	-7.22216E-005	-5.99601E-002	7.35518E-001	3.57900E+000	9	...........
	11	0.16	7.24450E-001	-9.89864E-005	0.00000E+000	-7.17107E-005	-5.99601E-002	7.24740E-001	3.57900E+000	9	...........
	12	0.173333	7.13675E-001	-9.96751E-005	0.00000E+000	-7.11356E-005	-5.99601E-002	7.13999E-001	3.57900E+000	9	...........
	13	0.186667	7.02975E-001	-9.92823E-005	0.00000E+000	-6.97930E-005	-5.99601E-002	7.03270E-001	3.57900E+000	9	...........
	14	0.2	6.92312E-001	-9.93240E-005	0.00000E+000	-6.87632E-005	-5.99601E-002	6.92599E-001	3.57900E+000	9	...........
	15	0.213333	6.81655E-001	-9.92614E-005	0.00000E+000	-6.76620E-005	-5.99601E-002	6.81947E-001	3.57900E+000	9	...........
	16	0.226667	6.71026E-001	-9.87957E-005	0.00000E+000	-6.62945E-005	-5.99601E-002	6.71280E-001	3.57900E+000	9	...........
	17	0.24	6.60366E-001	-9.91364E-005	0.00000E+000	-6.54663E-005	-5.99601E-002	6.60648E-001	3.57900E+000	9	...........
	18	0.253333	6.49765E-001	-9.84425E-005	0.00000E+000	-6.39645E-005	-5.99601E-002	6.50018E-001	3.57900E+000	9	...........
	19	0.266667	6.39171E-001	-9.94292E-005	0.00000E+000	-6.35523E-005	-5.99601E-002	6.39419E-001	3.57900E+000	9	...........
	20	0.28	6.28600E-001	-9.93625E-005	0.00000E+000	-6.24593E-005	-5.99601E-002	6.28821E-001	3.57900E+000	9	...........
	21	0.293333	6.18022E-001	-9.86426E-005	0.00000E+000	-6.09633E-005	-5.99601E-002	6.18248E-001	3.57900E+000	9	...........
	22	0.306667	6.07405E-001	-1.00490E-004	0.00000E+000	-6.10380E-005	-5.99601E-002	6.07681E-001	3.57900E+000	9	...........
	23	0.32	5.96880E-001	-9.92427E-005	0.00000E+000	-5.92359E-005	-5.99601E-002	5.97145E-001	3.57900E+000	9	...........
	24	0.333333	5.86353E-001	-9.88822E-005	0.00000E+000	-5.79799E-005	-5.99601E-002	5.86607E-001	3.57900E+000	9	...........
	25	0.346667	5.75831E-001	-9.94198E-005	0.00000E+000	-5.72490E-005	-5.99601E-002	5.76083E-001	3.57900E+000	9	...........
	26	0.36	5.65348E-001	-9.89218E-005	0.00000E+000	-5.59252E-005	-5.99601E-002	5.65601E-001	3.57900E+000	9	...........
	27	0.373333	5.54850E-001	-9.88926E-005	0.00000E+000	-5.48706E-005	-5.99601E-002	5.55099E-001	3.57900E+000	9	...........
	28	0.386667	5.44404E-001	-9.84519E-005	0.00000E+000	-5.35976E-005	-5.99601E-002	5.44654E-001	3.57900E+000	9	...........
	29	0.4	5.33974E-001	-9.86134E-005	0.00000E+000	-5.26570E-005	-5.99601E-002	5.34229E-001	3.57900E+000	9	...........
	30	0.413333	5.23585E-001	-9.81425E-005	0.00000E+000	-5.13859E-005	-5.99601E-002	5.23830E-001	3.57900E+000	9	...........
	31	0.426667	5.13215E-001	-9.87624E-005	0.00000E+000	-5.06863E-005	-5.99601E-002	5.13456E-001	3.57900E+000	9	...........
	32	0.44	5.02882E-001	-9.85853E-005	0.00000E+000	-4.95768E-005	-5.99601E-002	5.03131E-001	3.57900E+000	9	...........
	33	0.453333	4.92610E-001	-9.92750E-005	0.00000E+000	-4.89038E-005	-5.99601E-002	4.92843E-001	3.57900E+000	9	...........
	34	0.466667	4.82650E-001	-9.86415E-005	0.00000E+000	-4.76093E-005	-5.99601E-002	4.82751E-001	3.57900E+000	9	...........
	35	0.48	4.72541E-001	-9.87197E-005	0.00000E+000	-4.66491E-005	-5.99601E-002	4.72633E-001	3.57900E+000	9	...........
	36	0.493333	4.62389E-001	-9.84071E-005	0.00000E+000	-4.55024E-005	-5.99601E-002	4.62484E-001	3.57900E+000	9	...........
	37	0.506667	4.52301E-001	-9.81039E-005	0.00000E+000	-4.43725E-005	-5.99601E-002	4.52387E-001	3.57900E+000	9	...........
	38	0.52	4.42248E-001	-9.84300E-005	0.00000E+000	-4.35305E-005	-5.99601E-002	4.42342E-001	3.57900E+000	9	...........
	39	0.533333	4.32254E-001	-9.81414E-005	0.00000E+000	-4.24220E-005	-5.99601E-002	4.32347E-001	3.57900E+000	9	...........
	40	0.546667	4.22308E-001	-9.96542E-005	0.00000E+000	-4.20848E-005	-5.99601E-002	4.22397E-001	3.57900E+000	9	...........
	41	0.56	4.12422E-001	-9.80935E-005	0.00000E+000	-4.04559E-005	-5.99601E-002	4.12502E-001	3.57900E+000	9	...........
	42	0.573333	4.02585E-001	-9.92646E-005	0.00000E+000	-3.99624E-005	-5.99601E-002	4.02663E-001	3.57900E+000	9	...........
	43	0.586667	3.92801E-001	-9.90176E-005	0.00000E+000	-3.88942E-005	-5.99601E-002	3.92877E-001	3.57900E+000	9	...........
	44	0.6	3.83076E-001	-9.96178E-005	0.00000E+000	-3.81611E-005	-5.99601E-002	3.83140E-001	3.57900E+000	9	...........
	45	0.613333	3.73395E-001	-9.96699E-005	0.00000E+000	-3.72163E-005	-5.99601E-002	3.73467E-001	3.57900E+000	9	...........
	46	0.626667	3.63782E-001	-9.94479E-005	0.00000E+000	-3.61774E-005	-5.99601E-002	3.63844E-001	3.57900E+000	9	...........
	47	0.64	3.54212E-001	-9.77465E-005	0.00000E+000	-3.46230E-005	-5.99601E-002	3.54275E-001	3.57900E+000	9	...........
	48	0.653333	3.44692E-001	-9.91520E-005	0.00000E+000	-3.41769E-005	-5.99601E-002	3.44760E-001	3.57900E+000	9	...........
	49	0.666667	3.35219E-001	-9.89999E-005	0.00000E+000	-3.31867E-005	-5.99601E-002	3.35283E-001	3.57900E+000	9	...........
	50	0.68	3.25799E-001	-9.87457E-005	0.00000E+000	-3.21713E-005	-5.99601E-002	3.25862E-001	3.57900E+000	9	...........
	51	0.693333	3.16427E-001	-9.83727E-005	0.00000E+000	-3.11278E-005	-5.99601E-002	3.16485E-001	3.57900E+000	9	...........
	52	0.706667	3.07092E-001	-9.88270E-005	0.00000E+000	-3.03490E-005	-5.99601E-002	3.07152E-001	3.57900E+000	9	...........
	53	0.72	2.97811E-001	-9.95104E-005	0.00000E+000	-2.96353E-005	-5.99601E-002	2.97869E-001	3.57900E+000	9	...........
	54	0.733333	2.88572E-001	-9.95438E-005	0.00000E+000	-2.87256E-005	-5.99601E-002	2.88629E-001	3.57900E+000	9	...........
	55	0.746667	2.79374E-001	-9.86936E-005	0.00000E+000	-2.75725E-005	-5.99601E-002	2.79431E-001	3.57900E+000	9	...........
	56	0.76	2.70217E-001	-9.92823E-005	0.00000E+000	-2.68278E-005	-5.99601E-002	2.70270E-001	3.57900E+000	9	...........
	57	0.773333	2.61102E-001	-9.84811E-005	0.00000E+000	-2.57136E-005	-5.99601E-002	2.61153E-001	3.57900E+000	9	...........
	58	0.786667	2.52025E-001	-9.96636E-005	0.00000E+000	-2.51178E-005	-5.99601E-002	2.52080E-001	3.57900E+000	9	...........
	59	0.8	2.43006E-001	-9.87468E-005	0.00000E+000	-2.39961E-005	-5.99601E-002	2.43050E-001	3.57900E+000	9	...........
	60	0.813333	2.34017E-001	-9.95073E-005	0.00000E+000	-2.32864E-005	-5.99601E-002	2.34057E-001	3.57900E+000	9	...........
	61	0.826667	2.25067E-001	-9.84373E-005	0.00000E+000	-2.21550E-005	-5.99601E-002	2.25107E-001	3.57900E+000	9	...........
	62	0.84	2.16162E-001	-1.00281E-004	0.00000E+000	-2.16770E-005	-5.99601E-002	2.16197E-001	3.57900E+000	9	...........
	63	0.853333	2.07307E-001	-9.86238E-005	0.00000E+000	-2.04454E-005	-5.99601E-002	2.07334E-001	3.57900E+000	9	...........
	64	0.866667	1.98491E-001	-9.87499E-005	0.00000E+000	-1.96010E-005	-5.99601E-002	1.98519E-001	3.57900E+000	9	...........
	65	0.88	1.89718E-001	-9.91552E-005	0.00000E+000	-1.88115E-005	-5.99601E-002	1.89750E-001	3.57900E+000	9	...........
	66	0.893333	1.80997E-001	-9.84613E-005	0.00000E+000	-1.78212E-005	-5.99601E-002	1.81025E-001	3.57900E+000	9	...........
	67	0.906667	1.72324E-001	-9.91552E-005	0.00000E+000	-1.70868E-005	-5.99601E-002	1.72350E-001	3.57900E+000	9	...........
	68	0.92	1.63708E-001	-9.84602E-005	0.00000E+000	-1.61187E-005	-5.99601E-002	1.63735E-001	3.57900E+000	9	...........
	69	0.933333	1.55144E-001	-9.96574E-005	0.00000E+000	-1.54613E-005	-5.99601E-002	1.55164E-001	3.57900E+000	9	...........
	70	0.946667	1.46646E-001	-9.83685E-005	0.00000E+000	-1.44253E-005	-5.99601E-002	1.46666E-001	3.57900E+000	9	...........
	71	0.96	1.38203E-001	-9.93979E-005	0.00000E+000	-1.37371E-005	-5.99601E-002	1.38221E-001	3.57900E+000	9	...........
	72	0.97333	1.29820E-001	-9.88155E-005	0.00000E+000	-1.28283E-005	-5.99601E-002	1.29840E-001	3.57900E+000	9	...........
	73	0.98667	1.21504E-001	-9.84581E-005	0.00000E+000	-1.19631E-005	-5.99601E-002	1.21524E-001	3.57900E+000	9	...........
	74	1	1.13260E-001	-9.85259E-005	0.00000E+000	-1.11590E-005	-5.99601E-002	1.13272E-001	3.57900E+000	9	...........
	75	1.01333	1.05083E-001	-9.84717E-005	0.00000E+000	-1.03477E-005	-5.99601E-002	1.05095E-001	3.57900E+000	9	...........
	76	1.02667	9.69741E-002	-9.89583E-005	0.00000E+000	-9.59638E-006	-5.99601E-002	9.69802E-002	3.57900E+000	9	...........
	77	1.04	8.89279E-002	-9.95157E-005	0.00000E+000	-8.84972E-006	-5.99601E-002	8.89332E-002	3.57900E+000	9	...........
	78	1.05333	8.09551E-002	-9.92635E-005	0.00000E+000	-8.03589E-006	-5.99601E-002	8.09599E-002	3.57900E+000	9	...........
	79	1.06667	7.30447E-002	-9.84738E-005	0.00000E+000	-7.19298E-006	-5.99601E-002	7.30453E-002	3.57900E+000	9	...........
	80	1.08	6.52094E-002	-9.94875E-005	0.00000E+000	-6.48752E-006	-5.99601E-002	6.52024E-002	3.57900E+000	9	...........
	81	1.09333	5.74324E-002	-9.90166E-005	0.00000E+000	-5.68676E-006	-5.99601E-002	5.74299E-002	3.57900E+000	9	...........
	82	1.10667	4.97391E-002	-9.87947E-005	0.00000E+000	-4.91396E-006	-5.99601E-002	4.97316E-002	3.57900E+000	9	...........
	83	1.12	4.21243E-002	-9.81675E-005	0.00000E+000	-4.13524E-006	-5.99601E-002	4.21198E-002	3.57900E+000	9	...........
	84	1.13333	3.45491E-002	-9.86519E-005	0.00000E+000	-3.40834E-006	-5.99601E-002	3.45353E-002	3.57900E+000	9	...........
	85	1.14667	2.70329E-002	-9.95782E-005	0.00000E+000	-2.69189E-006	-5.99601E-002	2.70180E-002	3.57900E+000	9	...........
	86	1.16	1.95869E-002	-9.82769E-005	0.00000E+000	-1.92494E-006	-5.99601E-002	1.95659E-002	3.57900E+000	9	...........
	87	1.17333	1.22038E-002	-9.93302E-005	0.00000E+000	-1.21221E-006	-5.99601E-002	1.21737E-002	3.57900E+000	9	...........
	88	1.18667	4.87728E-003	-9.92354E-005	0.00000E+000	-4.83999E-007	-5.99601E-002	4.84932E-003	3.57900E+000	9	...........
	89	1.19	3.33934E-004	-1.00732E-004	0.00000E+000	-3.36376E-008	-5.99601E-002	2.95230E-004	3.57900E+000	9	...........
STARTTIMEOFFSET	QUANT	755.9694	Start Time Offset (s)
