EXPLAIN
TAG	PWR800_DISCHARGE
TITLE	LABEL	PWR Cyclic Charge Discharge (Cell) - Discharge Step	Test &Identifier
DATE	LABEL	13-7-2017	Date
TIME	LABEL	15:42:52	Time
NOTES	NOTES	2	&Notes...
	supercap test cell
	6M KOH
PSTAT	PSTAT	IFC5000-01520	Potentiostat
CAPACITY	QUANT	1.00000E-003	Capacity (A-hr)
CELLTYPE	SELECTOR	1	&Cell Type
WORKINGCONNECTION	SELECTOR	0	&Working Lead
MAXDISCHARGETIME	VARIABLEANDUNITS	1.00000E+002	s	1.00000E+002	second(s)	Max &Discharge Time
DISCHARGEMODE	MULTIPARAM	0	1.00000E-004	&Discharge Mode	Constant Current	Amp(s)
SAMPLETIME	QUANT	1.00000E-002	Sa&mple Period (s)
DISCHARGESTOPAT1	MULTIPARAM	3	0.00000E+000	Discharge Stop At &1	Voltage < Limit	V
DISCHARGESTOPAT2	MULTIPARAM	0	0.00000E+000	Discharge Stop At &2	None	N/A
AESBHCSELECTOR	TOGGLE	F	Save Both Half Cells
IRCOMP	TOGGLE	F	IR &Measure
EOC	QUANT	0	Open Circuit (V)
SEQUENCER	TOGGLE	TRUE	Run as Sequence
PSTATMODEL	IQUANT	53	Pstat Model
PSTATSECTION	LABEL	IFC5000-01520	Pstat Section
PSTATSERIALNO	LABEL	01520	Pstat Serial Number
CTRLMODE	IQUANT	0	Control Mode
ELECTROMETER	IQUANT	1	RE=0 or CS=1
IESTAB	IQUANT	0	I/E Stability
CASPEED	IQUANT	4	Control Amp Speed
CONVENTION	IQUANT	1	Current Convention
ICHRANGE	IQUANT	2	Ich Range
ICHRANGEMODE	TOGGLE	T	Ich Auto Range
ICHOFFSETENABLE	TOGGLE	F	Ich Offset Enable
ICHOFFSET	QUANT	0	Ich Offset (V)
ICHFILTER	IQUANT	1	Ich Filter
VCHRANGE	IQUANT	2	Vch Range
VCHRANGEMODE	TOGGLE	T	Vch Auto Range
VCHOFFSETENABLE	TOGGLE	F	Vch Offset Enable
VCHOFFSET	QUANT	0	Vch Offset (V)
VCHFILTER	IQUANT	1	Vch Filter
IERANGELOWERLIMIT	IQUANT	9	I/E Range Lower Limit
IERANGEMODE	TOGGLE	F	I/E AutoRange
IERANGE	IQUANT	9	I/E Range
ACHSELECT	IQUANT	1	Ach Select
ACHRANGE	IQUANT	2	Ach Range
ACHOFFSETENABLE	TOGGLE	F	Ach Offset Enable
ACHOFFSET	QUANT	0	Ach Offset (V)
ACHFILTER	IQUANT	1	Ach Filter
CABLEID	IQUANT	14	Cable ID
DCCALDATE	LABEL	5-7-2017	DC Calibration Date
ACCALDATE	LABEL	12/3/2015	AC Calibration Date
FRAMEWORKVERSION	QUANT	7.01	Framework Version
INSTRUMENTVERSION	LABEL	4.00	Instrument Version
CURVE	TABLE	86
	Pt	T	Vf	Im	Vu	Pwr	Sig	Ach	Temp	IERange	Over
	#	s	V	A	V	W	V	V	deg C	#	bits
	0	0.013333	8.46139E-001	-9.87509E-005	0.00000E+000	-8.35570E-005	-5.99601E-002	8.46462E-001	3.57885E+000	9	...........
	1	0.026667	8.31866E-001	-9.88822E-005	0.00000E+000	-8.22568E-005	-5.99601E-002	8.32176E-001	3.57850E+000	9	...........
	2	0.04	8.18456E-001	-9.85175E-005	0.00000E+000	-8.06323E-005	-5.99601E-002	8.18758E-001	3.57850E+000	9	...........
	3	0.053333	8.05619E-001	-9.87572E-005	0.00000E+000	-7.95607E-005	-5.99601E-002	8.05895E-001	3.57850E+000	9	...........
	4	0.066667	7.93203E-001	-9.82623E-005	0.00000E+000	-7.79420E-005	-5.99601E-002	7.93445E-001	3.57850E+000	9	...........
	5	0.08	7.81023E-001	-9.95834E-005	0.00000E+000	-7.77769E-005	-5.99601E-002	7.81282E-001	3.57850E+000	9	...........
	6	0.093333	7.69083E-001	-9.85352E-005	0.00000E+000	-7.57818E-005	-5.99601E-002	7.69370E-001	3.57850E+000	9	...........
	7	0.106667	7.57323E-001	-9.96063E-005	0.00000E+000	-7.54341E-005	-5.99601E-002	7.57586E-001	3.57850E+000	9	...........
	8	0.12	7.45668E-001	-9.86665E-005	0.00000E+000	-7.35725E-005	-5.99601E-002	7.45926E-001	3.57850E+000	9	...........
	9	0.133333	7.34084E-001	-9.81268E-005	0.00000E+000	-7.20333E-005	-5.99601E-002	7.34366E-001	3.57850E+000	9	...........
	10	0.146667	7.22623E-001	-9.87249E-005	0.00000E+000	-7.13409E-005	-5.99601E-002	7.22896E-001	3.57850E+000	9	...........
	11	0.16	7.11156E-001	-9.88228E-005	0.00000E+000	-7.02784E-005	-5.99601E-002	7.11436E-001	3.57850E+000	9	...........
	12	0.173333	6.99776E-001	-9.96126E-005	0.00000E+000	-6.97065E-005	-5.99601E-002	7.00037E-001	3.57850E+000	9	...........
	13	0.186667	6.88438E-001	-9.77195E-005	0.00000E+000	-6.72738E-005	-5.99601E-002	6.88685E-001	3.57850E+000	9	...........
	14	0.2	6.77122E-001	-9.81498E-005	0.00000E+000	-6.64593E-005	-5.99601E-002	6.77379E-001	3.57850E+000	9	...........
	15	0.213333	6.65804E-001	-9.79341E-005	0.00000E+000	-6.52049E-005	-5.99601E-002	6.66102E-001	3.57850E+000	9	...........
	16	0.226667	6.54561E-001	-9.91666E-005	0.00000E+000	-6.49106E-005	-5.99601E-002	6.54803E-001	3.57850E+000	9	...........
	17	0.24	6.43305E-001	-1.00188E-004	0.00000E+000	-6.44513E-005	-5.99601E-002	6.43559E-001	3.57850E+000	9	...........
	18	0.253333	6.32064E-001	-9.87374E-005	0.00000E+000	-6.24083E-005	-5.99601E-002	6.32342E-001	3.57850E+000	9	...........
	19	0.266667	6.20903E-001	-9.95521E-005	0.00000E+000	-6.18123E-005	-5.99601E-002	6.21166E-001	3.57850E+000	9	...........
	20	0.28	6.09687E-001	-9.87030E-005	0.00000E+000	-6.01779E-005	-5.99601E-002	6.09987E-001	3.57850E+000	9	...........
	21	0.293333	5.98550E-001	-9.87259E-005	0.00000E+000	-5.90924E-005	-5.99601E-002	5.98828E-001	3.57850E+000	9	...........
	22	0.306667	5.87415E-001	-9.85936E-005	0.00000E+000	-5.79153E-005	-5.99601E-002	5.87705E-001	3.57850E+000	9	...........
	23	0.32	5.76352E-001	-9.88291E-005	0.00000E+000	-5.69603E-005	-5.99601E-002	5.76601E-001	3.57850E+000	9	...........
	24	0.333333	5.65294E-001	-9.91468E-005	0.00000E+000	-5.60471E-005	-5.99601E-002	5.65571E-001	3.57850E+000	9	...........
	25	0.346667	5.54268E-001	-9.90364E-005	0.00000E+000	-5.48927E-005	-5.99601E-002	5.54527E-001	3.57850E+000	9	...........
	26	0.36	5.43301E-001	-9.86644E-005	0.00000E+000	-5.36045E-005	-5.99601E-002	5.43537E-001	3.57850E+000	9	...........
	27	0.373333	5.32351E-001	-9.92062E-005	0.00000E+000	-5.28125E-005	-5.99601E-002	5.32577E-001	3.57850E+000	9	...........
	28	0.386667	5.21483E-001	-9.90614E-005	0.00000E+000	-5.16588E-005	-5.99601E-002	5.21705E-001	3.57850E+000	9	...........
	29	0.4	5.10635E-001	-9.84311E-005	0.00000E+000	-5.02624E-005	-5.99601E-002	5.10871E-001	3.57850E+000	9	...........
	30	0.413333	4.99836E-001	-9.85300E-005	0.00000E+000	-4.92489E-005	-5.99601E-002	5.00076E-001	3.57850E+000	9	...........
	31	0.426667	4.89128E-001	-9.84446E-005	0.00000E+000	-4.81521E-005	-5.99601E-002	4.89350E-001	3.57850E+000	9	...........
	32	0.44	4.78815E-001	-9.83039E-005	0.00000E+000	-4.70694E-005	-5.99601E-002	4.78911E-001	3.57850E+000	9	...........
	33	0.453333	4.68204E-001	-9.93260E-005	0.00000E+000	-4.65049E-005	-5.99601E-002	4.68301E-001	3.57850E+000	9	...........
	34	0.466667	4.57661E-001	-9.92083E-005	0.00000E+000	-4.54038E-005	-5.99601E-002	4.57755E-001	3.57850E+000	9	...........
	35	0.48	4.47184E-001	-9.92177E-005	0.00000E+000	-4.43686E-005	-5.99601E-002	4.47274E-001	3.57850E+000	9	...........
	36	0.493333	4.36774E-001	-9.96969E-005	0.00000E+000	-4.35450E-005	-5.99601E-002	4.36866E-001	3.57850E+000	9	...........
	37	0.506667	4.26442E-001	-9.86644E-005	0.00000E+000	-4.20747E-005	-5.99601E-002	4.26523E-001	3.57850E+000	9	...........
	38	0.52	4.16165E-001	-9.93542E-005	0.00000E+000	-4.13477E-005	-5.99601E-002	4.16249E-001	3.57850E+000	9	...........
	39	0.533333	4.05966E-001	-9.83956E-005	0.00000E+000	-3.99453E-005	-5.99601E-002	4.06043E-001	3.57850E+000	9	...........
	40	0.546667	3.95824E-001	-9.93448E-005	0.00000E+000	-3.93231E-005	-5.99601E-002	3.95902E-001	3.57850E+000	9	...........
	41	0.56	3.85749E-001	-9.83227E-005	0.00000E+000	-3.79279E-005	-5.99601E-002	3.85821E-001	3.57850E+000	9	...........
	42	0.573333	3.75737E-001	-9.94146E-005	0.00000E+000	-3.73538E-005	-5.99601E-002	3.75809E-001	3.57850E+000	9	...........
	43	0.586667	3.65791E-001	-9.79164E-005	0.00000E+000	-3.58170E-005	-5.99601E-002	3.65868E-001	3.57850E+000	9	...........
	44	0.6	3.55916E-001	-9.98209E-005	0.00000E+000	-3.55278E-005	-5.99601E-002	3.55977E-001	3.57850E+000	9	...........
	45	0.613333	3.46098E-001	-9.87634E-005	0.00000E+000	-3.41818E-005	-5.99601E-002	3.46158E-001	3.57850E+000	9	...........
	46	0.626667	3.36340E-001	-9.83581E-005	0.00000E+000	-3.30817E-005	-5.99601E-002	3.36397E-001	3.57850E+000	9	...........
	47	0.64	3.26638E-001	-9.92646E-005	0.00000E+000	-3.24236E-005	-5.99601E-002	3.26694E-001	3.57850E+000	9	...........
	48	0.653333	3.16999E-001	-9.86498E-005	0.00000E+000	-3.12719E-005	-5.99601E-002	3.17057E-001	3.57850E+000	9	...........
	49	0.666667	3.07413E-001	-9.94167E-005	0.00000E+000	-3.05620E-005	-5.99601E-002	3.07469E-001	3.57850E+000	9	...........
	50	0.68	2.97883E-001	-9.94917E-005	0.00000E+000	-2.96369E-005	-5.99601E-002	2.97932E-001	3.57850E+000	9	...........
	51	0.693333	2.88403E-001	-9.89260E-005	0.00000E+000	-2.85306E-005	-5.99601E-002	2.88455E-001	3.57850E+000	9	...........
	52	0.706667	2.78980E-001	-9.87530E-005	0.00000E+000	-2.75501E-005	-5.99601E-002	2.79030E-001	3.57850E+000	9	...........
	53	0.72	2.69603E-001	-9.83279E-005	0.00000E+000	-2.65095E-005	-5.99601E-002	2.69649E-001	3.57850E+000	9	...........
	54	0.733333	2.60275E-001	-9.93177E-005	0.00000E+000	-2.58499E-005	-5.99601E-002	2.60329E-001	3.57850E+000	9	...........
	55	0.746667	2.51008E-001	-9.93802E-005	0.00000E+000	-2.49453E-005	-5.99601E-002	2.51052E-001	3.57850E+000	9	...........
	56	0.76	2.41788E-001	-9.89989E-005	0.00000E+000	-2.39368E-005	-5.99601E-002	2.41828E-001	3.57850E+000	9	...........
	57	0.773333	2.32620E-001	-9.94094E-005	0.00000E+000	-2.31246E-005	-5.99601E-002	2.32653E-001	3.57850E+000	9	...........
	58	0.786667	2.23491E-001	-9.79247E-005	0.00000E+000	-2.18853E-005	-5.99601E-002	2.23532E-001	3.57850E+000	9	...........
	59	0.8	2.14421E-001	-9.83717E-005	0.00000E+000	-2.10930E-005	-5.99601E-002	2.14452E-001	3.57850E+000	9	...........
	60	0.813333	2.05395E-001	-9.94146E-005	0.00000E+000	-2.04193E-005	-5.99601E-002	2.05430E-001	3.57850E+000	9	...........
	61	0.826667	1.96438E-001	-9.77236E-005	0.00000E+000	-1.91967E-005	-5.99601E-002	1.96471E-001	3.57850E+000	9	...........
	62	0.84	1.87541E-001	-9.84394E-005	0.00000E+000	-1.84614E-005	-5.99601E-002	1.87560E-001	3.57850E+000	9	...........
	63	0.853333	1.78697E-001	-9.84717E-005	0.00000E+000	-1.75966E-005	-5.99601E-002	1.78721E-001	3.57850E+000	9	...........
	64	0.866667	1.69916E-001	-9.82789E-005	0.00000E+000	-1.66992E-005	-5.99601E-002	1.69941E-001	3.57850E+000	9	...........
	65	0.88	1.61211E-001	-9.86457E-005	0.00000E+000	-1.59028E-005	-5.99601E-002	1.61224E-001	3.57850E+000	9	...........
	66	0.893333	1.52566E-001	-9.92239E-005	0.00000E+000	-1.51382E-005	-5.99601E-002	1.52575E-001	3.57850E+000	9	...........
	67	0.906667	1.43990E-001	-9.91052E-005	0.00000E+000	-1.42701E-005	-5.99601E-002	1.44005E-001	3.57850E+000	9	...........
	68	0.92	1.35492E-001	-9.83248E-005	0.00000E+000	-1.33223E-005	-5.99601E-002	1.35504E-001	3.57850E+000	9	...........
	69	0.933333	1.27069E-001	-9.83779E-005	0.00000E+000	-1.25008E-005	-5.99601E-002	1.27082E-001	3.57850E+000	9	...........
	70	0.946667	1.18718E-001	-9.83342E-005	0.00000E+000	-1.16741E-005	-5.99601E-002	1.18733E-001	3.57850E+000	9	...........
	71	0.96	1.10440E-001	-9.89635E-005	0.00000E+000	-1.09295E-005	-5.99601E-002	1.10449E-001	3.57850E+000	9	...........
	72	0.97333	1.02240E-001	-9.93344E-005	0.00000E+000	-1.01560E-005	-5.99601E-002	1.02248E-001	3.57850E+000	9	...........
	73	0.98667	9.41148E-002	-9.87697E-005	0.00000E+000	-9.29568E-006	-5.99601E-002	9.41185E-002	3.57850E+000	9	...........
	74	1	8.60607E-002	-9.87207E-005	0.00000E+000	-8.49597E-006	-5.99601E-002	8.60655E-002	3.57850E+000	9	...........
	75	1.01333	7.80853E-002	-9.94417E-005	0.00000E+000	-7.76494E-006	-5.99601E-002	7.80841E-002	3.57850E+000	9	...........
	76	1.02667	7.01831E-002	-9.80268E-005	0.00000E+000	-6.87983E-006	-5.99601E-002	7.01841E-002	3.57850E+000	9	...........
	77	1.04	6.23540E-002	-9.86311E-005	0.00000E+000	-6.15004E-006	-5.99601E-002	6.23474E-002	3.57850E+000	9	...........
	78	1.05333	5.45876E-002	-9.87749E-005	0.00000E+000	-5.39188E-006	-5.99601E-002	5.45811E-002	3.57850E+000	9	...........
	79	1.06667	4.69172E-002	-9.88905E-005	0.00000E+000	-4.63967E-006	-5.99601E-002	4.69071E-002	3.57850E+000	9	...........
	80	1.08	3.93078E-002	-9.87186E-005	0.00000E+000	-3.88041E-006	-5.99601E-002	3.92925E-002	3.57850E+000	9	...........
	81	1.09333	3.17470E-002	-9.83206E-005	0.00000E+000	-3.12138E-006	-5.99601E-002	3.17286E-002	3.57850E+000	9	...........
	82	1.10667	2.42484E-002	-9.90718E-005	0.00000E+000	-2.40234E-006	-5.99601E-002	2.42337E-002	3.57850E+000	9	...........
	83	1.12	1.68249E-002	-9.93479E-005	0.00000E+000	-1.67152E-006	-5.99601E-002	1.68005E-002	3.57850E+000	9	...........
	84	1.13333	9.46217E-003	-9.89864E-005	0.00000E+000	-9.36626E-007	-5.99601E-002	9.43624E-003	3.57850E+000	9	...........
	85	1.145	2.62379E-003	-9.93247E-005	0.00000E+000	-2.60607E-007	-5.99601E-002	2.59326E-003	3.57850E+000	9	...........
STARTTIMEOFFSET	QUANT	1846.117	Start Time Offset (s)
