EXPLAIN
TAG	PWR800_DISCHARGE
TITLE	LABEL	PWR Cyclic Charge Discharge (Cell) - Discharge Step	Test &Identifier
DATE	LABEL	13-7-2017	Date
TIME	LABEL	15:52:09	Time
NOTES	NOTES	2	&Notes...
	supercap test cell
	6M KOH
PSTAT	PSTAT	IFC5000-01520	Potentiostat
CAPACITY	QUANT	1.00000E-003	Capacity (A-hr)
CELLTYPE	SELECTOR	1	&Cell Type
WORKINGCONNECTION	SELECTOR	0	&Working Lead
MAXDISCHARGETIME	VARIABLEANDUNITS	1.00000E+002	s	1.00000E+002	second(s)	Max &Discharge Time
DISCHARGEMODE	MULTIPARAM	0	1.00000E-004	&Discharge Mode	Constant Current	Amp(s)
SAMPLETIME	QUANT	1.00000E-002	Sa&mple Period (s)
DISCHARGESTOPAT1	MULTIPARAM	3	0.00000E+000	Discharge Stop At &1	Voltage < Limit	V
DISCHARGESTOPAT2	MULTIPARAM	0	0.00000E+000	Discharge Stop At &2	None	N/A
AESBHCSELECTOR	TOGGLE	F	Save Both Half Cells
IRCOMP	TOGGLE	F	IR &Measure
EOC	QUANT	0	Open Circuit (V)
SEQUENCER	TOGGLE	TRUE	Run as Sequence
PSTATMODEL	IQUANT	53	Pstat Model
PSTATSECTION	LABEL	IFC5000-01520	Pstat Section
PSTATSERIALNO	LABEL	01520	Pstat Serial Number
CTRLMODE	IQUANT	0	Control Mode
ELECTROMETER	IQUANT	1	RE=0 or CS=1
IESTAB	IQUANT	0	I/E Stability
CASPEED	IQUANT	4	Control Amp Speed
CONVENTION	IQUANT	1	Current Convention
ICHRANGE	IQUANT	2	Ich Range
ICHRANGEMODE	TOGGLE	T	Ich Auto Range
ICHOFFSETENABLE	TOGGLE	F	Ich Offset Enable
ICHOFFSET	QUANT	0	Ich Offset (V)
ICHFILTER	IQUANT	1	Ich Filter
VCHRANGE	IQUANT	2	Vch Range
VCHRANGEMODE	TOGGLE	T	Vch Auto Range
VCHOFFSETENABLE	TOGGLE	F	Vch Offset Enable
VCHOFFSET	QUANT	0	Vch Offset (V)
VCHFILTER	IQUANT	1	Vch Filter
IERANGELOWERLIMIT	IQUANT	9	I/E Range Lower Limit
IERANGEMODE	TOGGLE	F	I/E AutoRange
IERANGE	IQUANT	9	I/E Range
ACHSELECT	IQUANT	1	Ach Select
ACHRANGE	IQUANT	2	Ach Range
ACHOFFSETENABLE	TOGGLE	F	Ach Offset Enable
ACHOFFSET	QUANT	0	Ach Offset (V)
ACHFILTER	IQUANT	1	Ach Filter
CABLEID	IQUANT	14	Cable ID
DCCALDATE	LABEL	5-7-2017	DC Calibration Date
ACCALDATE	LABEL	12/3/2015	AC Calibration Date
FRAMEWORKVERSION	QUANT	7.01	Framework Version
INSTRUMENTVERSION	LABEL	4.00	Instrument Version
CURVE	TABLE	86
	Pt	T	Vf	Im	Vu	Pwr	Sig	Ach	Temp	IERange	Over
	#	s	V	A	V	W	V	V	deg C	#	bits
	0	0.013333	8.45905E-001	-9.80403E-005	0.00000E+000	-8.29328E-005	-5.99601E-002	8.46216E-001	3.58000E+000	9	...........
	1	0.026667	8.31620E-001	-9.79518E-005	0.00000E+000	-8.14587E-005	-5.99601E-002	8.31947E-001	3.58000E+000	9	...........
	2	0.04	8.18179E-001	-9.92927E-005	0.00000E+000	-8.12392E-005	-5.99601E-002	8.18495E-001	3.58000E+000	9	...........
	3	0.053333	8.05270E-001	-9.85488E-005	0.00000E+000	-7.93584E-005	-5.99601E-002	8.05582E-001	3.58000E+000	9	...........
	4	0.066667	7.92774E-001	-9.82289E-005	0.00000E+000	-7.78734E-005	-5.99601E-002	7.93071E-001	3.58000E+000	9	...........
	5	0.08	7.80541E-001	-9.78309E-005	0.00000E+000	-7.63611E-005	-5.99601E-002	7.80829E-001	3.58000E+000	9	...........
	6	0.093333	7.68519E-001	-9.86540E-005	0.00000E+000	-7.58175E-005	-5.99601E-002	7.68802E-001	3.58000E+000	9	...........
	7	0.106667	7.56644E-001	-9.85227E-005	0.00000E+000	-7.45466E-005	-5.99601E-002	7.56922E-001	3.58000E+000	9	...........
	8	0.12	7.44868E-001	-9.92104E-005	0.00000E+000	-7.38986E-005	-5.99601E-002	7.45168E-001	3.58000E+000	9	...........
	9	0.133333	7.33184E-001	-9.91885E-005	0.00000E+000	-7.27234E-005	-5.99601E-002	7.33481E-001	3.58000E+000	9	...........
	10	0.146667	7.21597E-001	-9.93698E-005	0.00000E+000	-7.17049E-005	-5.99601E-002	7.21866E-001	3.58000E+000	9	...........
	11	0.16	7.09996E-001	-9.85655E-005	0.00000E+000	-6.99811E-005	-5.99601E-002	7.10304E-001	3.58000E+000	9	...........
	12	0.173333	6.98506E-001	-9.81935E-005	0.00000E+000	-6.85887E-005	-5.99601E-002	6.98790E-001	3.58000E+000	9	...........
	13	0.186667	6.87030E-001	-9.96990E-005	0.00000E+000	-6.84963E-005	-5.99601E-002	6.87319E-001	3.58000E+000	9	...........
	14	0.2	6.75594E-001	-9.81914E-005	0.00000E+000	-6.63375E-005	-5.99601E-002	6.75863E-001	3.58000E+000	9	...........
	15	0.213333	6.64164E-001	-9.80060E-005	0.00000E+000	-6.50921E-005	-5.99601E-002	6.64443E-001	3.58000E+000	9	...........
	16	0.226667	6.52766E-001	-9.90124E-005	0.00000E+000	-6.46320E-005	-5.99601E-002	6.53014E-001	3.58000E+000	9	...........
	17	0.24	6.41367E-001	-9.92083E-005	0.00000E+000	-6.36290E-005	-5.99601E-002	6.41641E-001	3.58000E+000	9	...........
	18	0.253333	6.30028E-001	-9.86092E-005	0.00000E+000	-6.21266E-005	-5.99601E-002	6.30292E-001	3.58000E+000	9	...........
	19	0.266667	6.18678E-001	-9.91406E-005	0.00000E+000	-6.13361E-005	-5.99601E-002	6.18927E-001	3.58000E+000	9	...........
	20	0.28	6.07322E-001	-9.86457E-005	0.00000E+000	-5.99097E-005	-5.99601E-002	6.07613E-001	3.58000E+000	9	...........
	21	0.293333	5.96058E-001	-9.89905E-005	0.00000E+000	-5.90041E-005	-5.99601E-002	5.96330E-001	3.58000E+000	9	...........
	22	0.306667	5.84795E-001	-9.92625E-005	0.00000E+000	-5.80482E-005	-5.99601E-002	5.85062E-001	3.58000E+000	9	...........
	23	0.32	5.73592E-001	-9.95115E-005	0.00000E+000	-5.70790E-005	-5.99601E-002	5.73822E-001	3.58000E+000	9	...........
	24	0.333333	5.62392E-001	-9.91520E-005	0.00000E+000	-5.57623E-005	-5.99601E-002	5.62627E-001	3.58000E+000	9	...........
	25	0.346667	5.51233E-001	-9.88093E-005	0.00000E+000	-5.44669E-005	-5.99601E-002	5.51472E-001	3.58000E+000	9	...........
	26	0.36	5.40136E-001	-9.81987E-005	0.00000E+000	-5.30407E-005	-5.99601E-002	5.40369E-001	3.58000E+000	9	...........
	27	0.373333	5.29058E-001	-9.82394E-005	0.00000E+000	-5.19743E-005	-5.99601E-002	5.29282E-001	3.58000E+000	9	...........
	28	0.386667	5.18069E-001	-9.87228E-005	0.00000E+000	-5.11452E-005	-5.99601E-002	5.18275E-001	3.57888E+000	9	...........
	29	0.4	5.07066E-001	-9.90135E-005	0.00000E+000	-5.02064E-005	-5.99601E-002	5.07334E-001	3.57850E+000	9	...........
	30	0.413333	4.96191E-001	-9.84384E-005	0.00000E+000	-4.88442E-005	-5.99601E-002	4.96469E-001	3.57850E+000	9	...........
	31	0.426667	4.85501E-001	-9.95907E-005	0.00000E+000	-4.83514E-005	-5.99601E-002	4.85696E-001	3.57850E+000	9	...........
	32	0.44	4.74971E-001	-9.98220E-005	0.00000E+000	-4.74126E-005	-5.99601E-002	4.75067E-001	3.57850E+000	9	...........
	33	0.453333	4.64260E-001	-9.91322E-005	0.00000E+000	-4.60231E-005	-5.99601E-002	4.64354E-001	3.57850E+000	9	...........
	34	0.466667	4.53620E-001	-9.87749E-005	0.00000E+000	-4.48063E-005	-5.99601E-002	4.53713E-001	3.57850E+000	9	...........
	35	0.48	4.43055E-001	-9.95261E-005	0.00000E+000	-4.40955E-005	-5.99601E-002	4.43138E-001	3.57850E+000	9	...........
	36	0.493333	4.32556E-001	-9.92156E-005	0.00000E+000	-4.29163E-005	-5.99601E-002	4.32641E-001	3.57850E+000	9	...........
	37	0.506667	4.22129E-001	-9.88895E-005	0.00000E+000	-4.17441E-005	-5.99601E-002	4.22214E-001	3.57850E+000	9	...........
	38	0.52	4.11778E-001	-9.78455E-005	0.00000E+000	-4.02907E-005	-5.99601E-002	4.11852E-001	3.57850E+000	9	...........
	39	0.533333	4.01497E-001	-9.85811E-005	0.00000E+000	-3.95800E-005	-5.99601E-002	4.01572E-001	3.57850E+000	9	...........
	40	0.546667	3.91282E-001	-9.81748E-005	0.00000E+000	-3.84140E-005	-5.99601E-002	3.91356E-001	3.57850E+000	9	...........
	41	0.56	3.81135E-001	-9.93677E-005	0.00000E+000	-3.78725E-005	-5.99601E-002	3.81203E-001	3.57850E+000	9	...........
	42	0.573333	3.71059E-001	-9.91520E-005	0.00000E+000	-3.67913E-005	-5.99601E-002	3.71123E-001	3.57850E+000	9	...........
	43	0.586667	3.61051E-001	-9.80654E-005	0.00000E+000	-3.54066E-005	-5.99601E-002	3.61111E-001	3.57850E+000	9	...........
	44	0.6	3.51099E-001	-9.86780E-005	0.00000E+000	-3.46457E-005	-5.99601E-002	3.51163E-001	3.57850E+000	9	...........
	45	0.613333	3.41215E-001	-9.85040E-005	0.00000E+000	-3.36110E-005	-5.99601E-002	3.41277E-001	3.57850E+000	9	...........
	46	0.626667	3.31392E-001	-9.80133E-005	0.00000E+000	-3.24808E-005	-5.99601E-002	3.31444E-001	3.57850E+000	9	...........
	47	0.64	3.21631E-001	-9.95709E-005	0.00000E+000	-3.20251E-005	-5.99601E-002	3.21684E-001	3.57850E+000	9	...........
	48	0.653333	3.11927E-001	-9.95323E-005	0.00000E+000	-3.10468E-005	-5.99601E-002	3.11981E-001	3.57850E+000	9	...........
	49	0.666667	3.02283E-001	-9.88405E-005	0.00000E+000	-2.98778E-005	-5.99601E-002	3.02331E-001	3.57850E+000	9	...........
	50	0.68	2.92687E-001	-9.89249E-005	0.00000E+000	-2.89541E-005	-5.99601E-002	2.92741E-001	3.57850E+000	9	...........
	51	0.693333	2.83159E-001	-9.97428E-005	0.00000E+000	-2.82430E-005	-5.99601E-002	2.83205E-001	3.57850E+000	9	...........
	52	0.706667	2.73673E-001	-9.92271E-005	0.00000E+000	-2.71557E-005	-5.99601E-002	2.73727E-001	3.57850E+000	9	...........
	53	0.72	2.64246E-001	-9.92218E-005	0.00000E+000	-2.62189E-005	-5.99601E-002	2.64294E-001	3.57850E+000	9	...........
	54	0.733333	2.54870E-001	-9.88697E-005	0.00000E+000	-2.51989E-005	-5.99601E-002	2.54913E-001	3.57850E+000	9	...........
	55	0.746667	2.45546E-001	-9.87436E-005	0.00000E+000	-2.42461E-005	-5.99601E-002	2.45591E-001	3.57850E+000	9	...........
	56	0.76	2.36276E-001	-9.93917E-005	0.00000E+000	-2.34838E-005	-5.99601E-002	2.36314E-001	3.57850E+000	9	...........
	57	0.773333	2.27062E-001	-9.85269E-005	0.00000E+000	-2.23717E-005	-5.99601E-002	2.27096E-001	3.57850E+000	9	...........
	58	0.786667	2.17897E-001	-9.94969E-005	0.00000E+000	-2.16801E-005	-5.99601E-002	2.17931E-001	3.57850E+000	9	...........
	59	0.8	2.08795E-001	-9.92239E-005	0.00000E+000	-2.07175E-005	-5.99601E-002	2.08821E-001	3.57850E+000	9	...........
	60	0.813333	1.99737E-001	-9.89291E-005	0.00000E+000	-1.97598E-005	-5.99601E-002	1.99770E-001	3.57850E+000	9	...........
	61	0.826667	1.90753E-001	-9.85373E-005	0.00000E+000	-1.87963E-005	-5.99601E-002	1.90778E-001	3.57850E+000	9	...........
	62	0.84	1.81822E-001	-9.88884E-005	0.00000E+000	-1.79801E-005	-5.99601E-002	1.81849E-001	3.57850E+000	9	...........
	63	0.853333	1.72954E-001	-9.86551E-005	0.00000E+000	-1.70628E-005	-5.99601E-002	1.72979E-001	3.57850E+000	9	...........
	64	0.866667	1.64158E-001	-9.88822E-005	0.00000E+000	-1.62323E-005	-5.99601E-002	1.64180E-001	3.57850E+000	9	...........
	65	0.88	1.55434E-001	-9.92500E-005	0.00000E+000	-1.54269E-005	-5.99601E-002	1.55450E-001	3.57850E+000	9	...........
	66	0.893333	1.46778E-001	-9.88999E-005	0.00000E+000	-1.45164E-005	-5.99601E-002	1.46794E-001	3.57850E+000	9	...........
	67	0.906667	1.38192E-001	-9.84488E-005	0.00000E+000	-1.36048E-005	-5.99601E-002	1.38209E-001	3.57850E+000	9	...........
	68	0.92	1.29684E-001	-9.87197E-005	0.00000E+000	-1.28024E-005	-5.99601E-002	1.29694E-001	3.57850E+000	9	...........
	69	0.933333	1.21249E-001	-9.84863E-005	0.00000E+000	-1.19414E-005	-5.99601E-002	1.21265E-001	3.57850E+000	9	...........
	70	0.946667	1.12889E-001	-9.80695E-005	0.00000E+000	-1.10710E-005	-5.99601E-002	1.12903E-001	3.57850E+000	9	...........
	71	0.96	1.04603E-001	-9.85040E-005	0.00000E+000	-1.03038E-005	-5.99601E-002	1.04612E-001	3.57850E+000	9	...........
	72	0.97333	9.63950E-002	-9.87290E-005	0.00000E+000	-9.51699E-006	-5.99601E-002	9.64045E-002	3.57850E+000	9	...........
	73	0.98667	8.82643E-002	-9.93979E-005	0.00000E+000	-8.77329E-006	-5.99601E-002	8.82719E-002	3.57850E+000	9	...........
	74	1	8.02199E-002	-9.94542E-005	0.00000E+000	-7.97820E-006	-5.99601E-002	8.02182E-002	3.57850E+000	9	...........
	75	1.01333	7.22370E-002	-9.87811E-005	0.00000E+000	-7.13565E-006	-5.99601E-002	7.22321E-002	3.57850E+000	9	...........
	76	1.02667	6.43291E-002	-9.94344E-005	0.00000E+000	-6.39652E-006	-5.99601E-002	6.43224E-002	3.57850E+000	9	...........
	77	1.04	5.64948E-002	-9.90781E-005	0.00000E+000	-5.59739E-006	-5.99601E-002	5.64932E-002	3.57850E+000	9	...........
	78	1.05333	4.87488E-002	-9.88416E-005	0.00000E+000	-4.81841E-006	-5.99601E-002	4.87445E-002	3.57850E+000	9	...........
	79	1.06667	4.10771E-002	-9.84008E-005	0.00000E+000	-4.04203E-006	-5.99601E-002	4.10728E-002	3.57850E+000	9	...........
	80	1.08	3.34538E-002	-9.90364E-005	0.00000E+000	-3.31315E-006	-5.99601E-002	3.34428E-002	3.57850E+000	9	...........
	81	1.09333	2.58995E-002	-9.79445E-005	0.00000E+000	-2.53671E-006	-5.99601E-002	2.58825E-002	3.57850E+000	9	...........
	82	1.10667	1.84105E-002	-9.88249E-005	0.00000E+000	-1.81941E-006	-5.99601E-002	1.83860E-002	3.57850E+000	9	...........
	83	1.12	1.09904E-002	-9.90541E-005	0.00000E+000	-1.08864E-006	-5.99601E-002	1.09577E-002	3.57850E+000	9	...........
	84	1.13333	3.63550E-003	-9.98303E-005	0.00000E+000	-3.62933E-007	-5.99601E-002	3.59968E-003	3.57850E+000	9	...........
	85	1.135	-4.66949E-004	-1.01503E-004	0.00000E+000	4.73965E-008	-5.99601E-002	-5.11255E-004	3.57850E+000	9	...........
STARTTIMEOFFSET	QUANT	2263.684	Start Time Offset (s)
