EXPLAIN
TAG	PWR800_DISCHARGE
TITLE	LABEL	PWR Cyclic Charge Discharge (Cell) - Discharge Step	Test &Identifier
DATE	LABEL	13-7-2017	Date
TIME	LABEL	15:47:11	Time
NOTES	NOTES	2	&Notes...
	supercap test cell
	6M KOH
PSTAT	PSTAT	IFC5000-01520	Potentiostat
CAPACITY	QUANT	1.00000E-003	Capacity (A-hr)
CELLTYPE	SELECTOR	1	&Cell Type
WORKINGCONNECTION	SELECTOR	0	&Working Lead
MAXDISCHARGETIME	VARIABLEANDUNITS	1.00000E+002	s	1.00000E+002	second(s)	Max &Discharge Time
DISCHARGEMODE	MULTIPARAM	0	1.00000E-004	&Discharge Mode	Constant Current	Amp(s)
SAMPLETIME	QUANT	1.00000E-002	Sa&mple Period (s)
DISCHARGESTOPAT1	MULTIPARAM	3	0.00000E+000	Discharge Stop At &1	Voltage < Limit	V
DISCHARGESTOPAT2	MULTIPARAM	0	0.00000E+000	Discharge Stop At &2	None	N/A
AESBHCSELECTOR	TOGGLE	F	Save Both Half Cells
IRCOMP	TOGGLE	F	IR &Measure
EOC	QUANT	0	Open Circuit (V)
SEQUENCER	TOGGLE	TRUE	Run as Sequence
PSTATMODEL	IQUANT	53	Pstat Model
PSTATSECTION	LABEL	IFC5000-01520	Pstat Section
PSTATSERIALNO	LABEL	01520	Pstat Serial Number
CTRLMODE	IQUANT	0	Control Mode
ELECTROMETER	IQUANT	1	RE=0 or CS=1
IESTAB	IQUANT	0	I/E Stability
CASPEED	IQUANT	4	Control Amp Speed
CONVENTION	IQUANT	1	Current Convention
ICHRANGE	IQUANT	2	Ich Range
ICHRANGEMODE	TOGGLE	T	Ich Auto Range
ICHOFFSETENABLE	TOGGLE	F	Ich Offset Enable
ICHOFFSET	QUANT	0	Ich Offset (V)
ICHFILTER	IQUANT	1	Ich Filter
VCHRANGE	IQUANT	2	Vch Range
VCHRANGEMODE	TOGGLE	T	Vch Auto Range
VCHOFFSETENABLE	TOGGLE	F	Vch Offset Enable
VCHOFFSET	QUANT	0	Vch Offset (V)
VCHFILTER	IQUANT	1	Vch Filter
IERANGELOWERLIMIT	IQUANT	9	I/E Range Lower Limit
IERANGEMODE	TOGGLE	F	I/E AutoRange
IERANGE	IQUANT	9	I/E Range
ACHSELECT	IQUANT	1	Ach Select
ACHRANGE	IQUANT	2	Ach Range
ACHOFFSETENABLE	TOGGLE	F	Ach Offset Enable
ACHOFFSET	QUANT	0	Ach Offset (V)
ACHFILTER	IQUANT	1	Ach Filter
CABLEID	IQUANT	14	Cable ID
DCCALDATE	LABEL	5-7-2017	DC Calibration Date
ACCALDATE	LABEL	12/3/2015	AC Calibration Date
FRAMEWORKVERSION	QUANT	7.01	Framework Version
INSTRUMENTVERSION	LABEL	4.00	Instrument Version
CURVE	TABLE	86
	Pt	T	Vf	Im	Vu	Pwr	Sig	Ach	Temp	IERange	Over
	#	s	V	A	V	W	V	V	deg C	#	bits
	0	0.013333	8.44995E-001	-9.90604E-005	0.00000E+000	-8.37055E-005	-5.99601E-002	8.45347E-001	3.57900E+000	9	...........
	1	0.026667	8.30852E-001	-9.89478E-005	0.00000E+000	-8.22110E-005	-5.99601E-002	8.31181E-001	3.57900E+000	9	...........
	2	0.04	8.17511E-001	-9.90322E-005	0.00000E+000	-8.09599E-005	-5.99601E-002	8.17857E-001	3.57900E+000	9	...........
	3	0.053333	8.04751E-001	-9.91135E-005	0.00000E+000	-7.97617E-005	-5.99601E-002	8.05053E-001	3.57900E+000	9	...........
	4	0.066667	7.92367E-001	-9.88645E-005	0.00000E+000	-7.83369E-005	-5.99601E-002	7.92632E-001	3.57900E+000	9	...........
	5	0.08	7.80196E-001	-9.83519E-005	0.00000E+000	-7.67337E-005	-5.99601E-002	7.80499E-001	3.57900E+000	9	...........
	6	0.093333	7.68285E-001	-9.90749E-005	0.00000E+000	-7.61178E-005	-5.99601E-002	7.68559E-001	3.57900E+000	9	...........
	7	0.106667	7.56490E-001	-9.84831E-005	0.00000E+000	-7.45015E-005	-5.99601E-002	7.56762E-001	3.57900E+000	9	...........
	8	0.12	7.44822E-001	-9.94979E-005	0.00000E+000	-7.41082E-005	-5.99601E-002	7.45072E-001	3.57900E+000	9	...........
	9	0.133333	7.33222E-001	-9.89114E-005	0.00000E+000	-7.25240E-005	-5.99601E-002	7.33476E-001	3.57900E+000	9	...........
	10	0.146667	7.21722E-001	-9.93594E-005	0.00000E+000	-7.17098E-005	-5.99601E-002	7.21964E-001	3.57900E+000	9	...........
	11	0.16	7.10220E-001	-9.87311E-005	0.00000E+000	-7.01208E-005	-5.99601E-002	7.10488E-001	3.57900E+000	9	...........
	12	0.173333	6.98827E-001	-9.92416E-005	0.00000E+000	-6.93528E-005	-5.99601E-002	6.99079E-001	3.57900E+000	9	...........
	13	0.186667	6.87427E-001	-9.92594E-005	0.00000E+000	-6.82335E-005	-5.99601E-002	6.87687E-001	3.57900E+000	9	...........
	14	0.2	6.76059E-001	-9.96053E-005	0.00000E+000	-6.73390E-005	-5.99601E-002	6.76327E-001	3.57900E+000	9	...........
	15	0.213333	6.64728E-001	-9.89697E-005	0.00000E+000	-6.57880E-005	-5.99601E-002	6.65003E-001	3.57900E+000	9	...........
	16	0.226667	6.53402E-001	-9.87207E-005	0.00000E+000	-6.45043E-005	-5.99601E-002	6.53653E-001	3.57900E+000	9	...........
	17	0.24	6.42112E-001	-9.86196E-005	0.00000E+000	-6.33249E-005	-5.99601E-002	6.42366E-001	3.57900E+000	9	...........
	18	0.253333	6.30793E-001	-9.88009E-005	0.00000E+000	-6.23230E-005	-5.99601E-002	6.31086E-001	3.57900E+000	9	...........
	19	0.266667	6.19590E-001	-9.86030E-005	0.00000E+000	-6.10935E-005	-5.99601E-002	6.19851E-001	3.57900E+000	9	...........
	20	0.28	6.08312E-001	-9.93677E-005	0.00000E+000	-6.04466E-005	-5.99601E-002	6.08607E-001	3.57900E+000	9	...........
	21	0.293333	5.97123E-001	-9.81623E-005	0.00000E+000	-5.86150E-005	-5.99601E-002	5.97400E-001	3.57900E+000	9	...........
	22	0.306667	5.85947E-001	-9.95969E-005	0.00000E+000	-5.83585E-005	-5.99601E-002	5.86247E-001	3.57900E+000	9	...........
	23	0.32	5.74833E-001	-9.77361E-005	0.00000E+000	-5.61819E-005	-5.99601E-002	5.75107E-001	3.57900E+000	9	...........
	24	0.333333	5.63740E-001	-9.83925E-005	0.00000E+000	-5.54678E-005	-5.99601E-002	5.63989E-001	3.57900E+000	9	...........
	25	0.346667	5.52663E-001	-9.90114E-005	0.00000E+000	-5.47199E-005	-5.99601E-002	5.52932E-001	3.57900E+000	9	...........
	26	0.36	5.41668E-001	-9.92104E-005	0.00000E+000	-5.37391E-005	-5.99601E-002	5.41921E-001	3.57900E+000	9	...........
	27	0.373333	5.30668E-001	-9.83685E-005	0.00000E+000	-5.22010E-005	-5.99601E-002	5.30907E-001	3.57900E+000	9	...........
	28	0.386667	5.19754E-001	-9.83008E-005	0.00000E+000	-5.10922E-005	-5.99601E-002	5.19985E-001	3.57900E+000	9	...........
	29	0.4	5.08832E-001	-9.88978E-005	0.00000E+000	-5.03224E-005	-5.99601E-002	5.09110E-001	3.57900E+000	9	...........
	30	0.413333	4.98028E-001	-9.84206E-005	0.00000E+000	-4.90162E-005	-5.99601E-002	4.98291E-001	3.57900E+000	9	...........
	31	0.426667	4.87367E-001	-9.94406E-005	0.00000E+000	-4.84641E-005	-5.99601E-002	4.87566E-001	3.57900E+000	9	...........
	32	0.44	4.76951E-001	-9.85946E-005	0.00000E+000	-4.70248E-005	-5.99601E-002	4.77052E-001	3.57900E+000	9	...........
	33	0.453333	4.66315E-001	-9.92177E-005	0.00000E+000	-4.62667E-005	-5.99601E-002	4.66409E-001	3.57900E+000	9	...........
	34	0.466667	4.55737E-001	-9.92281E-005	0.00000E+000	-4.52219E-005	-5.99601E-002	4.55833E-001	3.57900E+000	9	...........
	35	0.48	4.45238E-001	-9.89062E-005	0.00000E+000	-4.40368E-005	-5.99601E-002	4.45330E-001	3.57900E+000	9	...........
	36	0.493333	4.34806E-001	-9.92333E-005	0.00000E+000	-4.31473E-005	-5.99601E-002	4.34895E-001	3.57900E+000	9	...........
	37	0.506667	4.24443E-001	-9.86363E-005	0.00000E+000	-4.18655E-005	-5.99601E-002	4.24530E-001	3.57900E+000	9	...........
	38	0.52	4.14148E-001	-9.87874E-005	0.00000E+000	-4.09126E-005	-5.99601E-002	4.14231E-001	3.57900E+000	9	...........
	39	0.533333	4.03928E-001	-9.83873E-005	0.00000E+000	-3.97414E-005	-5.99601E-002	4.04010E-001	3.57900E+000	9	...........
	40	0.546667	3.93778E-001	-9.83008E-005	0.00000E+000	-3.87087E-005	-5.99601E-002	3.93853E-001	3.57900E+000	9	...........
	41	0.56	3.83688E-001	-9.82477E-005	0.00000E+000	-3.76965E-005	-5.99601E-002	3.83763E-001	3.57900E+000	9	...........
	42	0.573333	3.73668E-001	-9.95865E-005	0.00000E+000	-3.72123E-005	-5.99601E-002	3.73740E-001	3.57900E+000	9	...........
	43	0.586667	3.63715E-001	-9.90291E-005	0.00000E+000	-3.60184E-005	-5.99601E-002	3.63783E-001	3.57900E+000	9	...........
	44	0.6	3.53834E-001	-9.83779E-005	0.00000E+000	-3.48094E-005	-5.99601E-002	3.53894E-001	3.57900E+000	9	...........
	45	0.613333	3.44001E-001	-9.87217E-005	0.00000E+000	-3.39604E-005	-5.99601E-002	3.44069E-001	3.57900E+000	9	...........
	46	0.626667	3.34237E-001	-9.82404E-005	0.00000E+000	-3.28356E-005	-5.99601E-002	3.34305E-001	3.57900E+000	9	...........
	47	0.64	3.24539E-001	-9.91229E-005	0.00000E+000	-3.21693E-005	-5.99601E-002	3.24604E-001	3.57900E+000	9	...........
	48	0.653333	3.14896E-001	-9.91896E-005	0.00000E+000	-3.12344E-005	-5.99601E-002	3.14957E-001	3.57900E+000	9	...........
	49	0.666667	3.05307E-001	-9.86894E-005	0.00000E+000	-3.01306E-005	-5.99601E-002	3.05365E-001	3.57956E+000	9	...........
	50	0.68	2.95779E-001	-9.95552E-005	0.00000E+000	-2.94464E-005	-5.99601E-002	2.95831E-001	3.57990E+000	9	...........
	51	0.693333	2.86305E-001	-9.85227E-005	0.00000E+000	-2.82075E-005	-5.99601E-002	2.86362E-001	3.57990E+000	9	...........
	52	0.706667	2.76883E-001	-9.96938E-005	0.00000E+000	-2.76035E-005	-5.99601E-002	2.76935E-001	3.57990E+000	9	...........
	53	0.72	2.67513E-001	-9.87665E-005	0.00000E+000	-2.64213E-005	-5.99601E-002	2.67567E-001	3.57990E+000	9	...........
	54	0.733333	2.58199E-001	-9.78434E-005	0.00000E+000	-2.52631E-005	-5.99601E-002	2.58244E-001	3.57990E+000	9	...........
	55	0.746667	2.48932E-001	-9.92750E-005	0.00000E+000	-2.47127E-005	-5.99601E-002	2.48977E-001	3.57990E+000	9	...........
	56	0.76	2.39711E-001	-9.94208E-005	0.00000E+000	-2.38323E-005	-5.99601E-002	2.39759E-001	3.57990E+000	9	...........
	57	0.773333	2.30558E-001	-9.84842E-005	0.00000E+000	-2.27063E-005	-5.99601E-002	2.30591E-001	3.57990E+000	9	...........
	58	0.786667	2.21446E-001	-9.95334E-005	0.00000E+000	-2.20412E-005	-5.99601E-002	2.21478E-001	3.57990E+000	9	...........
	59	0.8	2.12396E-001	-9.89697E-005	0.00000E+000	-2.10208E-005	-5.99601E-002	2.12418E-001	3.57990E+000	9	...........
	60	0.813333	2.03391E-001	-9.89312E-005	0.00000E+000	-2.01217E-005	-5.99601E-002	2.03417E-001	3.57990E+000	9	...........
	61	0.826667	1.94452E-001	-9.92062E-005	0.00000E+000	-1.92909E-005	-5.99601E-002	1.94473E-001	3.57990E+000	9	...........
	62	0.84	1.85574E-001	-9.89749E-005	0.00000E+000	-1.83672E-005	-5.99601E-002	1.85589E-001	3.57990E+000	9	...........
	63	0.853333	1.76749E-001	-9.94406E-005	0.00000E+000	-1.75760E-005	-5.99601E-002	1.76766E-001	3.57990E+000	9	...........
	64	0.866667	1.68000E-001	-9.96355E-005	0.00000E+000	-1.67387E-005	-5.99601E-002	1.68018E-001	3.57990E+000	9	...........
	65	0.88	1.59321E-001	-9.84957E-005	0.00000E+000	-1.56924E-005	-5.99601E-002	1.59336E-001	3.57990E+000	9	...........
	66	0.893333	1.50704E-001	-9.85675E-005	0.00000E+000	-1.48545E-005	-5.99601E-002	1.50719E-001	3.57990E+000	9	...........
	67	0.906667	1.42162E-001	-9.79039E-005	0.00000E+000	-1.39182E-005	-5.99601E-002	1.42177E-001	3.57990E+000	9	...........
	68	0.92	1.33690E-001	-9.89103E-005	0.00000E+000	-1.32233E-005	-5.99601E-002	1.33701E-001	3.57990E+000	9	...........
	69	0.933333	1.25295E-001	-9.94438E-005	0.00000E+000	-1.24598E-005	-5.99601E-002	1.25308E-001	3.57990E+000	9	...........
	70	0.946667	1.16973E-001	-9.94219E-005	0.00000E+000	-1.16296E-005	-5.99601E-002	1.16984E-001	3.57990E+000	9	...........
	71	0.96	1.08727E-001	-9.89332E-005	0.00000E+000	-1.07567E-005	-5.99601E-002	1.08734E-001	3.57990E+000	9	...........
	72	0.97333	1.00557E-001	-9.84936E-005	0.00000E+000	-9.90420E-006	-5.99601E-002	1.00557E-001	3.57990E+000	9	...........
	73	0.98667	9.24626E-002	-9.88905E-005	0.00000E+000	-9.14368E-006	-5.99601E-002	9.24686E-002	3.57990E+000	9	...........
	74	1	8.44384E-002	-9.92802E-005	0.00000E+000	-8.38306E-006	-5.99601E-002	8.44474E-002	3.57990E+000	9	...........
	75	1.01333	7.64995E-002	-9.93458E-005	0.00000E+000	-7.59991E-006	-5.99601E-002	7.64961E-002	3.57990E+000	9	...........
	76	1.02667	6.86224E-002	-9.85488E-005	0.00000E+000	-6.76266E-006	-5.99601E-002	6.86239E-002	3.57990E+000	9	...........
	77	1.04	6.08156E-002	-9.93833E-005	0.00000E+000	-6.04405E-006	-5.99601E-002	6.08147E-002	3.57990E+000	9	...........
	78	1.05333	5.30860E-002	-1.00111E-004	0.00000E+000	-5.31447E-006	-5.99601E-002	5.30775E-002	3.57990E+000	9	...........
	79	1.06667	4.54517E-002	-9.92791E-005	0.00000E+000	-4.51240E-006	-5.99601E-002	4.54421E-002	3.57990E+000	9	...........
	80	1.08	3.78603E-002	-9.88812E-005	0.00000E+000	-3.74367E-006	-5.99601E-002	3.78528E-002	3.57990E+000	9	...........
	81	1.09333	3.03322E-002	-9.86832E-005	0.00000E+000	-2.99328E-006	-5.99601E-002	3.03134E-002	3.57990E+000	9	...........
	82	1.10667	2.28677E-002	-9.87228E-005	0.00000E+000	-2.25756E-006	-5.99601E-002	2.28420E-002	3.57990E+000	9	...........
	83	1.12	1.54686E-002	-9.83956E-005	0.00000E+000	-1.52204E-006	-5.99601E-002	1.54452E-002	3.57990E+000	9	...........
	84	1.13333	8.13788E-003	-9.88145E-005	0.00000E+000	-8.04141E-007	-5.99601E-002	8.10538E-003	3.57990E+000	9	...........
	85	1.14333	1.77349E-003	-9.93646E-005	0.00000E+000	-1.76222E-007	-5.99601E-002	1.73709E-003	3.57990E+000	9	...........
STARTTIMEOFFSET	QUANT	2040.069	Start Time Offset (s)
