EXPLAIN
TAG	PWR800_DISCHARGE
TITLE	LABEL	PWR Cyclic Charge Discharge (Cell) - Discharge Step	Test &Identifier
DATE	LABEL	13-7-2017	Date
TIME	LABEL	15:12:26	Time
NOTES	NOTES	2	&Notes...
	supercap test cell
	6M KOH
PSTAT	PSTAT	IFC5000-01520	Potentiostat
CAPACITY	QUANT	1.00000E-003	Capacity (A-hr)
CELLTYPE	SELECTOR	1	&Cell Type
WORKINGCONNECTION	SELECTOR	0	&Working Lead
MAXDISCHARGETIME	VARIABLEANDUNITS	1.00000E+002	s	1.00000E+002	second(s)	Max &Discharge Time
DISCHARGEMODE	MULTIPARAM	0	1.00000E-004	&Discharge Mode	Constant Current	Amp(s)
SAMPLETIME	QUANT	1.00000E-002	Sa&mple Period (s)
DISCHARGESTOPAT1	MULTIPARAM	3	0.00000E+000	Discharge Stop At &1	Voltage < Limit	V
DISCHARGESTOPAT2	MULTIPARAM	0	0.00000E+000	Discharge Stop At &2	None	N/A
AESBHCSELECTOR	TOGGLE	F	Save Both Half Cells
IRCOMP	TOGGLE	F	IR &Measure
EOC	QUANT	0	Open Circuit (V)
SEQUENCER	TOGGLE	TRUE	Run as Sequence
PSTATMODEL	IQUANT	53	Pstat Model
PSTATSECTION	LABEL	IFC5000-01520	Pstat Section
PSTATSERIALNO	LABEL	01520	Pstat Serial Number
CTRLMODE	IQUANT	0	Control Mode
ELECTROMETER	IQUANT	1	RE=0 or CS=1
IESTAB	IQUANT	0	I/E Stability
CASPEED	IQUANT	4	Control Amp Speed
CONVENTION	IQUANT	1	Current Convention
ICHRANGE	IQUANT	2	Ich Range
ICHRANGEMODE	TOGGLE	T	Ich Auto Range
ICHOFFSETENABLE	TOGGLE	F	Ich Offset Enable
ICHOFFSET	QUANT	0	Ich Offset (V)
ICHFILTER	IQUANT	1	Ich Filter
VCHRANGE	IQUANT	2	Vch Range
VCHRANGEMODE	TOGGLE	T	Vch Auto Range
VCHOFFSETENABLE	TOGGLE	F	Vch Offset Enable
VCHOFFSET	QUANT	0	Vch Offset (V)
VCHFILTER	IQUANT	1	Vch Filter
IERANGELOWERLIMIT	IQUANT	9	I/E Range Lower Limit
IERANGEMODE	TOGGLE	F	I/E AutoRange
IERANGE	IQUANT	9	I/E Range
ACHSELECT	IQUANT	1	Ach Select
ACHRANGE	IQUANT	2	Ach Range
ACHOFFSETENABLE	TOGGLE	F	Ach Offset Enable
ACHOFFSET	QUANT	0	Ach Offset (V)
ACHFILTER	IQUANT	1	Ach Filter
CABLEID	IQUANT	14	Cable ID
DCCALDATE	LABEL	5-7-2017	DC Calibration Date
ACCALDATE	LABEL	12/3/2015	AC Calibration Date
FRAMEWORKVERSION	QUANT	7.01	Framework Version
INSTRUMENTVERSION	LABEL	4.00	Instrument Version
CURVE	TABLE	91
	Pt	T	Vf	Im	Vu	Pwr	Sig	Ach	Temp	IERange	Over
	#	s	V	A	V	W	V	V	deg C	#	bits
	0	0.013333	8.53448E-001	-9.96094E-005	0.00000E+000	-8.50115E-005	-5.99601E-002	8.53818E-001	3.57920E+000	9	...........
	1	0.026667	8.40131E-001	-9.83342E-005	0.00000E+000	-8.26136E-005	-5.99601E-002	8.40484E-001	3.57920E+000	9	...........
	2	0.04	8.27650E-001	-9.83019E-005	0.00000E+000	-8.13595E-005	-5.99601E-002	8.27978E-001	3.57920E+000	9	...........
	3	0.053333	8.15689E-001	-9.82800E-005	0.00000E+000	-8.01659E-005	-5.99601E-002	8.16017E-001	3.57920E+000	9	...........
	4	0.066667	8.04167E-001	-9.92677E-005	0.00000E+000	-7.98278E-005	-5.99601E-002	8.04465E-001	3.57920E+000	9	...........
	5	0.08	7.92946E-001	-9.91125E-005	0.00000E+000	-7.85908E-005	-5.99601E-002	7.93212E-001	3.57920E+000	9	...........
	6	0.093333	7.81888E-001	-9.81977E-005	0.00000E+000	-7.67796E-005	-5.99601E-002	7.82184E-001	3.57920E+000	9	...........
	7	0.106667	7.71018E-001	-9.87301E-005	0.00000E+000	-7.61226E-005	-5.99601E-002	7.71317E-001	3.57920E+000	9	...........
	8	0.12	7.60289E-001	-9.91437E-005	0.00000E+000	-7.53778E-005	-5.99601E-002	7.60580E-001	3.57920E+000	9	...........
	9	0.133333	7.49659E-001	-9.86092E-005	0.00000E+000	-7.39232E-005	-5.99601E-002	7.49951E-001	3.57920E+000	9	...........
	10	0.146667	7.39087E-001	-9.83373E-005	0.00000E+000	-7.26798E-005	-5.99601E-002	7.39380E-001	3.57920E+000	9	...........
	11	0.16	7.28597E-001	-9.85946E-005	0.00000E+000	-7.18357E-005	-5.99601E-002	7.28864E-001	3.57920E+000	9	...........
	12	0.173333	7.18139E-001	-9.83519E-005	0.00000E+000	-7.06304E-005	-5.99601E-002	7.18405E-001	3.57920E+000	9	...........
	13	0.186667	7.07704E-001	-9.85853E-005	0.00000E+000	-6.97692E-005	-5.99601E-002	7.07994E-001	3.57920E+000	9	...........
	14	0.2	6.97330E-001	-9.89801E-005	0.00000E+000	-6.90218E-005	-5.99601E-002	6.97604E-001	3.57920E+000	9	...........
	15	0.213333	6.86948E-001	-9.95355E-005	0.00000E+000	-6.83757E-005	-5.99601E-002	6.87268E-001	3.57920E+000	9	...........
	16	0.226667	6.76635E-001	-9.82362E-005	0.00000E+000	-6.64701E-005	-5.99601E-002	6.76904E-001	3.57920E+000	9	...........
	17	0.24	6.66289E-001	-9.91416E-005	0.00000E+000	-6.60570E-005	-5.99601E-002	6.66577E-001	3.57920E+000	9	...........
	18	0.253333	6.55960E-001	-9.87509E-005	0.00000E+000	-6.47767E-005	-5.99601E-002	6.56228E-001	3.57920E+000	9	...........
	19	0.266667	6.45624E-001	-9.86123E-005	0.00000E+000	-6.36665E-005	-5.99601E-002	6.45932E-001	3.57920E+000	9	...........
	20	0.28	6.35300E-001	-9.84779E-005	0.00000E+000	-6.25630E-005	-5.99601E-002	6.35594E-001	3.57920E+000	9	...........
	21	0.293333	6.25016E-001	-9.94990E-005	0.00000E+000	-6.21885E-005	-5.99601E-002	6.25301E-001	3.57920E+000	9	...........
	22	0.306667	6.14697E-001	-9.84134E-005	0.00000E+000	-6.04944E-005	-5.99601E-002	6.15008E-001	3.57920E+000	9	...........
	23	0.32	6.04406E-001	-9.84613E-005	0.00000E+000	-5.95106E-005	-5.99601E-002	6.04700E-001	3.57920E+000	9	...........
	24	0.333333	5.94132E-001	-9.82737E-005	0.00000E+000	-5.83876E-005	-5.99601E-002	5.94427E-001	3.57920E+000	9	...........
	25	0.346667	5.83833E-001	-9.87113E-005	0.00000E+000	-5.76310E-005	-5.99601E-002	5.84148E-001	3.57920E+000	9	...........
	26	0.36	5.73580E-001	-9.99137E-005	0.00000E+000	-5.73084E-005	-5.99601E-002	5.73865E-001	3.57920E+000	9	...........
	27	0.373333	5.63335E-001	-9.93073E-005	0.00000E+000	-5.59432E-005	-5.99601E-002	5.63623E-001	3.57920E+000	9	...........
	28	0.386667	5.53112E-001	-9.89207E-005	0.00000E+000	-5.47143E-005	-5.99601E-002	5.53376E-001	3.57920E+000	9	...........
	29	0.4	5.42915E-001	-9.84279E-005	0.00000E+000	-5.34380E-005	-5.99601E-002	5.43197E-001	3.57920E+000	9	...........
	30	0.413333	5.32691E-001	-9.86874E-005	0.00000E+000	-5.25698E-005	-5.99601E-002	5.32996E-001	3.57920E+000	9	...........
	31	0.426667	5.22546E-001	-9.92531E-005	0.00000E+000	-5.18643E-005	-5.99601E-002	5.22821E-001	3.57920E+000	9	...........
	32	0.44	5.12421E-001	-9.86123E-005	0.00000E+000	-5.05310E-005	-5.99601E-002	5.12698E-001	3.57920E+000	9	...........
	33	0.453333	5.02306E-001	-9.87457E-005	0.00000E+000	-4.96005E-005	-5.99601E-002	5.02585E-001	3.57920E+000	9	...........
	34	0.466667	4.92251E-001	-9.86228E-005	0.00000E+000	-4.85471E-005	-5.99601E-002	4.92536E-001	3.57920E+000	9	...........
	35	0.48	4.82523E-001	-9.90989E-005	0.00000E+000	-4.78175E-005	-5.99601E-002	4.82643E-001	3.57920E+000	9	...........
	36	0.493333	4.72632E-001	-9.95365E-005	0.00000E+000	-4.70441E-005	-5.99601E-002	4.72731E-001	3.57920E+000	9	...........
	37	0.506667	4.62676E-001	-9.95000E-005	0.00000E+000	-4.60362E-005	-5.99601E-002	4.62778E-001	3.57920E+000	9	...........
	38	0.52	4.52766E-001	-9.86624E-005	0.00000E+000	-4.46710E-005	-5.99601E-002	4.52865E-001	3.57920E+000	9	...........
	39	0.533333	4.42899E-001	-9.90645E-005	0.00000E+000	-4.38756E-005	-5.99601E-002	4.42997E-001	3.57920E+000	9	...........
	40	0.546667	4.33082E-001	-9.95417E-005	0.00000E+000	-4.31097E-005	-5.99601E-002	4.33168E-001	3.57920E+000	9	...........
	41	0.56	4.23307E-001	-9.89082E-005	0.00000E+000	-4.18685E-005	-5.99601E-002	4.23395E-001	3.57920E+000	9	...........
	42	0.573333	4.13586E-001	-9.86176E-005	0.00000E+000	-4.07868E-005	-5.99601E-002	4.13670E-001	3.57920E+000	9	...........
	43	0.586667	4.03910E-001	-9.76778E-005	0.00000E+000	-3.94530E-005	-5.99601E-002	4.03987E-001	3.57920E+000	9	...........
	44	0.6	3.94282E-001	-9.89822E-005	0.00000E+000	-3.90269E-005	-5.99601E-002	3.94350E-001	3.57920E+000	9	...........
	45	0.613333	3.84689E-001	-9.87572E-005	0.00000E+000	-3.79908E-005	-5.99601E-002	3.84761E-001	3.57882E+000	9	...........
	46	0.626667	3.75152E-001	-9.86665E-005	0.00000E+000	-3.70149E-005	-5.99601E-002	3.75219E-001	3.57870E+000	9	...........
	47	0.64	3.65659E-001	-9.85790E-005	0.00000E+000	-3.60463E-005	-5.99601E-002	3.65728E-001	3.57870E+000	9	...........
	48	0.653333	3.56208E-001	-9.90010E-005	0.00000E+000	-3.52649E-005	-5.99601E-002	3.56274E-001	3.57870E+000	9	...........
	49	0.666667	3.46805E-001	-9.92708E-005	0.00000E+000	-3.44276E-005	-5.99601E-002	3.46875E-001	3.57870E+000	9	...........
	50	0.68	3.37450E-001	-9.90718E-005	0.00000E+000	-3.34318E-005	-5.99601E-002	3.37514E-001	3.57870E+000	9	...........
	51	0.693333	3.28141E-001	-9.85040E-005	0.00000E+000	-3.23232E-005	-5.99601E-002	3.28207E-001	3.57870E+000	9	...........
	52	0.706667	3.18880E-001	-9.84894E-005	0.00000E+000	-3.14063E-005	-5.99601E-002	3.18941E-001	3.57870E+000	9	...........
	53	0.72	3.09649E-001	-9.80779E-005	0.00000E+000	-3.03698E-005	-5.99601E-002	3.09710E-001	3.57870E+000	9	...........
	54	0.733333	3.00467E-001	-9.87645E-005	0.00000E+000	-2.96755E-005	-5.99601E-002	3.00521E-001	3.57870E+000	9	...........
	55	0.746667	2.91319E-001	-9.88937E-005	0.00000E+000	-2.88096E-005	-5.99601E-002	2.91371E-001	3.57870E+000	9	...........
	56	0.76	2.82207E-001	-9.95073E-005	0.00000E+000	-2.80817E-005	-5.99601E-002	2.82261E-001	3.57870E+000	9	...........
	57	0.773333	2.73139E-001	-9.91020E-005	0.00000E+000	-2.70686E-005	-5.99601E-002	2.73194E-001	3.57870E+000	9	...........
	58	0.786667	2.64106E-001	-9.85613E-005	0.00000E+000	-2.60306E-005	-5.99601E-002	2.64160E-001	3.57870E+000	9	...........
	59	0.8	2.55113E-001	-9.86165E-005	0.00000E+000	-2.51583E-005	-5.99601E-002	2.55160E-001	3.57870E+000	9	...........
	60	0.813333	2.46160E-001	-9.84821E-005	0.00000E+000	-2.42423E-005	-5.99601E-002	2.46204E-001	3.57870E+000	9	...........
	61	0.826667	2.37240E-001	-9.82289E-005	0.00000E+000	-2.33039E-005	-5.99601E-002	2.37282E-001	3.57870E+000	9	...........
	62	0.84	2.28360E-001	-9.89572E-005	0.00000E+000	-2.25979E-005	-5.99601E-002	2.28393E-001	3.57870E+000	9	...........
	63	0.853333	2.19511E-001	-9.94136E-005	0.00000E+000	-2.18224E-005	-5.99601E-002	2.19544E-001	3.57870E+000	9	...........
	64	0.866667	2.10706E-001	-9.82498E-005	0.00000E+000	-2.07018E-005	-5.99601E-002	2.10740E-001	3.57870E+000	9	...........
	65	0.88	2.01943E-001	-9.89228E-005	0.00000E+000	-1.99768E-005	-5.99601E-002	2.01971E-001	3.57870E+000	9	...........
	66	0.893333	1.93214E-001	-9.89895E-005	0.00000E+000	-1.91262E-005	-5.99601E-002	1.93248E-001	3.57870E+000	9	...........
	67	0.906667	1.84545E-001	-9.80508E-005	0.00000E+000	-1.80948E-005	-5.99601E-002	1.84569E-001	3.57870E+000	9	...........
	68	0.92	1.75909E-001	-9.86905E-005	0.00000E+000	-1.73605E-005	-5.99601E-002	1.75936E-001	3.57870E+000	9	...........
	69	0.933333	1.67325E-001	-9.81706E-005	0.00000E+000	-1.64264E-005	-5.99601E-002	1.67351E-001	3.57870E+000	9	...........
	70	0.946667	1.58793E-001	-9.79070E-005	0.00000E+000	-1.55470E-005	-5.99601E-002	1.58818E-001	3.57870E+000	9	...........
	71	0.96	1.50315E-001	-9.92083E-005	0.00000E+000	-1.49125E-005	-5.99601E-002	1.50334E-001	3.57870E+000	9	...........
	72	0.97333	1.41890E-001	-9.89885E-005	0.00000E+000	-1.40455E-005	-5.99601E-002	1.41914E-001	3.57870E+000	9	...........
	73	0.98667	1.33528E-001	-9.80633E-005	0.00000E+000	-1.30942E-005	-5.99601E-002	1.33540E-001	3.57870E+000	9	...........
	74	1	1.25215E-001	-9.98272E-005	0.00000E+000	-1.24999E-005	-5.99601E-002	1.25231E-001	3.57870E+000	9	...........
	75	1.01333	1.16972E-001	-9.87249E-005	0.00000E+000	-1.15480E-005	-5.99601E-002	1.16989E-001	3.57870E+000	9	...........
	76	1.02667	1.08794E-001	-9.90103E-005	0.00000E+000	-1.07717E-005	-5.99601E-002	1.08804E-001	3.57870E+000	9	...........
	77	1.04	1.00675E-001	-9.98074E-005	0.00000E+000	-1.00481E-005	-5.99601E-002	1.00684E-001	3.57870E+000	9	...........
	78	1.05333	9.26266E-002	-9.81675E-005	0.00000E+000	-9.09292E-006	-5.99601E-002	9.26305E-002	3.57870E+000	9	...........
	79	1.06667	8.46282E-002	-9.86332E-005	0.00000E+000	-8.34715E-006	-5.99601E-002	8.46397E-002	3.57870E+000	9	...........
	80	1.08	7.67160E-002	-9.91812E-005	0.00000E+000	-7.60879E-006	-5.99601E-002	7.67134E-002	3.57870E+000	9	...........
	81	1.09333	6.88547E-002	-9.77278E-005	0.00000E+000	-6.72902E-006	-5.99601E-002	6.88547E-002	3.57870E+000	9	...........
	82	1.10667	6.10604E-002	-9.95344E-005	0.00000E+000	-6.07761E-006	-5.99601E-002	6.10618E-002	3.57870E+000	9	...........
	83	1.12	5.33305E-002	-9.95667E-005	0.00000E+000	-5.30994E-006	-5.99601E-002	5.33219E-002	3.57870E+000	9	...........
	84	1.13333	4.56941E-002	-9.90749E-005	0.00000E+000	-4.52714E-006	-5.99601E-002	4.56840E-002	3.57870E+000	9	...........
	85	1.14667	3.80996E-002	-9.96667E-005	0.00000E+000	-3.79726E-006	-5.99601E-002	3.80903E-002	3.57870E+000	9	...........
	86	1.16	3.05571E-002	-9.84446E-005	0.00000E+000	-3.00818E-006	-5.99601E-002	3.05401E-002	3.57870E+000	9	...........
	87	1.17333	2.30818E-002	-9.89166E-005	0.00000E+000	-2.28318E-006	-5.99601E-002	2.30610E-002	3.57870E+000	9	...........
	88	1.18667	1.56606E-002	-9.86801E-005	0.00000E+000	-1.54539E-006	-5.99601E-002	1.56323E-002	3.57870E+000	9	...........
	89	1.2	8.29954E-003	-9.86967E-005	0.00000E+000	-8.19137E-007	-5.99601E-002	8.26618E-003	3.57870E+000	9	...........
	90	1.21	1.90353E-003	-9.89326E-005	0.00000E+000	-1.88321E-007	-5.99601E-002	1.86830E-003	3.57870E+000	9	...........
STARTTIMEOFFSET	QUANT	470.0466	Start Time Offset (s)
