EXPLAIN
TAG	PWR800_DISCHARGE
TITLE	LABEL	PWR Cyclic Charge Discharge (Cell) - Discharge Step	Test &Identifier
DATE	LABEL	13-7-2017	Date
TIME	LABEL	15:54:38	Time
NOTES	NOTES	2	&Notes...
	supercap test cell
	6M KOH
PSTAT	PSTAT	IFC5000-01520	Potentiostat
CAPACITY	QUANT	1.00000E-003	Capacity (A-hr)
CELLTYPE	SELECTOR	1	&Cell Type
WORKINGCONNECTION	SELECTOR	0	&Working Lead
MAXDISCHARGETIME	VARIABLEANDUNITS	1.00000E+002	s	1.00000E+002	second(s)	Max &Discharge Time
DISCHARGEMODE	MULTIPARAM	0	1.00000E-004	&Discharge Mode	Constant Current	Amp(s)
SAMPLETIME	QUANT	1.00000E-002	Sa&mple Period (s)
DISCHARGESTOPAT1	MULTIPARAM	3	0.00000E+000	Discharge Stop At &1	Voltage < Limit	V
DISCHARGESTOPAT2	MULTIPARAM	0	0.00000E+000	Discharge Stop At &2	None	N/A
AESBHCSELECTOR	TOGGLE	F	Save Both Half Cells
IRCOMP	TOGGLE	F	IR &Measure
EOC	QUANT	0	Open Circuit (V)
SEQUENCER	TOGGLE	TRUE	Run as Sequence
PSTATMODEL	IQUANT	53	Pstat Model
PSTATSECTION	LABEL	IFC5000-01520	Pstat Section
PSTATSERIALNO	LABEL	01520	Pstat Serial Number
CTRLMODE	IQUANT	0	Control Mode
ELECTROMETER	IQUANT	1	RE=0 or CS=1
IESTAB	IQUANT	0	I/E Stability
CASPEED	IQUANT	4	Control Amp Speed
CONVENTION	IQUANT	1	Current Convention
ICHRANGE	IQUANT	2	Ich Range
ICHRANGEMODE	TOGGLE	T	Ich Auto Range
ICHOFFSETENABLE	TOGGLE	F	Ich Offset Enable
ICHOFFSET	QUANT	0	Ich Offset (V)
ICHFILTER	IQUANT	1	Ich Filter
VCHRANGE	IQUANT	2	Vch Range
VCHRANGEMODE	TOGGLE	T	Vch Auto Range
VCHOFFSETENABLE	TOGGLE	F	Vch Offset Enable
VCHOFFSET	QUANT	0	Vch Offset (V)
VCHFILTER	IQUANT	1	Vch Filter
IERANGELOWERLIMIT	IQUANT	9	I/E Range Lower Limit
IERANGEMODE	TOGGLE	F	I/E AutoRange
IERANGE	IQUANT	9	I/E Range
ACHSELECT	IQUANT	1	Ach Select
ACHRANGE	IQUANT	2	Ach Range
ACHOFFSETENABLE	TOGGLE	F	Ach Offset Enable
ACHOFFSET	QUANT	0	Ach Offset (V)
ACHFILTER	IQUANT	1	Ach Filter
CABLEID	IQUANT	14	Cable ID
DCCALDATE	LABEL	5-7-2017	DC Calibration Date
ACCALDATE	LABEL	12/3/2015	AC Calibration Date
FRAMEWORKVERSION	QUANT	7.01	Framework Version
INSTRUMENTVERSION	LABEL	4.00	Instrument Version
CURVE	TABLE	85
	Pt	T	Vf	Im	Vu	Pwr	Sig	Ach	Temp	IERange	Over
	#	s	V	A	V	W	V	V	deg C	#	bits
	0	0.013333	8.44925E-001	-9.87259E-005	0.00000E+000	-8.34160E-005	-5.99601E-002	8.45234E-001	3.58000E+000	9	...........
	1	0.026667	8.30632E-001	-9.86988E-005	0.00000E+000	-8.19824E-005	-5.99601E-002	8.30943E-001	3.58000E+000	9	...........
	2	0.04	8.17147E-001	-9.87155E-005	0.00000E+000	-8.06651E-005	-5.99601E-002	8.17435E-001	3.58000E+000	9	...........
	3	0.053333	8.04194E-001	-9.82654E-005	0.00000E+000	-7.90244E-005	-5.99601E-002	8.04481E-001	3.58000E+000	9	...........
	4	0.066667	7.91630E-001	-9.93344E-005	0.00000E+000	-7.86361E-005	-5.99601E-002	7.91946E-001	3.58000E+000	9	...........
	5	0.08	7.79338E-001	-9.85832E-005	0.00000E+000	-7.68296E-005	-5.99601E-002	7.79637E-001	3.58000E+000	9	...........
	6	0.093333	7.67276E-001	-9.87978E-005	0.00000E+000	-7.58052E-005	-5.99601E-002	7.67556E-001	3.58000E+000	9	...........
	7	0.106667	7.55334E-001	-9.94115E-005	0.00000E+000	-7.50889E-005	-5.99601E-002	7.55630E-001	3.58000E+000	9	...........
	8	0.12	7.43513E-001	-9.92354E-005	0.00000E+000	-7.37828E-005	-5.99601E-002	7.43811E-001	3.58000E+000	9	...........
	9	0.133333	7.31777E-001	-9.87936E-005	0.00000E+000	-7.22949E-005	-5.99601E-002	7.32073E-001	3.58000E+000	9	...........
	10	0.146667	7.20138E-001	-1.00197E-004	0.00000E+000	-7.21557E-005	-5.99601E-002	7.20413E-001	3.58000E+000	9	...........
	11	0.16	7.08490E-001	-9.86780E-005	0.00000E+000	-6.99123E-005	-5.99601E-002	7.08805E-001	3.57982E+000	9	...........
	12	0.173333	6.96930E-001	-9.89906E-005	0.00000E+000	-6.89895E-005	-5.99601E-002	6.97247E-001	3.57860E+000	9	...........
	13	0.186667	6.85418E-001	-9.90770E-005	0.00000E+000	-6.79092E-005	-5.99601E-002	6.85702E-001	3.57860E+000	9	...........
	14	0.2	6.73931E-001	-9.83602E-005	0.00000E+000	-6.62879E-005	-5.99601E-002	6.74193E-001	3.57860E+000	9	...........
	15	0.213333	6.62426E-001	-9.84363E-005	0.00000E+000	-6.52068E-005	-5.99601E-002	6.62722E-001	3.57860E+000	9	...........
	16	0.226667	6.50996E-001	-9.90906E-005	0.00000E+000	-6.45075E-005	-5.99601E-002	6.51254E-001	3.57860E+000	9	...........
	17	0.24	6.39523E-001	-9.88739E-005	0.00000E+000	-6.32321E-005	-5.99601E-002	6.39826E-001	3.57860E+000	9	...........
	18	0.253333	6.28139E-001	-9.90447E-005	0.00000E+000	-6.22138E-005	-5.99601E-002	6.28403E-001	3.57860E+000	9	...........
	19	0.266667	6.16776E-001	-9.84904E-005	0.00000E+000	-6.07465E-005	-5.99601E-002	6.17029E-001	3.57860E+000	9	...........
	20	0.28	6.05384E-001	-9.93187E-005	0.00000E+000	-6.01260E-005	-5.99601E-002	6.05682E-001	3.57860E+000	9	...........
	21	0.293333	5.94082E-001	-9.87926E-005	0.00000E+000	-5.86909E-005	-5.99601E-002	5.94358E-001	3.57860E+000	9	...........
	22	0.306667	5.82771E-001	-9.84467E-005	0.00000E+000	-5.73718E-005	-5.99601E-002	5.83063E-001	3.57860E+000	9	...........
	23	0.32	5.71531E-001	-9.97240E-005	0.00000E+000	-5.69954E-005	-5.99601E-002	5.71810E-001	3.57860E+000	9	...........
	24	0.333333	5.60295E-001	-9.88113E-005	0.00000E+000	-5.53635E-005	-5.99601E-002	5.60576E-001	3.57860E+000	9	...........
	25	0.346667	5.49121E-001	-9.78955E-005	0.00000E+000	-5.37565E-005	-5.99601E-002	5.49387E-001	3.57860E+000	9	...........
	26	0.36	5.37989E-001	-9.86884E-005	0.00000E+000	-5.30933E-005	-5.99601E-002	5.38246E-001	3.57860E+000	9	...........
	27	0.373333	5.26901E-001	-9.89270E-005	0.00000E+000	-5.21248E-005	-5.99601E-002	5.27171E-001	3.57860E+000	9	...........
	28	0.386667	5.15883E-001	-9.88166E-005	0.00000E+000	-5.09778E-005	-5.99601E-002	5.16121E-001	3.57860E+000	9	...........
	29	0.4	5.04858E-001	-9.83654E-005	0.00000E+000	-4.96606E-005	-5.99601E-002	5.05149E-001	3.57860E+000	9	...........
	30	0.413333	4.93963E-001	-9.93948E-005	0.00000E+000	-4.90973E-005	-5.99601E-002	4.94235E-001	3.57860E+000	9	...........
	31	0.426667	4.83345E-001	-9.95021E-005	0.00000E+000	-4.80939E-005	-5.99601E-002	4.83485E-001	3.57860E+000	9	...........
	32	0.44	4.72704E-001	-9.92187E-005	0.00000E+000	-4.69011E-005	-5.99601E-002	4.72801E-001	3.57860E+000	9	...........
	33	0.453333	4.61988E-001	-9.88582E-005	0.00000E+000	-4.56713E-005	-5.99601E-002	4.62081E-001	3.57860E+000	9	...........
	34	0.466667	4.51334E-001	-9.92927E-005	0.00000E+000	-4.48142E-005	-5.99601E-002	4.51429E-001	3.57860E+000	9	...........
	35	0.48	4.40753E-001	-9.96626E-005	0.00000E+000	-4.39266E-005	-5.99601E-002	4.40843E-001	3.57860E+000	9	...........
	36	0.493333	4.30250E-001	-9.85061E-005	0.00000E+000	-4.23823E-005	-5.99601E-002	4.30333E-001	3.57860E+000	9	...........
	37	0.506667	4.19816E-001	-9.87436E-005	0.00000E+000	-4.14541E-005	-5.99601E-002	4.19899E-001	3.57860E+000	9	...........
	38	0.52	4.09456E-001	-9.90072E-005	0.00000E+000	-4.05391E-005	-5.99601E-002	4.09533E-001	3.57860E+000	9	...........
	39	0.533333	3.99161E-001	-9.86009E-005	0.00000E+000	-3.93576E-005	-5.99601E-002	3.99240E-001	3.57860E+000	9	...........
	40	0.546667	3.88945E-001	-9.92448E-005	0.00000E+000	-3.86007E-005	-5.99601E-002	3.89018E-001	3.57860E+000	9	...........
	41	0.56	3.78795E-001	-9.93656E-005	0.00000E+000	-3.76392E-005	-5.99601E-002	3.78863E-001	3.57860E+000	9	...........
	42	0.573333	3.68712E-001	-9.99345E-005	0.00000E+000	-3.68471E-005	-5.99601E-002	3.68772E-001	3.57860E+000	9	...........
	43	0.586667	3.58694E-001	-9.92937E-005	0.00000E+000	-3.56160E-005	-5.99601E-002	3.58764E-001	3.57860E+000	9	...........
	44	0.6	3.48744E-001	-9.85436E-005	0.00000E+000	-3.43665E-005	-5.99601E-002	3.48809E-001	3.57860E+000	9	...........
	45	0.613333	3.38864E-001	-9.86436E-005	0.00000E+000	-3.34268E-005	-5.99601E-002	3.38919E-001	3.57860E+000	9	...........
	46	0.626667	3.29043E-001	-9.81716E-005	0.00000E+000	-3.23027E-005	-5.99601E-002	3.29104E-001	3.57860E+000	9	...........
	47	0.64	3.19281E-001	-9.89624E-005	0.00000E+000	-3.15968E-005	-5.99601E-002	3.19340E-001	3.57860E+000	9	...........
	48	0.653333	3.09580E-001	-9.94334E-005	0.00000E+000	-3.07826E-005	-5.99601E-002	3.09637E-001	3.57860E+000	9	...........
	49	0.666667	2.99935E-001	-9.92239E-005	0.00000E+000	-2.97607E-005	-5.99601E-002	2.99987E-001	3.57860E+000	9	...........
	50	0.68	2.90346E-001	-9.91437E-005	0.00000E+000	-2.87860E-005	-5.99601E-002	2.90391E-001	3.57860E+000	9	...........
	51	0.693333	2.80809E-001	-9.94281E-005	0.00000E+000	-2.79203E-005	-5.99601E-002	2.80861E-001	3.57860E+000	9	...........
	52	0.706667	2.71333E-001	-9.86915E-005	0.00000E+000	-2.67783E-005	-5.99601E-002	2.71379E-001	3.57860E+000	9	...........
	53	0.72	2.61901E-001	-9.87426E-005	0.00000E+000	-2.58608E-005	-5.99601E-002	2.61949E-001	3.57860E+000	9	...........
	54	0.733333	2.52537E-001	-9.81893E-005	0.00000E+000	-2.47964E-005	-5.99601E-002	2.52575E-001	3.57860E+000	9	...........
	55	0.746667	2.43218E-001	-9.84113E-005	0.00000E+000	-2.39354E-005	-5.99601E-002	2.43260E-001	3.57860E+000	9	...........
	56	0.76	2.33948E-001	-9.80862E-005	0.00000E+000	-2.29471E-005	-5.99601E-002	2.33988E-001	3.57860E+000	9	...........
	57	0.773333	2.24738E-001	-9.85998E-005	0.00000E+000	-2.21591E-005	-5.99601E-002	2.24771E-001	3.57860E+000	9	...........
	58	0.786667	2.15583E-001	-9.90822E-005	0.00000E+000	-2.13604E-005	-5.99601E-002	2.15617E-001	3.57860E+000	9	...........
	59	0.8	2.06484E-001	-9.91062E-005	0.00000E+000	-2.04638E-005	-5.99601E-002	2.06513E-001	3.57860E+000	9	...........
	60	0.813333	1.97437E-001	-9.86801E-005	0.00000E+000	-1.94831E-005	-5.99601E-002	1.97475E-001	3.57860E+000	9	...........
	61	0.826667	1.88464E-001	-9.86853E-005	0.00000E+000	-1.85987E-005	-5.99601E-002	1.88495E-001	3.57860E+000	9	...........
	62	0.84	1.79545E-001	-9.90228E-005	0.00000E+000	-1.77790E-005	-5.99601E-002	1.79573E-001	3.57860E+000	9	...........
	63	0.853333	1.70690E-001	-9.89614E-005	0.00000E+000	-1.68918E-005	-5.99601E-002	1.70719E-001	3.57860E+000	9	...........
	64	0.866667	1.61910E-001	-9.88416E-005	0.00000E+000	-1.60035E-005	-5.99601E-002	1.61938E-001	3.57860E+000	9	...........
	65	0.88	1.53198E-001	-9.85425E-005	0.00000E+000	-1.50965E-005	-5.99601E-002	1.53216E-001	3.57860E+000	9	...........
	66	0.893333	1.44557E-001	-9.83633E-005	0.00000E+000	-1.42191E-005	-5.99601E-002	1.44574E-001	3.57860E+000	9	...........
	67	0.906667	1.35986E-001	-9.96219E-005	0.00000E+000	-1.35472E-005	-5.99601E-002	1.36001E-001	3.57860E+000	9	...........
	68	0.92	1.27494E-001	-9.89614E-005	0.00000E+000	-1.26170E-005	-5.99601E-002	1.27507E-001	3.57860E+000	9	...........
	69	0.933333	1.19079E-001	-9.88082E-005	0.00000E+000	-1.17660E-005	-5.99601E-002	1.19093E-001	3.57860E+000	9	...........
	70	0.946667	1.10736E-001	-9.85050E-005	0.00000E+000	-1.09080E-005	-5.99601E-002	1.10753E-001	3.57860E+000	9	...........
	71	0.96	1.02473E-001	-9.83904E-005	0.00000E+000	-1.00824E-005	-5.99601E-002	1.02484E-001	3.57860E+000	9	...........
	72	0.97333	9.42867E-002	-9.94563E-005	0.00000E+000	-9.37741E-006	-5.99601E-002	9.42968E-002	3.57860E+000	9	...........
	73	0.98667	8.61820E-002	-9.84863E-005	0.00000E+000	-8.48775E-006	-5.99601E-002	8.61865E-002	3.57860E+000	9	...........
	74	1	7.81550E-002	-9.85717E-005	0.00000E+000	-7.70387E-006	-5.99601E-002	7.81497E-002	3.57860E+000	9	...........
	75	1.01333	7.01889E-002	-9.86207E-005	0.00000E+000	-6.92208E-006	-5.99601E-002	7.01901E-002	3.57860E+000	9	...........
	76	1.02667	6.23032E-002	-9.84967E-005	0.00000E+000	-6.13666E-006	-5.99601E-002	6.23032E-002	3.57860E+000	9	...........
	77	1.04	5.44934E-002	-9.73454E-005	0.00000E+000	-5.30469E-006	-5.99601E-002	5.44895E-002	3.57860E+000	9	...........
	78	1.05333	4.67689E-002	-9.93021E-005	0.00000E+000	-4.64425E-006	-5.99601E-002	4.67627E-002	3.57860E+000	9	...........
	79	1.06667	3.91123E-002	-9.84019E-005	0.00000E+000	-3.84872E-006	-5.99601E-002	3.91011E-002	3.57860E+000	9	...........
	80	1.08	3.15062E-002	-9.88593E-005	0.00000E+000	-3.11468E-006	-5.99601E-002	3.14908E-002	3.57860E+000	9	...........
	81	1.09333	2.39716E-002	-9.85217E-005	0.00000E+000	-2.36173E-006	-5.99601E-002	2.39499E-002	3.57860E+000	9	...........
	82	1.10667	1.64982E-002	-9.90197E-005	0.00000E+000	-1.63365E-006	-5.99601E-002	1.64719E-002	3.57860E+000	9	...........
	83	1.12	9.09683E-003	-9.89603E-005	0.00000E+000	-9.00225E-007	-5.99601E-002	9.06676E-003	3.57860E+000	9	...........
	84	1.13167	2.21484E-003	-9.93461E-005	0.00000E+000	-2.20035E-007	-5.99601E-002	2.18128E-003	3.57860E+000	9	...........
STARTTIMEOFFSET	QUANT	2374.994	Start Time Offset (s)
