EXPLAIN
TAG	PWR800_DISCHARGE
TITLE	LABEL	PWR Cyclic Charge Discharge (Cell) - Discharge Step	Test &Identifier
DATE	LABEL	13-7-2017	Date
TIME	LABEL	15:06:26	Time
NOTES	NOTES	2	&Notes...
	supercap test cell
	6M KOH
PSTAT	PSTAT	IFC5000-01520	Potentiostat
CAPACITY	QUANT	1.00000E-003	Capacity (A-hr)
CELLTYPE	SELECTOR	1	&Cell Type
WORKINGCONNECTION	SELECTOR	0	&Working Lead
MAXDISCHARGETIME	VARIABLEANDUNITS	1.00000E+002	s	1.00000E+002	second(s)	Max &Discharge Time
DISCHARGEMODE	MULTIPARAM	0	1.00000E-004	&Discharge Mode	Constant Current	Amp(s)
SAMPLETIME	QUANT	1.00000E-002	Sa&mple Period (s)
DISCHARGESTOPAT1	MULTIPARAM	3	0.00000E+000	Discharge Stop At &1	Voltage < Limit	V
DISCHARGESTOPAT2	MULTIPARAM	0	0.00000E+000	Discharge Stop At &2	None	N/A
AESBHCSELECTOR	TOGGLE	F	Save Both Half Cells
IRCOMP	TOGGLE	F	IR &Measure
EOC	QUANT	0	Open Circuit (V)
SEQUENCER	TOGGLE	TRUE	Run as Sequence
PSTATMODEL	IQUANT	53	Pstat Model
PSTATSECTION	LABEL	IFC5000-01520	Pstat Section
PSTATSERIALNO	LABEL	01520	Pstat Serial Number
CTRLMODE	IQUANT	0	Control Mode
ELECTROMETER	IQUANT	1	RE=0 or CS=1
IESTAB	IQUANT	0	I/E Stability
CASPEED	IQUANT	4	Control Amp Speed
CONVENTION	IQUANT	1	Current Convention
ICHRANGE	IQUANT	2	Ich Range
ICHRANGEMODE	TOGGLE	T	Ich Auto Range
ICHOFFSETENABLE	TOGGLE	F	Ich Offset Enable
ICHOFFSET	QUANT	0	Ich Offset (V)
ICHFILTER	IQUANT	1	Ich Filter
VCHRANGE	IQUANT	2	Vch Range
VCHRANGEMODE	TOGGLE	T	Vch Auto Range
VCHOFFSETENABLE	TOGGLE	F	Vch Offset Enable
VCHOFFSET	QUANT	0	Vch Offset (V)
VCHFILTER	IQUANT	1	Vch Filter
IERANGELOWERLIMIT	IQUANT	9	I/E Range Lower Limit
IERANGEMODE	TOGGLE	F	I/E AutoRange
IERANGE	IQUANT	9	I/E Range
ACHSELECT	IQUANT	1	Ach Select
ACHRANGE	IQUANT	2	Ach Range
ACHOFFSETENABLE	TOGGLE	F	Ach Offset Enable
ACHOFFSET	QUANT	0	Ach Offset (V)
ACHFILTER	IQUANT	1	Ach Filter
CABLEID	IQUANT	14	Cable ID
DCCALDATE	LABEL	5-7-2017	DC Calibration Date
ACCALDATE	LABEL	12/3/2015	AC Calibration Date
FRAMEWORKVERSION	QUANT	7.01	Framework Version
INSTRUMENTVERSION	LABEL	4.00	Instrument Version
CURVE	TABLE	93
	Pt	T	Vf	Im	Vu	Pwr	Sig	Ach	Temp	IERange	Over
	#	s	V	A	V	W	V	V	deg C	#	bits
	0	0.013333	8.56937E-001	-9.86238E-005	0.00000E+000	-8.45144E-005	-5.99601E-002	8.57262E-001	3.57930E+000	9	...........
	1	0.026667	8.44018E-001	-9.83300E-005	0.00000E+000	-8.29923E-005	-5.99601E-002	8.44374E-001	3.57930E+000	9	...........
	2	0.04	8.31931E-001	-9.84738E-005	0.00000E+000	-8.19234E-005	-5.99601E-002	8.32290E-001	3.57930E+000	9	...........
	3	0.053333	8.20395E-001	-9.88687E-005	0.00000E+000	-8.11113E-005	-5.99601E-002	8.20751E-001	3.57930E+000	9	...........
	4	0.066667	8.09236E-001	-9.85696E-005	0.00000E+000	-7.97660E-005	-5.99601E-002	8.09572E-001	3.57930E+000	9	...........
	5	0.08	7.98434E-001	-9.94594E-005	0.00000E+000	-7.94118E-005	-5.99601E-002	7.98722E-001	3.57930E+000	9	...........
	6	0.093333	7.87769E-001	-9.83060E-005	0.00000E+000	-7.74424E-005	-5.99601E-002	7.88075E-001	3.57930E+000	9	...........
	7	0.106667	7.77311E-001	-9.85571E-005	0.00000E+000	-7.66096E-005	-5.99601E-002	7.77616E-001	3.57930E+000	9	...........
	8	0.12	7.66995E-001	-9.97240E-005	0.00000E+000	-7.64878E-005	-5.99601E-002	7.67267E-001	3.57930E+000	9	...........
	9	0.133333	7.56754E-001	-9.90854E-005	0.00000E+000	-7.49832E-005	-5.99601E-002	7.57040E-001	3.57930E+000	9	...........
	10	0.146667	7.46620E-001	-9.93771E-005	0.00000E+000	-7.41969E-005	-5.99601E-002	7.46890E-001	3.57930E+000	9	...........
	11	0.16	7.36507E-001	-9.93635E-005	0.00000E+000	-7.31820E-005	-5.99601E-002	7.36809E-001	3.57930E+000	9	...........
	12	0.173333	7.26492E-001	-9.86999E-005	0.00000E+000	-7.17047E-005	-5.99601E-002	7.26778E-001	3.57930E+000	9	...........
	13	0.186667	7.16495E-001	-9.88541E-005	0.00000E+000	-7.08284E-005	-5.99601E-002	7.16779E-001	3.57930E+000	9	...........
	14	0.2	7.06535E-001	-9.89364E-005	0.00000E+000	-6.99020E-005	-5.99601E-002	7.06819E-001	3.57930E+000	9	...........
	15	0.213333	6.96596E-001	-9.83529E-005	0.00000E+000	-6.85123E-005	-5.99601E-002	6.96859E-001	3.57930E+000	9	...........
	16	0.226667	6.86654E-001	-9.94552E-005	0.00000E+000	-6.82913E-005	-5.99601E-002	6.86919E-001	3.57930E+000	9	...........
	17	0.24	6.76764E-001	-9.90656E-005	0.00000E+000	-6.70440E-005	-5.99601E-002	6.77013E-001	3.57930E+000	9	...........
	18	0.253333	6.66847E-001	-9.87655E-005	0.00000E+000	-6.58614E-005	-5.99601E-002	6.67089E-001	3.57930E+000	9	...........
	19	0.266667	6.56927E-001	-9.91708E-005	0.00000E+000	-6.51479E-005	-5.99601E-002	6.57207E-001	3.57930E+000	9	...........
	20	0.28	6.47028E-001	-9.82362E-005	0.00000E+000	-6.35616E-005	-5.99601E-002	6.47292E-001	3.57930E+000	9	...........
	21	0.293333	6.37119E-001	-9.93781E-005	0.00000E+000	-6.33157E-005	-5.99601E-002	6.37383E-001	3.57930E+000	9	...........
	22	0.306667	6.27229E-001	-9.83258E-005	0.00000E+000	-6.16729E-005	-5.99601E-002	6.27491E-001	3.57930E+000	9	...........
	23	0.32	6.17326E-001	-9.82967E-005	0.00000E+000	-6.06811E-005	-5.99601E-002	6.17602E-001	3.57930E+000	9	...........
	24	0.333333	6.07380E-001	-9.87843E-005	0.00000E+000	-5.99996E-005	-5.99601E-002	6.07657E-001	3.57930E+000	9	...........
	25	0.346667	5.97526E-001	-9.82644E-005	0.00000E+000	-5.87155E-005	-5.99601E-002	5.97782E-001	3.57930E+000	9	...........
	26	0.36	5.87621E-001	-9.86415E-005	0.00000E+000	-5.79638E-005	-5.99601E-002	5.87880E-001	3.57930E+000	9	...........
	27	0.373333	5.77730E-001	-9.95500E-005	0.00000E+000	-5.75130E-005	-5.99601E-002	5.77997E-001	3.57930E+000	9	...........
	28	0.386667	5.67886E-001	-9.83665E-005	0.00000E+000	-5.58610E-005	-5.99601E-002	5.68127E-001	3.57930E+000	9	...........
	29	0.4	5.57978E-001	-9.85467E-005	0.00000E+000	-5.49869E-005	-5.99601E-002	5.58257E-001	3.57930E+000	9	...........
	30	0.413333	5.48125E-001	-9.90562E-005	0.00000E+000	-5.42952E-005	-5.99601E-002	5.48390E-001	3.57930E+000	9	...........
	31	0.426667	5.38302E-001	-9.81300E-005	0.00000E+000	-5.28235E-005	-5.99601E-002	5.38549E-001	3.57930E+000	9	...........
	32	0.44	5.28443E-001	-9.88561E-005	0.00000E+000	-5.22398E-005	-5.99601E-002	5.28704E-001	3.57930E+000	9	...........
	33	0.453333	5.18639E-001	-9.77049E-005	0.00000E+000	-5.06736E-005	-5.99601E-002	5.18890E-001	3.57930E+000	9	...........
	34	0.466667	5.08814E-001	-9.89791E-005	0.00000E+000	-5.03620E-005	-5.99601E-002	5.09090E-001	3.57930E+000	9	...........
	35	0.48	4.99022E-001	-9.87853E-005	0.00000E+000	-4.92960E-005	-5.99601E-002	4.99306E-001	3.57930E+000	9	...........
	36	0.493333	4.89296E-001	-9.85634E-005	0.00000E+000	-4.82267E-005	-5.99601E-002	4.89559E-001	3.57930E+000	9	...........
	37	0.506667	4.79945E-001	-9.92229E-005	0.00000E+000	-4.76215E-005	-5.99601E-002	4.80018E-001	3.57930E+000	9	...........
	38	0.52	4.70243E-001	-9.85029E-005	0.00000E+000	-4.63203E-005	-5.99601E-002	4.70343E-001	3.57930E+000	9	...........
	39	0.533333	4.60566E-001	-9.86082E-005	0.00000E+000	-4.54156E-005	-5.99601E-002	4.60661E-001	3.57930E+000	9	...........
	40	0.546667	4.50911E-001	-9.85248E-005	0.00000E+000	-4.44259E-005	-5.99601E-002	4.51016E-001	3.57930E+000	9	...........
	41	0.56	4.41296E-001	-9.94438E-005	0.00000E+000	-4.38842E-005	-5.99601E-002	4.41391E-001	3.57930E+000	9	...........
	42	0.573333	4.31713E-001	-9.93813E-005	0.00000E+000	-4.29042E-005	-5.99601E-002	4.31800E-001	3.57930E+000	9	...........
	43	0.586667	4.22157E-001	-9.86061E-005	0.00000E+000	-4.16272E-005	-5.99601E-002	4.22247E-001	3.57930E+000	9	...........
	44	0.6	4.12644E-001	-9.81768E-005	0.00000E+000	-4.05121E-005	-5.99601E-002	4.12726E-001	3.57930E+000	9	...........
	45	0.613333	4.03162E-001	-9.92208E-005	0.00000E+000	-4.00021E-005	-5.99601E-002	4.03242E-001	3.57930E+000	9	...........
	46	0.626667	3.93716E-001	-9.85550E-005	0.00000E+000	-3.88027E-005	-5.99601E-002	3.93788E-001	3.57930E+000	9	...........
	47	0.64	3.84299E-001	-9.89906E-005	0.00000E+000	-3.80420E-005	-5.99601E-002	3.84375E-001	3.57930E+000	9	...........
	48	0.653333	3.74923E-001	-9.86301E-005	0.00000E+000	-3.69787E-005	-5.99601E-002	3.74996E-001	3.57930E+000	9	...........
	49	0.666667	3.65591E-001	-9.88916E-005	0.00000E+000	-3.61539E-005	-5.99601E-002	3.65658E-001	3.57930E+000	9	...........
	50	0.68	3.56285E-001	-9.84613E-005	0.00000E+000	-3.50803E-005	-5.99601E-002	3.56346E-001	3.57930E+000	9	...........
	51	0.693333	3.47010E-001	-9.90666E-005	0.00000E+000	-3.43771E-005	-5.99601E-002	3.47074E-001	3.57930E+000	9	...........
	52	0.706667	3.37773E-001	-9.88051E-005	0.00000E+000	-3.33737E-005	-5.99601E-002	3.37837E-001	3.57930E+000	9	...........
	53	0.72	3.28571E-001	-9.87624E-005	0.00000E+000	-3.24505E-005	-5.99601E-002	3.28633E-001	3.57930E+000	9	...........
	54	0.733333	3.19404E-001	-1.00348E-004	0.00000E+000	-3.20516E-005	-5.99601E-002	3.19460E-001	3.57930E+000	9	...........
	55	0.746667	3.10267E-001	-9.86936E-005	0.00000E+000	-3.06213E-005	-5.99601E-002	3.10329E-001	3.57930E+000	9	...........
	56	0.76	3.01162E-001	-9.85978E-005	0.00000E+000	-2.96939E-005	-5.99601E-002	3.01222E-001	3.57930E+000	9	...........
	57	0.773333	2.92088E-001	-9.84133E-005	0.00000E+000	-2.87453E-005	-5.99601E-002	2.92145E-001	3.57930E+000	9	...........
	58	0.786667	2.83047E-001	-9.82539E-005	0.00000E+000	-2.78105E-005	-5.99601E-002	2.83101E-001	3.57930E+000	9	...........
	59	0.8	2.74042E-001	-9.89801E-005	0.00000E+000	-2.71247E-005	-5.99601E-002	2.74092E-001	3.57930E+000	9	...........
	60	0.813333	2.65056E-001	-9.81237E-005	0.00000E+000	-2.60083E-005	-5.99601E-002	2.65109E-001	3.57930E+000	9	...........
	61	0.826667	2.56104E-001	-9.95459E-005	0.00000E+000	-2.54941E-005	-5.99601E-002	2.56156E-001	3.57930E+000	9	...........
	62	0.84	2.47186E-001	-9.81893E-005	0.00000E+000	-2.42711E-005	-5.99601E-002	2.47235E-001	3.57930E+000	9	...........
	63	0.853333	2.38304E-001	-9.83852E-005	0.00000E+000	-2.34456E-005	-5.99601E-002	2.38344E-001	3.57930E+000	9	...........
	64	0.866667	2.29446E-001	-9.92208E-005	0.00000E+000	-2.27659E-005	-5.99601E-002	2.29486E-001	3.57930E+000	9	...........
	65	0.88	2.20620E-001	-9.87520E-005	0.00000E+000	-2.17866E-005	-5.99601E-002	2.20656E-001	3.57930E+000	9	...........
	66	0.893333	2.11820E-001	-9.80581E-005	0.00000E+000	-2.07707E-005	-5.99601E-002	2.11854E-001	3.57930E+000	9	...........
	67	0.906667	2.03056E-001	-9.92854E-005	0.00000E+000	-2.01605E-005	-5.99601E-002	2.03086E-001	3.57930E+000	9	...........
	68	0.92	1.94327E-001	-9.87895E-005	0.00000E+000	-1.91974E-005	-5.99601E-002	1.94361E-001	3.57930E+000	9	...........
	69	0.933333	1.85633E-001	-9.99012E-005	0.00000E+000	-1.85450E-005	-5.99601E-002	1.85668E-001	3.57930E+000	9	...........
	70	0.946667	1.76980E-001	-9.91958E-005	0.00000E+000	-1.75556E-005	-5.99601E-002	1.77011E-001	3.57930E+000	9	...........
	71	0.96	1.68365E-001	-9.88113E-005	0.00000E+000	-1.66364E-005	-5.99601E-002	1.68393E-001	3.57930E+000	9	...........
	72	0.97333	1.59796E-001	-9.89853E-005	0.00000E+000	-1.58174E-005	-5.99601E-002	1.59818E-001	3.57930E+000	9	...........
	73	0.98667	1.51270E-001	-9.88843E-005	0.00000E+000	-1.49582E-005	-5.99601E-002	1.51290E-001	3.57930E+000	9	...........
	74	1	1.42794E-001	-9.82654E-005	0.00000E+000	-1.40317E-005	-5.99601E-002	1.42811E-001	3.57930E+000	9	...........
	75	1.01333	1.34362E-001	-9.87426E-005	0.00000E+000	-1.32673E-005	-5.99601E-002	1.34381E-001	3.57930E+000	9	...........
	76	1.02667	1.25987E-001	-9.85800E-005	0.00000E+000	-1.24198E-005	-5.99601E-002	1.26004E-001	3.57930E+000	9	...........
	77	1.04	1.17670E-001	-9.86019E-005	0.00000E+000	-1.16025E-005	-5.99601E-002	1.17683E-001	3.57930E+000	9	...........
	78	1.05333	1.09400E-001	-9.87926E-005	0.00000E+000	-1.08079E-005	-5.99601E-002	1.09415E-001	3.57930E+000	9	...........
	79	1.06667	1.01195E-001	-9.83112E-005	0.00000E+000	-9.94860E-006	-5.99601E-002	1.01195E-001	3.57930E+000	9	...........
	80	1.08	9.30457E-002	-9.92958E-005	0.00000E+000	-9.23905E-006	-5.99601E-002	9.30475E-002	3.57930E+000	9	...........
	81	1.09333	8.49631E-002	-9.94927E-005	0.00000E+000	-8.45321E-006	-5.99601E-002	8.49624E-002	3.57930E+000	9	...........
	82	1.10667	7.69466E-002	-9.83425E-005	0.00000E+000	-7.56712E-006	-5.99601E-002	7.69423E-002	3.57930E+000	9	...........
	83	1.12	6.89912E-002	-9.85530E-005	0.00000E+000	-6.79929E-006	-5.99601E-002	6.89848E-002	3.57930E+000	9	...........
	84	1.13333	6.10929E-002	-9.92031E-005	0.00000E+000	-6.06060E-006	-5.99601E-002	6.10884E-002	3.57930E+000	9	...........
	85	1.14667	5.32608E-002	-9.84706E-005	0.00000E+000	-5.24463E-006	-5.99601E-002	5.32549E-002	3.57930E+000	9	...........
	86	1.16	4.55196E-002	-9.87801E-005	0.00000E+000	-4.49643E-006	-5.99601E-002	4.55112E-002	3.57930E+000	9	...........
	87	1.17333	3.78168E-002	-9.84644E-005	0.00000E+000	-3.72361E-006	-5.99601E-002	3.78084E-002	3.57930E+000	9	...........
	88	1.18667	3.01733E-002	-9.87540E-005	0.00000E+000	-2.97974E-006	-5.99601E-002	3.01543E-002	3.57930E+000	9	...........
	89	1.2	2.25788E-002	-9.83196E-005	0.00000E+000	-2.21994E-006	-5.99601E-002	2.25633E-002	3.57930E+000	9	...........
	90	1.21333	1.50491E-002	-9.85373E-005	0.00000E+000	-1.48290E-006	-5.99601E-002	1.50249E-002	3.57930E+000	9	...........
	91	1.22667	7.57608E-003	-9.93125E-005	0.00000E+000	-7.52399E-007	-5.99601E-002	7.54927E-003	3.57930E+000	9	...........
	92	1.235	1.54885E-003	-9.84902E-005	0.00000E+000	-1.52547E-007	-5.99601E-002	1.51709E-003	3.57930E+000	9	...........
STARTTIMEOFFSET	QUANT	195.0266	Start Time Offset (s)
