EXPLAIN
TAG	PWR800_DISCHARGE
TITLE	LABEL	PWR Cyclic Charge Discharge (Cell) - Discharge Step	Test &Identifier
DATE	LABEL	13-7-2017	Date
TIME	LABEL	15:04:15	Time
NOTES	NOTES	2	&Notes...
	supercap test cell
	6M KOH
PSTAT	PSTAT	IFC5000-01520	Potentiostat
CAPACITY	QUANT	1.00000E-003	Capacity (A-hr)
CELLTYPE	SELECTOR	1	&Cell Type
WORKINGCONNECTION	SELECTOR	0	&Working Lead
MAXDISCHARGETIME	VARIABLEANDUNITS	1.00000E+002	s	1.00000E+002	second(s)	Max &Discharge Time
DISCHARGEMODE	MULTIPARAM	0	1.00000E-004	&Discharge Mode	Constant Current	Amp(s)
SAMPLETIME	QUANT	1.00000E-002	Sa&mple Period (s)
DISCHARGESTOPAT1	MULTIPARAM	3	0.00000E+000	Discharge Stop At &1	Voltage < Limit	V
DISCHARGESTOPAT2	MULTIPARAM	0	0.00000E+000	Discharge Stop At &2	None	N/A
AESBHCSELECTOR	TOGGLE	F	Save Both Half Cells
IRCOMP	TOGGLE	F	IR &Measure
EOC	QUANT	0	Open Circuit (V)
SEQUENCER	TOGGLE	TRUE	Run as Sequence
PSTATMODEL	IQUANT	53	Pstat Model
PSTATSECTION	LABEL	IFC5000-01520	Pstat Section
PSTATSERIALNO	LABEL	01520	Pstat Serial Number
CTRLMODE	IQUANT	0	Control Mode
ELECTROMETER	IQUANT	1	RE=0 or CS=1
IESTAB	IQUANT	0	I/E Stability
CASPEED	IQUANT	4	Control Amp Speed
CONVENTION	IQUANT	1	Current Convention
ICHRANGE	IQUANT	2	Ich Range
ICHRANGEMODE	TOGGLE	T	Ich Auto Range
ICHOFFSETENABLE	TOGGLE	F	Ich Offset Enable
ICHOFFSET	QUANT	0	Ich Offset (V)
ICHFILTER	IQUANT	1	Ich Filter
VCHRANGE	IQUANT	2	Vch Range
VCHRANGEMODE	TOGGLE	T	Vch Auto Range
VCHOFFSETENABLE	TOGGLE	F	Vch Offset Enable
VCHOFFSET	QUANT	0	Vch Offset (V)
VCHFILTER	IQUANT	1	Vch Filter
IERANGELOWERLIMIT	IQUANT	9	I/E Range Lower Limit
IERANGEMODE	TOGGLE	F	I/E AutoRange
IERANGE	IQUANT	9	I/E Range
ACHSELECT	IQUANT	1	Ach Select
ACHRANGE	IQUANT	2	Ach Range
ACHOFFSETENABLE	TOGGLE	F	Ach Offset Enable
ACHOFFSET	QUANT	0	Ach Offset (V)
ACHFILTER	IQUANT	1	Ach Filter
CABLEID	IQUANT	14	Cable ID
DCCALDATE	LABEL	5-7-2017	DC Calibration Date
ACCALDATE	LABEL	12/3/2015	AC Calibration Date
FRAMEWORKVERSION	QUANT	7.01	Framework Version
INSTRUMENTVERSION	LABEL	4.00	Instrument Version
CURVE	TABLE	94
	Pt	T	Vf	Im	Vu	Pwr	Sig	Ach	Temp	IERange	Over
	#	s	V	A	V	W	V	V	deg C	#	bits
	0	0.013333	8.56428E-001	-9.90426E-005	0.00000E+000	-8.48229E-005	-5.99601E-002	8.56744E-001	3.57950E+000	9	...........
	1	0.026667	8.43898E-001	-9.89405E-005	0.00000E+000	-8.34958E-005	-5.99601E-002	8.44192E-001	3.57950E+000	9	...........
	2	0.04	8.32128E-001	-9.86801E-005	0.00000E+000	-8.21144E-005	-5.99601E-002	8.32445E-001	3.57950E+000	9	...........
	3	0.053333	8.20915E-001	-9.83019E-005	0.00000E+000	-8.06975E-005	-5.99601E-002	8.21226E-001	3.57950E+000	9	...........
	4	0.066667	8.10060E-001	-9.76767E-005	0.00000E+000	-7.91240E-005	-5.99601E-002	8.10380E-001	3.57950E+000	9	...........
	5	0.08	7.99538E-001	-9.83467E-005	0.00000E+000	-7.86319E-005	-5.99601E-002	7.99838E-001	3.57950E+000	9	...........
	6	0.093333	7.89224E-001	-9.81748E-005	0.00000E+000	-7.74819E-005	-5.99601E-002	7.89514E-001	3.57950E+000	9	...........
	7	0.106667	7.79096E-001	-9.69839E-005	0.00000E+000	-7.55597E-005	-5.99601E-002	7.79372E-001	3.57950E+000	9	...........
	8	0.12	7.69081E-001	-9.83519E-005	0.00000E+000	-7.56405E-005	-5.99601E-002	7.69342E-001	3.57950E+000	9	...........
	9	0.133333	7.59141E-001	-9.94740E-005	0.00000E+000	-7.55147E-005	-5.99601E-002	7.59420E-001	3.57950E+000	9	...........
	10	0.146667	7.49315E-001	-9.88082E-005	0.00000E+000	-7.40384E-005	-5.99601E-002	7.49594E-001	3.57950E+000	9	...........
	11	0.16	7.39547E-001	-9.95094E-005	0.00000E+000	-7.35919E-005	-5.99601E-002	7.39828E-001	3.57950E+000	9	...........
	12	0.173333	7.29845E-001	-9.96386E-005	0.00000E+000	-7.27207E-005	-5.99601E-002	7.30113E-001	3.57950E+000	9	...........
	13	0.186667	7.20180E-001	-9.97365E-005	0.00000E+000	-7.18283E-005	-5.99601E-002	7.20458E-001	3.57950E+000	9	...........
	14	0.2	7.10487E-001	-9.83133E-005	0.00000E+000	-6.98503E-005	-5.99601E-002	7.10779E-001	3.57950E+000	9	...........
	15	0.213333	7.00885E-001	-9.87822E-005	0.00000E+000	-6.92350E-005	-5.99601E-002	7.01169E-001	3.57950E+000	9	...........
	16	0.226667	6.91271E-001	-9.89833E-005	0.00000E+000	-6.84242E-005	-5.99601E-002	6.91550E-001	3.57950E+000	9	...........
	17	0.24	6.81666E-001	-9.92229E-005	0.00000E+000	-6.76369E-005	-5.99601E-002	6.81944E-001	3.57950E+000	9	...........
	18	0.253333	6.72069E-001	-9.80539E-005	0.00000E+000	-6.58989E-005	-5.99601E-002	6.72367E-001	3.57950E+000	9	...........
	19	0.266667	6.62449E-001	-9.92823E-005	0.00000E+000	-6.57694E-005	-5.99601E-002	6.62758E-001	3.57950E+000	9	...........
	20	0.28	6.52864E-001	-9.89947E-005	0.00000E+000	-6.46301E-005	-5.99601E-002	6.53171E-001	3.57950E+000	9	...........
	21	0.293333	6.43295E-001	-9.85029E-005	0.00000E+000	-6.33665E-005	-5.99601E-002	6.43573E-001	3.57950E+000	9	...........
	22	0.306667	6.33667E-001	-9.81820E-005	0.00000E+000	-6.22147E-005	-5.99601E-002	6.33951E-001	3.57950E+000	9	...........
	23	0.32	6.24120E-001	-9.96376E-005	0.00000E+000	-6.21858E-005	-5.99601E-002	6.24369E-001	3.57950E+000	9	...........
	24	0.333333	6.14510E-001	-9.84727E-005	0.00000E+000	-6.05125E-005	-5.99601E-002	6.14774E-001	3.57950E+000	9	...........
	25	0.346667	6.04885E-001	-9.87884E-005	0.00000E+000	-5.97556E-005	-5.99601E-002	6.05168E-001	3.57950E+000	9	...........
	26	0.36	5.95305E-001	-9.90051E-005	0.00000E+000	-5.89383E-005	-5.99601E-002	5.95588E-001	3.57950E+000	9	...........
	27	0.373333	5.85700E-001	-9.93083E-005	0.00000E+000	-5.81649E-005	-5.99601E-002	5.85985E-001	3.57950E+000	9	...........
	28	0.386667	5.76101E-001	-9.95834E-005	0.00000E+000	-5.73700E-005	-5.99601E-002	5.76396E-001	3.57950E+000	9	...........
	29	0.4	5.66518E-001	-9.87978E-005	0.00000E+000	-5.59708E-005	-5.99601E-002	5.66823E-001	3.57950E+000	9	...........
	30	0.413333	5.56898E-001	-9.89833E-005	0.00000E+000	-5.51236E-005	-5.99601E-002	5.57202E-001	3.57950E+000	9	...........
	31	0.426667	5.47327E-001	-9.93552E-005	0.00000E+000	-5.43798E-005	-5.99601E-002	5.47615E-001	3.57950E+000	9	...........
	32	0.44	5.37748E-001	-9.99282E-005	0.00000E+000	-5.37362E-005	-5.99601E-002	5.38041E-001	3.57950E+000	9	...........
	33	0.453333	5.28142E-001	-9.95521E-005	0.00000E+000	-5.25776E-005	-5.99601E-002	5.28447E-001	3.57950E+000	9	...........
	34	0.466667	5.18599E-001	-9.90020E-005	0.00000E+000	-5.13424E-005	-5.99601E-002	5.18862E-001	3.57950E+000	9	...........
	35	0.48	5.08996E-001	-9.88374E-005	0.00000E+000	-5.03078E-005	-5.99601E-002	5.09293E-001	3.57950E+000	9	...........
	36	0.493333	4.99434E-001	-9.93375E-005	0.00000E+000	-4.96125E-005	-5.99601E-002	4.99714E-001	3.57950E+000	9	...........
	37	0.506667	4.89905E-001	-9.85655E-005	0.00000E+000	-4.82877E-005	-5.99601E-002	4.90186E-001	3.57950E+000	9	...........
	38	0.52	4.80704E-001	-9.81216E-005	0.00000E+000	-4.71675E-005	-5.99601E-002	4.80836E-001	3.57950E+000	9	...........
	39	0.533333	4.71245E-001	-9.84925E-005	0.00000E+000	-4.64141E-005	-5.99601E-002	4.71350E-001	3.57950E+000	9	...........
	40	0.546667	4.61744E-001	-9.89301E-005	0.00000E+000	-4.56804E-005	-5.99601E-002	4.61842E-001	3.57950E+000	9	...........
	41	0.56	4.52262E-001	-9.93437E-005	0.00000E+000	-4.49294E-005	-5.99601E-002	4.52359E-001	3.57950E+000	9	...........
	42	0.573333	4.42799E-001	-9.92156E-005	0.00000E+000	-4.39326E-005	-5.99601E-002	4.42890E-001	3.57950E+000	9	...........
	43	0.586667	4.33353E-001	-9.83998E-005	0.00000E+000	-4.26419E-005	-5.99601E-002	4.33450E-001	3.57950E+000	9	...........
	44	0.6	4.23929E-001	-9.91500E-005	0.00000E+000	-4.20326E-005	-5.99601E-002	4.24020E-001	3.57950E+000	9	...........
	45	0.613333	4.14530E-001	-9.95375E-005	0.00000E+000	-4.12613E-005	-5.99601E-002	4.14622E-001	3.57950E+000	9	...........
	46	0.626667	4.05160E-001	-9.87551E-005	0.00000E+000	-4.00116E-005	-5.99601E-002	4.05239E-001	3.57950E+000	9	...........
	47	0.64	3.95800E-001	-9.90551E-005	0.00000E+000	-3.92061E-005	-5.99601E-002	3.95877E-001	3.57950E+000	9	...........
	48	0.653333	3.86469E-001	-9.79539E-005	0.00000E+000	-3.78562E-005	-5.99601E-002	3.86544E-001	3.57950E+000	9	...........
	49	0.666667	3.77157E-001	-9.90687E-005	0.00000E+000	-3.73645E-005	-5.99601E-002	3.77235E-001	3.57950E+000	9	...........
	50	0.68	3.67875E-001	-9.96209E-005	0.00000E+000	-3.66481E-005	-5.99601E-002	3.67949E-001	3.57950E+000	9	...........
	51	0.693333	3.58619E-001	-9.84957E-005	0.00000E+000	-3.53225E-005	-5.99601E-002	3.58688E-001	3.57950E+000	9	...........
	52	0.706667	3.49381E-001	-9.89260E-005	0.00000E+000	-3.45628E-005	-5.99601E-002	3.49455E-001	3.57950E+000	9	...........
	53	0.72	3.40161E-001	-9.99012E-005	0.00000E+000	-3.39825E-005	-5.99601E-002	3.40232E-001	3.57950E+000	9	...........
	54	0.733333	3.30967E-001	-9.91093E-005	0.00000E+000	-3.28019E-005	-5.99601E-002	3.31042E-001	3.57994E+000	9	...........
	55	0.746667	3.21813E-001	-9.85113E-005	0.00000E+000	-3.17022E-005	-5.99601E-002	3.21876E-001	3.58020E+000	9	...........
	56	0.76	3.12666E-001	-1.00004E-004	0.00000E+000	-3.12679E-005	-5.99601E-002	3.12726E-001	3.58020E+000	9	...........
	57	0.773333	3.03540E-001	-9.90614E-005	0.00000E+000	-3.00690E-005	-5.99601E-002	3.03599E-001	3.58020E+000	9	...........
	58	0.786667	2.94444E-001	-9.89739E-005	0.00000E+000	-2.91423E-005	-5.99601E-002	2.94496E-001	3.58020E+000	9	...........
	59	0.8	2.85367E-001	-9.95657E-005	0.00000E+000	-2.84128E-005	-5.99601E-002	2.85421E-001	3.58020E+000	9	...........
	60	0.813333	2.76316E-001	-9.85801E-005	0.00000E+000	-2.72392E-005	-5.99601E-002	2.76366E-001	3.58020E+000	9	...........
	61	0.826667	2.67284E-001	-9.89676E-005	0.00000E+000	-2.64525E-005	-5.99601E-002	2.67335E-001	3.58020E+000	9	...........
	62	0.84	2.58278E-001	-9.99522E-005	0.00000E+000	-2.58155E-005	-5.99601E-002	2.58323E-001	3.58020E+000	9	...........
	63	0.853333	2.49285E-001	-9.92844E-005	0.00000E+000	-2.47501E-005	-5.99601E-002	2.49330E-001	3.58020E+000	9	...........
	64	0.866667	2.40328E-001	-9.96438E-005	0.00000E+000	-2.39472E-005	-5.99601E-002	2.40365E-001	3.58020E+000	9	...........
	65	0.88	2.31387E-001	-9.83988E-005	0.00000E+000	-2.27682E-005	-5.99601E-002	2.31423E-001	3.58020E+000	9	...........
	66	0.893333	2.22469E-001	-9.88072E-005	0.00000E+000	-2.19815E-005	-5.99601E-002	2.22506E-001	3.58020E+000	9	...........
	67	0.906667	2.13578E-001	-9.86051E-005	0.00000E+000	-2.10599E-005	-5.99601E-002	2.13611E-001	3.58020E+000	9	...........
	68	0.92	2.04708E-001	-9.90791E-005	0.00000E+000	-2.02822E-005	-5.99601E-002	2.04742E-001	3.58020E+000	9	...........
	69	0.933333	1.95868E-001	-9.82071E-005	0.00000E+000	-1.92356E-005	-5.99601E-002	1.95904E-001	3.58020E+000	9	...........
	70	0.946667	1.87052E-001	-9.87749E-005	0.00000E+000	-1.84760E-005	-5.99601E-002	1.87085E-001	3.58020E+000	9	...........
	71	0.96	1.78267E-001	-9.97053E-005	0.00000E+000	-1.77742E-005	-5.99601E-002	1.78299E-001	3.58020E+000	9	...........
	72	0.97333	1.69512E-001	-9.91291E-005	0.00000E+000	-1.68036E-005	-5.99601E-002	1.69547E-001	3.58020E+000	9	...........
	73	0.98667	1.60801E-001	-9.85384E-005	0.00000E+000	-1.58451E-005	-5.99601E-002	1.60830E-001	3.58020E+000	9	...........
	74	1	1.52118E-001	-9.89447E-005	0.00000E+000	-1.50513E-005	-5.99601E-002	1.52146E-001	3.58020E+000	9	...........
	75	1.01333	1.43481E-001	-9.80768E-005	0.00000E+000	-1.40722E-005	-5.99601E-002	1.43505E-001	3.58020E+000	9	...........
	76	1.02667	1.34882E-001	-9.84519E-005	0.00000E+000	-1.32794E-005	-5.99601E-002	1.34902E-001	3.58020E+000	9	...........
	77	1.04	1.26332E-001	-9.85029E-005	0.00000E+000	-1.24441E-005	-5.99601E-002	1.26351E-001	3.58020E+000	9	...........
	78	1.05333	1.17828E-001	-9.89270E-005	0.00000E+000	-1.16564E-005	-5.99601E-002	1.17847E-001	3.58020E+000	9	...........
	79	1.06667	1.09375E-001	-9.83727E-005	0.00000E+000	-1.07595E-005	-5.99601E-002	1.09392E-001	3.58020E+000	9	...........
	80	1.08	1.00977E-001	-9.91573E-005	0.00000E+000	-1.00126E-005	-5.99601E-002	1.00991E-001	3.58020E+000	9	...........
	81	1.09333	9.26338E-002	-9.80039E-005	0.00000E+000	-9.07847E-006	-5.99601E-002	9.26459E-002	3.58020E+000	9	...........
	82	1.10667	8.43488E-002	-9.86936E-005	0.00000E+000	-8.32469E-006	-5.99601E-002	8.43567E-002	3.58020E+000	9	...........
	83	1.12	7.61306E-002	-9.94573E-005	0.00000E+000	-7.57175E-006	-5.99601E-002	7.61311E-002	3.58020E+000	9	...........
	84	1.13333	6.79668E-002	-9.89155E-005	0.00000E+000	-6.72297E-006	-5.99601E-002	6.79708E-002	3.58020E+000	9	...........
	85	1.14667	5.98768E-002	-9.87259E-005	0.00000E+000	-5.91139E-006	-5.99601E-002	5.98726E-002	3.58020E+000	9	...........
	86	1.16	5.18404E-002	-9.94594E-005	0.00000E+000	-5.15601E-006	-5.99601E-002	5.18397E-002	3.58020E+000	9	...........
	87	1.17333	4.39129E-002	-9.84925E-005	0.00000E+000	-4.32510E-006	-5.99601E-002	4.39031E-002	3.58020E+000	9	...........
	88	1.18667	3.60030E-002	-9.87311E-005	0.00000E+000	-3.55462E-006	-5.99601E-002	3.59934E-002	3.58020E+000	9	...........
	89	1.2	2.81585E-002	-9.86436E-005	0.00000E+000	-2.77766E-006	-5.99601E-002	2.81448E-002	3.58020E+000	9	...........
	90	1.21333	2.03772E-002	-9.84904E-005	0.00000E+000	-2.00696E-006	-5.99601E-002	2.03592E-002	3.58020E+000	9	...........
	91	1.22667	1.26563E-002	-9.89124E-005	0.00000E+000	-1.25186E-006	-5.99601E-002	1.26332E-002	3.58020E+000	9	...........
	92	1.24	4.99696E-003	-9.85144E-005	0.00000E+000	-4.92273E-007	-5.99601E-002	4.96298E-003	3.58020E+000	9	...........
	93	1.24333	2.30620E-004	-9.77726E-005	0.00000E+000	-2.25483E-008	-5.99601E-002	2.09235E-004	3.58020E+000	9	...........
STARTTIMEOFFSET	QUANT	94.38	Start Time Offset (s)
