EXPLAIN
TAG	PWR800_DISCHARGE
TITLE	LABEL	PWR Cyclic Charge Discharge (Cell) - Discharge Step	Test &Identifier
DATE	LABEL	13-7-2017	Date
TIME	LABEL	15:35:52	Time
NOTES	NOTES	2	&Notes...
	supercap test cell
	6M KOH
PSTAT	PSTAT	IFC5000-01520	Potentiostat
CAPACITY	QUANT	1.00000E-003	Capacity (A-hr)
CELLTYPE	SELECTOR	1	&Cell Type
WORKINGCONNECTION	SELECTOR	0	&Working Lead
MAXDISCHARGETIME	VARIABLEANDUNITS	1.00000E+002	s	1.00000E+002	second(s)	Max &Discharge Time
DISCHARGEMODE	MULTIPARAM	0	1.00000E-004	&Discharge Mode	Constant Current	Amp(s)
SAMPLETIME	QUANT	1.00000E-002	Sa&mple Period (s)
DISCHARGESTOPAT1	MULTIPARAM	3	0.00000E+000	Discharge Stop At &1	Voltage < Limit	V
DISCHARGESTOPAT2	MULTIPARAM	0	0.00000E+000	Discharge Stop At &2	None	N/A
AESBHCSELECTOR	TOGGLE	F	Save Both Half Cells
IRCOMP	TOGGLE	F	IR &Measure
EOC	QUANT	0	Open Circuit (V)
SEQUENCER	TOGGLE	TRUE	Run as Sequence
PSTATMODEL	IQUANT	53	Pstat Model
PSTATSECTION	LABEL	IFC5000-01520	Pstat Section
PSTATSERIALNO	LABEL	01520	Pstat Serial Number
CTRLMODE	IQUANT	0	Control Mode
ELECTROMETER	IQUANT	1	RE=0 or CS=1
IESTAB	IQUANT	0	I/E Stability
CASPEED	IQUANT	4	Control Amp Speed
CONVENTION	IQUANT	1	Current Convention
ICHRANGE	IQUANT	2	Ich Range
ICHRANGEMODE	TOGGLE	T	Ich Auto Range
ICHOFFSETENABLE	TOGGLE	F	Ich Offset Enable
ICHOFFSET	QUANT	0	Ich Offset (V)
ICHFILTER	IQUANT	1	Ich Filter
VCHRANGE	IQUANT	2	Vch Range
VCHRANGEMODE	TOGGLE	T	Vch Auto Range
VCHOFFSETENABLE	TOGGLE	F	Vch Offset Enable
VCHOFFSET	QUANT	0	Vch Offset (V)
VCHFILTER	IQUANT	1	Vch Filter
IERANGELOWERLIMIT	IQUANT	9	I/E Range Lower Limit
IERANGEMODE	TOGGLE	F	I/E AutoRange
IERANGE	IQUANT	9	I/E Range
ACHSELECT	IQUANT	1	Ach Select
ACHRANGE	IQUANT	2	Ach Range
ACHOFFSETENABLE	TOGGLE	F	Ach Offset Enable
ACHOFFSET	QUANT	0	Ach Offset (V)
ACHFILTER	IQUANT	1	Ach Filter
CABLEID	IQUANT	14	Cable ID
DCCALDATE	LABEL	5-7-2017	DC Calibration Date
ACCALDATE	LABEL	12/3/2015	AC Calibration Date
FRAMEWORKVERSION	QUANT	7.01	Framework Version
INSTRUMENTVERSION	LABEL	4.00	Instrument Version
CURVE	TABLE	87
	Pt	T	Vf	Im	Vu	Pwr	Sig	Ach	Temp	IERange	Over
	#	s	V	A	V	W	V	V	deg C	#	bits
	0	0.013333	8.48996E-001	-9.88478E-005	0.00000E+000	-8.39214E-005	-5.99601E-002	8.49337E-001	3.57850E+000	9	...........
	1	0.026667	8.34857E-001	-9.80133E-005	0.00000E+000	-8.18271E-005	-5.99601E-002	8.35186E-001	3.57850E+000	9	...........
	2	0.04	8.21561E-001	-9.83206E-005	0.00000E+000	-8.07764E-005	-5.99601E-002	8.21885E-001	3.57850E+000	9	...........
	3	0.053333	8.08853E-001	-9.88499E-005	0.00000E+000	-7.99550E-005	-5.99601E-002	8.09167E-001	3.57850E+000	9	...........
	4	0.066667	7.96566E-001	-9.90385E-005	0.00000E+000	-7.88907E-005	-5.99601E-002	7.96855E-001	3.57850E+000	9	...........
	5	0.08	7.84538E-001	-9.91114E-005	0.00000E+000	-7.77566E-005	-5.99601E-002	7.84829E-001	3.57850E+000	9	...........
	6	0.093333	7.72746E-001	-9.83050E-005	0.00000E+000	-7.59648E-005	-5.99601E-002	7.73024E-001	3.57850E+000	9	...........
	7	0.106667	7.61101E-001	-9.85332E-005	0.00000E+000	-7.49937E-005	-5.99601E-002	7.61366E-001	3.57850E+000	9	...........
	8	0.12	7.49596E-001	-9.91760E-005	0.00000E+000	-7.43419E-005	-5.99601E-002	7.49864E-001	3.57850E+000	9	...........
	9	0.133333	7.38176E-001	-9.81904E-005	0.00000E+000	-7.24817E-005	-5.99601E-002	7.38431E-001	3.57850E+000	9	...........
	10	0.146667	7.26839E-001	-9.85644E-005	0.00000E+000	-7.16404E-005	-5.99601E-002	7.27089E-001	3.57850E+000	9	...........
	11	0.16	7.15526E-001	-9.85134E-005	0.00000E+000	-7.04889E-005	-5.99601E-002	7.15801E-001	3.57850E+000	9	...........
	12	0.173333	7.04295E-001	-9.77486E-005	0.00000E+000	-6.88439E-005	-5.99601E-002	7.04543E-001	3.57850E+000	9	...........
	13	0.186667	6.93095E-001	-9.87259E-005	0.00000E+000	-6.84264E-005	-5.99601E-002	6.93357E-001	3.57850E+000	9	...........
	14	0.2	6.81917E-001	-9.92458E-005	0.00000E+000	-6.76774E-005	-5.99601E-002	6.82167E-001	3.57850E+000	9	...........
	15	0.213333	6.70781E-001	-9.82560E-005	0.00000E+000	-6.59082E-005	-5.99601E-002	6.71014E-001	3.57850E+000	9	...........
	16	0.226667	6.59644E-001	-9.81977E-005	0.00000E+000	-6.47755E-005	-5.99601E-002	6.59893E-001	3.57850E+000	9	...........
	17	0.24	6.48536E-001	-9.86957E-005	0.00000E+000	-6.40077E-005	-5.99601E-002	6.48799E-001	3.57850E+000	9	...........
	18	0.253333	6.37455E-001	-9.88228E-005	0.00000E+000	-6.29950E-005	-5.99601E-002	6.37704E-001	3.57850E+000	9	...........
	19	0.266667	6.26387E-001	-9.85821E-005	0.00000E+000	-6.17505E-005	-5.99601E-002	6.26657E-001	3.57850E+000	9	...........
	20	0.28	6.15354E-001	-9.94907E-005	0.00000E+000	-6.12220E-005	-5.99601E-002	6.15619E-001	3.57850E+000	9	...........
	21	0.293333	6.04294E-001	-9.91989E-005	0.00000E+000	-5.99453E-005	-5.99601E-002	6.04582E-001	3.57850E+000	9	...........
	22	0.306667	5.93338E-001	-9.90822E-005	0.00000E+000	-5.87893E-005	-5.99601E-002	5.93568E-001	3.57850E+000	9	...........
	23	0.32	5.82325E-001	-9.74913E-005	0.00000E+000	-5.67717E-005	-5.99601E-002	5.82566E-001	3.57850E+000	9	...........
	24	0.333333	5.71403E-001	-9.94917E-005	0.00000E+000	-5.68498E-005	-5.99601E-002	5.71610E-001	3.57850E+000	9	...........
	25	0.346667	5.60464E-001	-9.88676E-005	0.00000E+000	-5.54117E-005	-5.99601E-002	5.60694E-001	3.57850E+000	9	...........
	26	0.36	5.49591E-001	-9.89583E-005	0.00000E+000	-5.43865E-005	-5.99601E-002	5.49800E-001	3.57850E+000	9	...........
	27	0.373333	5.38759E-001	-9.93271E-005	0.00000E+000	-5.35134E-005	-5.99601E-002	5.38970E-001	3.57850E+000	9	...........
	28	0.386667	5.27918E-001	-9.90103E-005	0.00000E+000	-5.22693E-005	-5.99601E-002	5.28136E-001	3.57850E+000	9	...........
	29	0.4	5.17194E-001	-9.85238E-005	0.00000E+000	-5.09559E-005	-5.99601E-002	5.17383E-001	3.57850E+000	9	...........
	30	0.413333	5.06427E-001	-9.89155E-005	0.00000E+000	-5.00935E-005	-5.99601E-002	5.06659E-001	3.57850E+000	9	...........
	31	0.426667	4.95782E-001	-9.78361E-005	0.00000E+000	-4.85054E-005	-5.99601E-002	4.96004E-001	3.57850E+000	9	...........
	32	0.44	4.85315E-001	-9.93187E-005	0.00000E+000	-4.82008E-005	-5.99601E-002	4.85489E-001	3.57850E+000	9	...........
	33	0.453333	4.74992E-001	-9.87790E-005	0.00000E+000	-4.69193E-005	-5.99601E-002	4.75088E-001	3.57850E+000	9	...........
	34	0.466667	4.64501E-001	-9.82810E-005	0.00000E+000	-4.56516E-005	-5.99601E-002	4.64596E-001	3.57850E+000	9	...........
	35	0.48	4.54069E-001	-9.77163E-005	0.00000E+000	-4.43700E-005	-5.99601E-002	4.54167E-001	3.57850E+000	9	...........
	36	0.493333	4.43700E-001	-9.92760E-005	0.00000E+000	-4.40488E-005	-5.99601E-002	4.43794E-001	3.57850E+000	9	...........
	37	0.506667	4.33395E-001	-9.91385E-005	0.00000E+000	-4.29661E-005	-5.99601E-002	4.33485E-001	3.57850E+000	9	...........
	38	0.52	4.23154E-001	-9.80904E-005	0.00000E+000	-4.15074E-005	-5.99601E-002	4.23240E-001	3.57850E+000	9	...........
	39	0.533333	4.12979E-001	-9.82998E-005	0.00000E+000	-4.05957E-005	-5.99601E-002	4.13068E-001	3.57850E+000	9	...........
	40	0.546667	4.02870E-001	-9.92562E-005	0.00000E+000	-3.99873E-005	-5.99601E-002	4.02948E-001	3.57850E+000	9	...........
	41	0.56	3.92824E-001	-9.91427E-005	0.00000E+000	-3.89456E-005	-5.99601E-002	3.92898E-001	3.57850E+000	9	...........
	42	0.573333	3.82837E-001	-9.88697E-005	0.00000E+000	-3.78510E-005	-5.99601E-002	3.82911E-001	3.57850E+000	9	...........
	43	0.586667	3.72916E-001	-9.84404E-005	0.00000E+000	-3.67100E-005	-5.99601E-002	3.72986E-001	3.57850E+000	9	...........
	44	0.6	3.63058E-001	-9.86092E-005	0.00000E+000	-3.58009E-005	-5.99601E-002	3.63130E-001	3.57850E+000	9	...........
	45	0.613333	3.53263E-001	-9.84102E-005	0.00000E+000	-3.47647E-005	-5.99601E-002	3.53330E-001	3.57850E+000	9	...........
	46	0.626667	3.43515E-001	-9.81820E-005	0.00000E+000	-3.37271E-005	-5.99601E-002	3.43587E-001	3.57850E+000	9	...........
	47	0.64	3.33835E-001	-9.83019E-005	0.00000E+000	-3.28166E-005	-5.99601E-002	3.33899E-001	3.57850E+000	9	...........
	48	0.653333	3.24212E-001	-9.92052E-005	0.00000E+000	-3.21636E-005	-5.99601E-002	3.24275E-001	3.57850E+000	9	...........
	49	0.666667	3.14630E-001	-9.88541E-005	0.00000E+000	-3.11024E-005	-5.99601E-002	3.14697E-001	3.57850E+000	9	...........
	50	0.68	3.05117E-001	-9.85696E-005	0.00000E+000	-3.00752E-005	-5.99601E-002	3.05172E-001	3.57850E+000	9	...........
	51	0.693333	2.95648E-001	-9.90041E-005	0.00000E+000	-2.92704E-005	-5.99601E-002	2.95703E-001	3.57850E+000	9	...........
	52	0.706667	2.86226E-001	-9.88728E-005	0.00000E+000	-2.83000E-005	-5.99601E-002	2.86281E-001	3.57850E+000	9	...........
	53	0.72	2.76856E-001	-9.94396E-005	0.00000E+000	-2.75304E-005	-5.99601E-002	2.76904E-001	3.57850E+000	9	...........
	54	0.733333	2.67540E-001	-9.90791E-005	0.00000E+000	-2.65076E-005	-5.99601E-002	2.67585E-001	3.57850E+000	9	...........
	55	0.746667	2.58270E-001	-9.85238E-005	0.00000E+000	-2.54457E-005	-5.99601E-002	2.58315E-001	3.57850E+000	9	...........
	56	0.76	2.49045E-001	-9.90156E-005	0.00000E+000	-2.46594E-005	-5.99601E-002	2.49084E-001	3.57850E+000	9	...........
	57	0.773333	2.39874E-001	-9.97449E-005	0.00000E+000	-2.39262E-005	-5.99601E-002	2.39904E-001	3.57850E+000	9	...........
	58	0.786667	2.30745E-001	-9.87061E-005	0.00000E+000	-2.27760E-005	-5.99601E-002	2.30776E-001	3.57850E+000	9	...........
	59	0.8	2.21661E-001	-9.83310E-005	0.00000E+000	-2.17962E-005	-5.99601E-002	2.21692E-001	3.57850E+000	9	...........
	60	0.813333	2.12629E-001	-9.90551E-005	0.00000E+000	-2.10620E-005	-5.99601E-002	2.12661E-001	3.57850E+000	9	...........
	61	0.826667	2.03653E-001	-9.83508E-005	0.00000E+000	-2.00295E-005	-5.99601E-002	2.03680E-001	3.57850E+000	9	...........
	62	0.84	1.94728E-001	-9.90083E-005	0.00000E+000	-1.92796E-005	-5.99601E-002	1.94756E-001	3.57850E+000	9	...........
	63	0.853333	1.85861E-001	-9.88655E-005	0.00000E+000	-1.83753E-005	-5.99601E-002	1.85881E-001	3.57850E+000	9	...........
	64	0.866667	1.77051E-001	-9.87749E-005	0.00000E+000	-1.74882E-005	-5.99601E-002	1.77073E-001	3.57850E+000	9	...........
	65	0.88	1.68303E-001	-9.93458E-005	0.00000E+000	-1.67202E-005	-5.99601E-002	1.68323E-001	3.57868E+000	9	...........
	66	0.893333	1.59619E-001	-9.90072E-005	0.00000E+000	-1.58034E-005	-5.99601E-002	1.59642E-001	3.57990E+000	9	...........
	67	0.906667	1.51004E-001	-9.88645E-005	0.00000E+000	-1.49289E-005	-5.99601E-002	1.51022E-001	3.57990E+000	9	...........
	68	0.92	1.42451E-001	-9.89978E-005	0.00000E+000	-1.41024E-005	-5.99601E-002	1.42469E-001	3.57990E+000	9	...........
	69	0.933333	1.33970E-001	-9.86874E-005	0.00000E+000	-1.32212E-005	-5.99601E-002	1.33979E-001	3.57990E+000	9	...........
	70	0.946667	1.25565E-001	-9.81258E-005	0.00000E+000	-1.23211E-005	-5.99601E-002	1.25572E-001	3.57990E+000	9	...........
	71	0.96	1.17218E-001	-9.84248E-005	0.00000E+000	-1.15371E-005	-5.99601E-002	1.17233E-001	3.57990E+000	9	...........
	72	0.97333	1.08951E-001	-9.82477E-005	0.00000E+000	-1.07042E-005	-5.99601E-002	1.08970E-001	3.57990E+000	9	...........
	73	0.98667	1.00762E-001	-9.80258E-005	0.00000E+000	-9.87729E-006	-5.99601E-002	1.00776E-001	3.57990E+000	9	...........
	74	1	9.26439E-002	-9.95042E-005	0.00000E+000	-9.21846E-006	-5.99601E-002	9.26509E-002	3.57990E+000	9	...........
	75	1.01333	8.45935E-002	-9.98199E-005	0.00000E+000	-8.44411E-006	-5.99601E-002	8.46008E-002	3.57990E+000	9	...........
	76	1.02667	7.66251E-002	-9.95355E-005	0.00000E+000	-7.62691E-006	-5.99601E-002	7.66260E-002	3.57990E+000	9	...........
	77	1.04	6.87263E-002	-9.86811E-005	0.00000E+000	-6.78198E-006	-5.99601E-002	6.87277E-002	3.57990E+000	9	...........
	78	1.05333	6.08934E-002	-9.96084E-005	0.00000E+000	-6.06549E-006	-5.99601E-002	6.08951E-002	3.57990E+000	9	...........
	79	1.06667	5.31384E-002	-9.93156E-005	0.00000E+000	-5.27747E-006	-5.99601E-002	5.31318E-002	3.57990E+000	9	...........
	80	1.08	4.54815E-002	-9.93437E-005	0.00000E+000	-4.51831E-006	-5.99601E-002	4.54702E-002	3.57990E+000	9	...........
	81	1.09333	3.78619E-002	-9.96230E-005	0.00000E+000	-3.77192E-006	-5.99601E-002	3.78512E-002	3.57990E+000	9	...........
	82	1.10667	3.03076E-002	-9.93604E-005	0.00000E+000	-3.01137E-006	-5.99601E-002	3.02962E-002	3.57990E+000	9	...........
	83	1.12	2.28154E-002	-9.87978E-005	0.00000E+000	-2.25411E-006	-5.99601E-002	2.27982E-002	3.57990E+000	9	...........
	84	1.13333	1.53918E-002	-9.84498E-005	0.00000E+000	-1.51532E-006	-5.99601E-002	1.53703E-002	3.57990E+000	9	...........
	85	1.14667	8.03518E-003	-9.93135E-005	0.00000E+000	-7.98002E-007	-5.99601E-002	8.00463E-003	3.57990E+000	9	...........
	86	1.15667	1.65559E-003	-9.91270E-005	0.00000E+000	-1.64114E-007	-5.99601E-002	1.61850E-003	3.57990E+000	9	...........
STARTTIMEOFFSET	QUANT	1530.862	Start Time Offset (s)
