EXPLAIN
TAG	PWR800_DISCHARGE
TITLE	LABEL	PWR Cyclic Charge Discharge (Cell) - Discharge Step	Test &Identifier
DATE	LABEL	13-7-2017	Date
TIME	LABEL	15:54:13	Time
NOTES	NOTES	2	&Notes...
	supercap test cell
	6M KOH
PSTAT	PSTAT	IFC5000-01520	Potentiostat
CAPACITY	QUANT	1.00000E-003	Capacity (A-hr)
CELLTYPE	SELECTOR	1	&Cell Type
WORKINGCONNECTION	SELECTOR	0	&Working Lead
MAXDISCHARGETIME	VARIABLEANDUNITS	1.00000E+002	s	1.00000E+002	second(s)	Max &Discharge Time
DISCHARGEMODE	MULTIPARAM	0	1.00000E-004	&Discharge Mode	Constant Current	Amp(s)
SAMPLETIME	QUANT	1.00000E-002	Sa&mple Period (s)
DISCHARGESTOPAT1	MULTIPARAM	3	0.00000E+000	Discharge Stop At &1	Voltage < Limit	V
DISCHARGESTOPAT2	MULTIPARAM	0	0.00000E+000	Discharge Stop At &2	None	N/A
AESBHCSELECTOR	TOGGLE	F	Save Both Half Cells
IRCOMP	TOGGLE	F	IR &Measure
EOC	QUANT	0	Open Circuit (V)
SEQUENCER	TOGGLE	TRUE	Run as Sequence
PSTATMODEL	IQUANT	53	Pstat Model
PSTATSECTION	LABEL	IFC5000-01520	Pstat Section
PSTATSERIALNO	LABEL	01520	Pstat Serial Number
CTRLMODE	IQUANT	0	Control Mode
ELECTROMETER	IQUANT	1	RE=0 or CS=1
IESTAB	IQUANT	0	I/E Stability
CASPEED	IQUANT	4	Control Amp Speed
CONVENTION	IQUANT	1	Current Convention
ICHRANGE	IQUANT	2	Ich Range
ICHRANGEMODE	TOGGLE	T	Ich Auto Range
ICHOFFSETENABLE	TOGGLE	F	Ich Offset Enable
ICHOFFSET	QUANT	0	Ich Offset (V)
ICHFILTER	IQUANT	1	Ich Filter
VCHRANGE	IQUANT	2	Vch Range
VCHRANGEMODE	TOGGLE	T	Vch Auto Range
VCHOFFSETENABLE	TOGGLE	F	Vch Offset Enable
VCHOFFSET	QUANT	0	Vch Offset (V)
VCHFILTER	IQUANT	1	Vch Filter
IERANGELOWERLIMIT	IQUANT	9	I/E Range Lower Limit
IERANGEMODE	TOGGLE	F	I/E AutoRange
IERANGE	IQUANT	9	I/E Range
ACHSELECT	IQUANT	1	Ach Select
ACHRANGE	IQUANT	2	Ach Range
ACHOFFSETENABLE	TOGGLE	F	Ach Offset Enable
ACHOFFSET	QUANT	0	Ach Offset (V)
ACHFILTER	IQUANT	1	Ach Filter
CABLEID	IQUANT	14	Cable ID
DCCALDATE	LABEL	5-7-2017	DC Calibration Date
ACCALDATE	LABEL	12/3/2015	AC Calibration Date
FRAMEWORKVERSION	QUANT	7.01	Framework Version
INSTRUMENTVERSION	LABEL	4.00	Instrument Version
CURVE	TABLE	85
	Pt	T	Vf	Im	Vu	Pwr	Sig	Ach	Temp	IERange	Over
	#	s	V	A	V	W	V	V	deg C	#	bits
	0	0.013333	8.45868E-001	-9.91135E-005	0.00000E+000	-8.38369E-005	-5.99601E-002	8.46228E-001	3.57910E+000	9	...........
	1	0.026667	8.31536E-001	-9.87217E-005	0.00000E+000	-8.20907E-005	-5.99601E-002	8.31887E-001	3.57910E+000	9	...........
	2	0.04	8.18030E-001	-9.94094E-005	0.00000E+000	-8.13199E-005	-5.99601E-002	8.18385E-001	3.57910E+000	9	...........
	3	0.053333	8.05086E-001	-9.91197E-005	0.00000E+000	-7.98000E-005	-5.99601E-002	8.05426E-001	3.57910E+000	9	...........
	4	0.066667	7.92552E-001	-9.82185E-005	0.00000E+000	-7.78433E-005	-5.99601E-002	7.92867E-001	3.57910E+000	9	...........
	5	0.08	7.80256E-001	-9.83738E-005	0.00000E+000	-7.67567E-005	-5.99601E-002	7.80580E-001	3.57910E+000	9	...........
	6	0.093333	7.68189E-001	-9.89603E-005	0.00000E+000	-7.60202E-005	-5.99601E-002	7.68521E-001	3.57910E+000	9	...........
	7	0.106667	7.56281E-001	-9.93146E-005	0.00000E+000	-7.51097E-005	-5.99601E-002	7.56616E-001	3.57910E+000	9	...........
	8	0.12	7.44477E-001	-9.79883E-005	0.00000E+000	-7.29500E-005	-5.99601E-002	7.44793E-001	3.57910E+000	9	...........
	9	0.133333	7.32764E-001	-9.89062E-005	0.00000E+000	-7.24748E-005	-5.99601E-002	7.33058E-001	3.57910E+000	9	...........
	10	0.146667	7.21128E-001	-9.86540E-005	0.00000E+000	-7.11422E-005	-5.99601E-002	7.21423E-001	3.57910E+000	9	...........
	11	0.16	7.09490E-001	-9.83758E-005	0.00000E+000	-6.97967E-005	-5.99601E-002	7.09800E-001	3.57910E+000	9	...........
	12	0.173333	6.97964E-001	-9.87322E-005	0.00000E+000	-6.89115E-005	-5.99601E-002	6.98260E-001	3.57910E+000	9	...........
	13	0.186667	6.86443E-001	-9.93625E-005	0.00000E+000	-6.82067E-005	-5.99601E-002	6.86745E-001	3.57910E+000	9	...........
	14	0.2	6.74981E-001	-9.92052E-005	0.00000E+000	-6.69616E-005	-5.99601E-002	6.75277E-001	3.57910E+000	9	...........
	15	0.213333	6.63514E-001	-9.91052E-005	0.00000E+000	-6.57577E-005	-5.99601E-002	6.63790E-001	3.57910E+000	9	...........
	16	0.226667	6.52074E-001	-9.86082E-005	0.00000E+000	-6.42998E-005	-5.99601E-002	6.52336E-001	3.57910E+000	9	...........
	17	0.24	6.40647E-001	-9.95813E-005	0.00000E+000	-6.37965E-005	-5.99601E-002	6.40896E-001	3.57910E+000	9	...........
	18	0.253333	6.29268E-001	-9.92583E-005	0.00000E+000	-6.24601E-005	-5.99601E-002	6.29478E-001	3.57910E+000	9	...........
	19	0.266667	6.17907E-001	-9.93010E-005	0.00000E+000	-6.13588E-005	-5.99601E-002	6.18137E-001	3.57910E+000	9	...........
	20	0.28	6.06508E-001	-9.86384E-005	0.00000E+000	-5.98250E-005	-5.99601E-002	6.06802E-001	3.57910E+000	9	...........
	21	0.293333	5.95213E-001	-9.84800E-005	0.00000E+000	-5.86166E-005	-5.99601E-002	5.95475E-001	3.57910E+000	9	...........
	22	0.306667	5.83912E-001	-9.84988E-005	0.00000E+000	-5.75146E-005	-5.99601E-002	5.84170E-001	3.57910E+000	9	...........
	23	0.32	5.72661E-001	-9.85186E-005	0.00000E+000	-5.64177E-005	-5.99601E-002	5.72896E-001	3.57910E+000	9	...........
	24	0.333333	5.61438E-001	-9.83237E-005	0.00000E+000	-5.52027E-005	-5.99601E-002	5.61685E-001	3.57910E+000	9	...........
	25	0.346667	5.50256E-001	-9.86999E-005	0.00000E+000	-5.43102E-005	-5.99601E-002	5.50496E-001	3.57910E+000	9	...........
	26	0.36	5.39147E-001	-9.92354E-005	0.00000E+000	-5.35025E-005	-5.99601E-002	5.39380E-001	3.57910E+000	9	...........
	27	0.373333	5.28052E-001	-9.92917E-005	0.00000E+000	-5.24311E-005	-5.99601E-002	5.28309E-001	3.57910E+000	9	...........
	28	0.386667	5.17058E-001	-9.93323E-005	0.00000E+000	-5.13605E-005	-5.99601E-002	5.17276E-001	3.57910E+000	9	...........
	29	0.4	5.06028E-001	-9.91739E-005	0.00000E+000	-5.01848E-005	-5.99601E-002	5.06285E-001	3.57910E+000	9	...........
	30	0.413333	4.95126E-001	-9.85634E-005	0.00000E+000	-4.88013E-005	-5.99601E-002	4.95378E-001	3.57910E+000	9	...........
	31	0.426667	4.84472E-001	-9.93427E-005	0.00000E+000	-4.81287E-005	-5.99601E-002	4.84625E-001	3.57910E+000	9	...........
	32	0.44	4.73855E-001	-9.87905E-005	0.00000E+000	-4.68124E-005	-5.99601E-002	4.73951E-001	3.57910E+000	9	...........
	33	0.453333	4.63136E-001	-9.86311E-005	0.00000E+000	-4.56796E-005	-5.99601E-002	4.63228E-001	3.57910E+000	9	...........
	34	0.466667	4.52481E-001	-9.84571E-005	0.00000E+000	-4.45500E-005	-5.99601E-002	4.52575E-001	3.57910E+000	9	...........
	35	0.48	4.41902E-001	-9.84717E-005	0.00000E+000	-4.35148E-005	-5.99601E-002	4.41990E-001	3.57910E+000	9	...........
	36	0.493333	4.31400E-001	-9.94042E-005	0.00000E+000	-4.28829E-005	-5.99601E-002	4.31481E-001	3.57910E+000	9	...........
	37	0.506667	4.20958E-001	-9.98866E-005	0.00000E+000	-4.20481E-005	-5.99601E-002	4.21047E-001	3.57910E+000	9	...........
	38	0.52	4.10597E-001	-9.90541E-005	0.00000E+000	-4.06714E-005	-5.99601E-002	4.10679E-001	3.57910E+000	9	...........
	39	0.533333	4.00304E-001	-9.83175E-005	0.00000E+000	-3.93569E-005	-5.99601E-002	4.00380E-001	3.57910E+000	9	...........
	40	0.546667	3.90083E-001	-9.90020E-005	0.00000E+000	-3.86190E-005	-5.99601E-002	3.90158E-001	3.57910E+000	9	...........
	41	0.56	3.79930E-001	-9.97501E-005	0.00000E+000	-3.78980E-005	-5.99601E-002	3.80000E-001	3.57910E+000	9	...........
	42	0.573333	3.69850E-001	-9.89968E-005	0.00000E+000	-3.66140E-005	-5.99601E-002	3.69917E-001	3.57910E+000	9	...........
	43	0.586667	3.59827E-001	-9.89489E-005	0.00000E+000	-3.56045E-005	-5.99601E-002	3.59899E-001	3.57910E+000	9	...........
	44	0.6	3.49878E-001	-9.86113E-005	0.00000E+000	-3.45019E-005	-5.99601E-002	3.49940E-001	3.57910E+000	9	...........
	45	0.613333	3.39984E-001	-9.87759E-005	0.00000E+000	-3.35823E-005	-5.99601E-002	3.40047E-001	3.57910E+000	9	...........
	46	0.626667	3.30156E-001	-9.89697E-005	0.00000E+000	-3.26755E-005	-5.99601E-002	3.30212E-001	3.57910E+000	9	...........
	47	0.64	3.20392E-001	-9.88343E-005	0.00000E+000	-3.16657E-005	-5.99601E-002	3.20450E-001	3.57910E+000	9	...........
	48	0.653333	3.10677E-001	-9.90051E-005	0.00000E+000	-3.07586E-005	-5.99601E-002	3.10736E-001	3.57910E+000	9	...........
	49	0.666667	3.01027E-001	-9.94323E-005	0.00000E+000	-2.99319E-005	-5.99601E-002	3.01084E-001	3.57910E+000	9	...........
	50	0.68	2.91439E-001	-9.84686E-005	0.00000E+000	-2.86976E-005	-5.99601E-002	2.91488E-001	3.57910E+000	9	...........
	51	0.693333	2.81901E-001	-9.92406E-005	0.00000E+000	-2.79760E-005	-5.99601E-002	2.81953E-001	3.57910E+000	9	...........
	52	0.706667	2.72418E-001	-9.86686E-005	0.00000E+000	-2.68791E-005	-5.99601E-002	2.72470E-001	3.57910E+000	9	...........
	53	0.72	2.62982E-001	-9.76236E-005	0.00000E+000	-2.56732E-005	-5.99601E-002	2.63034E-001	3.57910E+000	9	...........
	54	0.733333	2.53610E-001	-9.89864E-005	0.00000E+000	-2.51039E-005	-5.99601E-002	2.53656E-001	3.57910E+000	9	...........
	55	0.746667	2.44293E-001	-9.77559E-005	0.00000E+000	-2.38811E-005	-5.99601E-002	2.44335E-001	3.57910E+000	9	...........
	56	0.76	2.35024E-001	-9.91604E-005	0.00000E+000	-2.33050E-005	-5.99601E-002	2.35062E-001	3.57910E+000	9	...........
	57	0.773333	2.25807E-001	-9.92823E-005	0.00000E+000	-2.24186E-005	-5.99601E-002	2.25844E-001	3.57910E+000	9	...........
	58	0.786667	2.16646E-001	-9.77434E-005	0.00000E+000	-2.11757E-005	-5.99601E-002	2.16684E-001	3.57910E+000	9	...........
	59	0.8	2.07543E-001	-9.91354E-005	0.00000E+000	-2.05748E-005	-5.99601E-002	2.07573E-001	3.57910E+000	9	...........
	60	0.813333	1.98497E-001	-9.92469E-005	0.00000E+000	-1.97002E-005	-5.99601E-002	1.98528E-001	3.58000E+000	9	...........
	61	0.826667	1.89508E-001	-9.91427E-005	0.00000E+000	-1.87883E-005	-5.99601E-002	1.89535E-001	3.58000E+000	9	...........
	62	0.84	1.80580E-001	-9.90531E-005	0.00000E+000	-1.78870E-005	-5.99601E-002	1.80613E-001	3.58000E+000	9	...........
	63	0.853333	1.71722E-001	-9.83144E-005	0.00000E+000	-1.68827E-005	-5.99601E-002	1.71748E-001	3.58000E+000	9	...........
	64	0.866667	1.62929E-001	-9.90551E-005	0.00000E+000	-1.61390E-005	-5.99601E-002	1.62953E-001	3.58000E+000	9	...........
	65	0.88	1.54206E-001	-9.86259E-005	0.00000E+000	-1.52087E-005	-5.99601E-002	1.54227E-001	3.58000E+000	9	...........
	66	0.893333	1.45555E-001	-9.93177E-005	0.00000E+000	-1.44562E-005	-5.99601E-002	1.45572E-001	3.58000E+000	9	...........
	67	0.906667	1.36975E-001	-9.90187E-005	0.00000E+000	-1.35631E-005	-5.99601E-002	1.36992E-001	3.58000E+000	9	...........
	68	0.92	1.28477E-001	-9.88134E-005	0.00000E+000	-1.26953E-005	-5.99601E-002	1.28489E-001	3.58000E+000	9	...........
	69	0.933333	1.20053E-001	-9.81039E-005	0.00000E+000	-1.17777E-005	-5.99601E-002	1.20072E-001	3.58000E+000	9	...........
	70	0.946667	1.11704E-001	-9.89072E-005	0.00000E+000	-1.10483E-005	-5.99601E-002	1.11715E-001	3.58000E+000	9	...........
	71	0.96	1.03437E-001	-9.93604E-005	0.00000E+000	-1.02776E-005	-5.99601E-002	1.03443E-001	3.58000E+000	9	...........
	72	0.97333	9.52393E-002	-9.83133E-005	0.00000E+000	-9.36329E-006	-5.99601E-002	9.52463E-002	3.58000E+000	9	...........
	73	0.98667	8.71130E-002	-9.90874E-005	0.00000E+000	-8.63181E-006	-5.99601E-002	8.71187E-002	3.58000E+000	9	...........
	74	1	7.90641E-002	-9.89937E-005	0.00000E+000	-7.82685E-006	-5.99601E-002	7.90660E-002	3.58000E+000	9	...........
	75	1.01333	7.10926E-002	-9.92302E-005	0.00000E+000	-7.05453E-006	-5.99601E-002	7.10881E-002	3.58000E+000	9	...........
	76	1.02667	6.31924E-002	-9.95011E-005	0.00000E+000	-6.28771E-006	-5.99601E-002	6.31898E-002	3.58000E+000	9	...........
	77	1.04	5.53665E-002	-9.76819E-005	0.00000E+000	-5.40831E-006	-5.99601E-002	5.53627E-002	3.58000E+000	9	...........
	78	1.05333	4.76298E-002	-9.92885E-005	0.00000E+000	-4.72910E-006	-5.99601E-002	4.76169E-002	3.58000E+000	9	...........
	79	1.06667	3.99598E-002	-9.90437E-005	0.00000E+000	-3.95776E-006	-5.99601E-002	3.99504E-002	3.58000E+000	9	...........
	80	1.08	3.23434E-002	-9.93844E-005	0.00000E+000	-3.21443E-006	-5.99601E-002	3.23225E-002	3.58000E+000	9	...........
	81	1.09333	2.47906E-002	-9.90041E-005	0.00000E+000	-2.45437E-006	-5.99601E-002	2.47719E-002	3.58000E+000	9	...........
	82	1.10667	1.73109E-002	-9.86967E-005	0.00000E+000	-1.70852E-006	-5.99601E-002	1.72858E-002	3.58000E+000	9	...........
	83	1.12	9.89496E-003	-9.94188E-005	0.00000E+000	-9.83745E-007	-5.99601E-002	9.86561E-003	3.58000E+000	9	...........
	84	1.13333	2.55071E-003	-9.86259E-005	0.00000E+000	-2.51566E-007	-5.99601E-002	2.51880E-003	3.58000E+000	9	...........
STARTTIMEOFFSET	QUANT	2356.458	Start Time Offset (s)
