EXPLAIN
TAG	PWR800_DISCHARGE
TITLE	LABEL	PWR Cyclic Charge Discharge (Cell) - Discharge Step	Test &Identifier
DATE	LABEL	13-7-2017	Date
TIME	LABEL	15:26:47	Time
NOTES	NOTES	2	&Notes...
	supercap test cell
	6M KOH
PSTAT	PSTAT	IFC5000-01520	Potentiostat
CAPACITY	QUANT	1.00000E-003	Capacity (A-hr)
CELLTYPE	SELECTOR	1	&Cell Type
WORKINGCONNECTION	SELECTOR	0	&Working Lead
MAXDISCHARGETIME	VARIABLEANDUNITS	1.00000E+002	s	1.00000E+002	second(s)	Max &Discharge Time
DISCHARGEMODE	MULTIPARAM	0	1.00000E-004	&Discharge Mode	Constant Current	Amp(s)
SAMPLETIME	QUANT	1.00000E-002	Sa&mple Period (s)
DISCHARGESTOPAT1	MULTIPARAM	3	0.00000E+000	Discharge Stop At &1	Voltage < Limit	V
DISCHARGESTOPAT2	MULTIPARAM	0	0.00000E+000	Discharge Stop At &2	None	N/A
AESBHCSELECTOR	TOGGLE	F	Save Both Half Cells
IRCOMP	TOGGLE	F	IR &Measure
EOC	QUANT	0	Open Circuit (V)
SEQUENCER	TOGGLE	TRUE	Run as Sequence
PSTATMODEL	IQUANT	53	Pstat Model
PSTATSECTION	LABEL	IFC5000-01520	Pstat Section
PSTATSERIALNO	LABEL	01520	Pstat Serial Number
CTRLMODE	IQUANT	0	Control Mode
ELECTROMETER	IQUANT	1	RE=0 or CS=1
IESTAB	IQUANT	0	I/E Stability
CASPEED	IQUANT	4	Control Amp Speed
CONVENTION	IQUANT	1	Current Convention
ICHRANGE	IQUANT	2	Ich Range
ICHRANGEMODE	TOGGLE	T	Ich Auto Range
ICHOFFSETENABLE	TOGGLE	F	Ich Offset Enable
ICHOFFSET	QUANT	0	Ich Offset (V)
ICHFILTER	IQUANT	1	Ich Filter
VCHRANGE	IQUANT	2	Vch Range
VCHRANGEMODE	TOGGLE	T	Vch Auto Range
VCHOFFSETENABLE	TOGGLE	F	Vch Offset Enable
VCHOFFSET	QUANT	0	Vch Offset (V)
VCHFILTER	IQUANT	1	Vch Filter
IERANGELOWERLIMIT	IQUANT	9	I/E Range Lower Limit
IERANGEMODE	TOGGLE	F	I/E AutoRange
IERANGE	IQUANT	9	I/E Range
ACHSELECT	IQUANT	1	Ach Select
ACHRANGE	IQUANT	2	Ach Range
ACHOFFSETENABLE	TOGGLE	F	Ach Offset Enable
ACHOFFSET	QUANT	0	Ach Offset (V)
ACHFILTER	IQUANT	1	Ach Filter
CABLEID	IQUANT	14	Cable ID
DCCALDATE	LABEL	5-7-2017	DC Calibration Date
ACCALDATE	LABEL	12/3/2015	AC Calibration Date
FRAMEWORKVERSION	QUANT	7.01	Framework Version
INSTRUMENTVERSION	LABEL	4.00	Instrument Version
CURVE	TABLE	88
	Pt	T	Vf	Im	Vu	Pwr	Sig	Ach	Temp	IERange	Over
	#	s	V	A	V	W	V	V	deg C	#	bits
	0	0.013333	8.49659E-001	-9.90291E-005	0.00000E+000	-8.41410E-005	-5.99601E-002	8.49991E-001	3.57950E+000	9	...........
	1	0.026667	8.35733E-001	-9.87988E-005	0.00000E+000	-8.25694E-005	-5.99601E-002	8.36106E-001	3.57950E+000	9	...........
	2	0.04	8.22697E-001	-9.88259E-005	0.00000E+000	-8.13038E-005	-5.99601E-002	8.23033E-001	3.57950E+000	9	...........
	3	0.053333	8.10218E-001	-9.86967E-005	0.00000E+000	-7.99659E-005	-5.99601E-002	8.10538E-001	3.57950E+000	9	...........
	4	0.066667	7.98159E-001	-9.89770E-005	0.00000E+000	-7.89994E-005	-5.99601E-002	7.98473E-001	3.57950E+000	9	...........
	5	0.08	7.86378E-001	-9.86665E-005	0.00000E+000	-7.75892E-005	-5.99601E-002	7.86660E-001	3.57950E+000	9	...........
	6	0.093333	7.74809E-001	-9.87092E-005	0.00000E+000	-7.64808E-005	-5.99601E-002	7.75102E-001	3.57950E+000	9	...........
	7	0.106667	7.63399E-001	-9.89853E-005	0.00000E+000	-7.55653E-005	-5.99601E-002	7.63702E-001	3.57950E+000	9	...........
	8	0.12	7.52141E-001	-9.79883E-005	0.00000E+000	-7.37010E-005	-5.99601E-002	7.52442E-001	3.57950E+000	9	...........
	9	0.133333	7.40967E-001	-9.83175E-005	0.00000E+000	-7.28500E-005	-5.99601E-002	7.41254E-001	3.57950E+000	9	...........
	10	0.146667	7.29861E-001	-9.89562E-005	0.00000E+000	-7.22243E-005	-5.99601E-002	7.30139E-001	3.57950E+000	9	...........
	11	0.16	7.18813E-001	-9.94990E-005	0.00000E+000	-7.15212E-005	-5.99601E-002	7.19131E-001	3.57950E+000	9	...........
	12	0.173333	7.07799E-001	-9.88051E-005	0.00000E+000	-6.99342E-005	-5.99601E-002	7.08113E-001	3.57950E+000	9	...........
	13	0.186667	6.96844E-001	-9.85540E-005	0.00000E+000	-6.86768E-005	-5.99601E-002	6.97130E-001	3.57950E+000	9	...........
	14	0.2	6.85915E-001	-9.84259E-005	0.00000E+000	-6.75118E-005	-5.99601E-002	6.86213E-001	3.57950E+000	9	...........
	15	0.213333	6.75006E-001	-9.95948E-005	0.00000E+000	-6.72271E-005	-5.99601E-002	6.75300E-001	3.57950E+000	9	...........
	16	0.226667	6.64116E-001	-9.96292E-005	0.00000E+000	-6.61653E-005	-5.99601E-002	6.64388E-001	3.57950E+000	9	...........
	17	0.24	6.53238E-001	-9.89176E-005	0.00000E+000	-6.46167E-005	-5.99601E-002	6.53517E-001	3.57950E+000	9	...........
	18	0.253333	6.42366E-001	-9.92521E-005	0.00000E+000	-6.37562E-005	-5.99601E-002	6.42671E-001	3.57950E+000	9	...........
	19	0.266667	6.31521E-001	-9.91885E-005	0.00000E+000	-6.26396E-005	-5.99601E-002	6.31781E-001	3.57950E+000	9	...........
	20	0.28	6.20745E-001	-9.82779E-005	0.00000E+000	-6.10055E-005	-5.99601E-002	6.20958E-001	3.57950E+000	9	...........
	21	0.293333	6.09876E-001	-9.88186E-005	0.00000E+000	-6.02671E-005	-5.99601E-002	6.10166E-001	3.57950E+000	9	...........
	22	0.306667	5.99094E-001	-9.83290E-005	0.00000E+000	-5.89083E-005	-5.99601E-002	5.99392E-001	3.57950E+000	9	...........
	23	0.32	5.88325E-001	-9.87582E-005	0.00000E+000	-5.81019E-005	-5.99601E-002	5.88625E-001	3.57950E+000	9	...........
	24	0.333333	5.77590E-001	-9.89103E-005	0.00000E+000	-5.71296E-005	-5.99601E-002	5.77846E-001	3.57950E+000	9	...........
	25	0.346667	5.66871E-001	-9.92906E-005	0.00000E+000	-5.62850E-005	-5.99601E-002	5.67131E-001	3.57950E+000	9	...........
	26	0.36	5.56151E-001	-1.00181E-004	0.00000E+000	-5.57160E-005	-5.99601E-002	5.56410E-001	3.57950E+000	9	...........
	27	0.373333	5.45512E-001	-9.99282E-005	0.00000E+000	-5.45120E-005	-5.99601E-002	5.45755E-001	3.57950E+000	9	...........
	28	0.386667	5.34868E-001	-9.88072E-005	0.00000E+000	-5.28488E-005	-5.99601E-002	5.35110E-001	3.57950E+000	9	...........
	29	0.4	5.24270E-001	-9.96980E-005	0.00000E+000	-5.22687E-005	-5.99601E-002	5.24496E-001	3.57950E+000	9	...........
	30	0.413333	5.13701E-001	-9.93865E-005	0.00000E+000	-5.10550E-005	-5.99601E-002	5.13944E-001	3.57931E+000	9	...........
	31	0.426667	5.03141E-001	-9.89041E-005	0.00000E+000	-4.97627E-005	-5.99601E-002	5.03461E-001	3.57900E+000	9	...........
	32	0.44	4.92700E-001	-9.92125E-005	0.00000E+000	-4.88820E-005	-5.99601E-002	4.92966E-001	3.57900E+000	9	...........
	33	0.453333	4.82568E-001	-9.90593E-005	0.00000E+000	-4.78029E-005	-5.99601E-002	4.82675E-001	3.57900E+000	9	...........
	34	0.466667	4.72291E-001	-9.87217E-005	0.00000E+000	-4.66254E-005	-5.99601E-002	4.72390E-001	3.57900E+000	9	...........
	35	0.48	4.61967E-001	-9.88051E-005	0.00000E+000	-4.56447E-005	-5.99601E-002	4.62060E-001	3.57900E+000	9	...........
	36	0.493333	4.51698E-001	-9.92031E-005	0.00000E+000	-4.48099E-005	-5.99601E-002	4.51794E-001	3.57900E+000	9	...........
	37	0.506667	4.41494E-001	-9.84165E-005	0.00000E+000	-4.34503E-005	-5.99601E-002	4.41588E-001	3.57900E+000	9	...........
	38	0.52	4.31351E-001	-9.91562E-005	0.00000E+000	-4.27712E-005	-5.99601E-002	4.31437E-001	3.57900E+000	9	...........
	39	0.533333	4.21263E-001	-9.89155E-005	0.00000E+000	-4.16695E-005	-5.99601E-002	4.21342E-001	3.57900E+000	9	...........
	40	0.546667	4.11226E-001	-9.88791E-005	0.00000E+000	-4.06617E-005	-5.99601E-002	4.11308E-001	3.57900E+000	9	...........
	41	0.56	4.01257E-001	-9.90166E-005	0.00000E+000	-3.97311E-005	-5.99601E-002	4.01335E-001	3.57900E+000	9	...........
	42	0.573333	3.91342E-001	-9.92260E-005	0.00000E+000	-3.88313E-005	-5.99601E-002	3.91420E-001	3.57900E+000	9	...........
	43	0.586667	3.81489E-001	-9.90572E-005	0.00000E+000	-3.77892E-005	-5.99601E-002	3.81566E-001	3.57900E+000	9	...........
	44	0.6	3.71698E-001	-9.84113E-005	0.00000E+000	-3.65793E-005	-5.99601E-002	3.71765E-001	3.57900E+000	9	...........
	45	0.613333	3.61959E-001	-9.85686E-005	0.00000E+000	-3.56778E-005	-5.99601E-002	3.62028E-001	3.57900E+000	9	...........
	46	0.626667	3.52273E-001	-9.96949E-005	0.00000E+000	-3.51198E-005	-5.99601E-002	3.52345E-001	3.57900E+000	9	...........
	47	0.64	3.42649E-001	-9.89051E-005	0.00000E+000	-3.38898E-005	-5.99601E-002	3.42717E-001	3.57900E+000	9	...........
	48	0.653333	3.33072E-001	-9.91729E-005	0.00000E+000	-3.30317E-005	-5.99601E-002	3.33136E-001	3.57900E+000	9	...........
	49	0.666667	3.23555E-001	-9.90770E-005	0.00000E+000	-3.20569E-005	-5.99601E-002	3.23614E-001	3.57900E+000	9	...........
	50	0.68	3.14084E-001	-9.89187E-005	0.00000E+000	-3.10688E-005	-5.99601E-002	3.14147E-001	3.57900E+000	9	...........
	51	0.693333	3.04666E-001	-9.89760E-005	0.00000E+000	-3.01546E-005	-5.99601E-002	3.04726E-001	3.57900E+000	9	...........
	52	0.706667	2.95295E-001	-9.83863E-005	0.00000E+000	-2.90530E-005	-5.99601E-002	2.95347E-001	3.57900E+000	9	...........
	53	0.72	2.85970E-001	-9.84873E-005	0.00000E+000	-2.81644E-005	-5.99601E-002	2.86029E-001	3.57900E+000	9	...........
	54	0.733333	2.76696E-001	-9.96157E-005	0.00000E+000	-2.75632E-005	-5.99601E-002	2.76746E-001	3.57900E+000	9	...........
	55	0.746667	2.67457E-001	-9.96292E-005	0.00000E+000	-2.66466E-005	-5.99601E-002	2.67508E-001	3.57900E+000	9	...........
	56	0.76	2.58275E-001	-9.91322E-005	0.00000E+000	-2.56033E-005	-5.99601E-002	2.58319E-001	3.57900E+000	9	...........
	57	0.773333	2.49129E-001	-9.85967E-005	0.00000E+000	-2.45633E-005	-5.99601E-002	2.49178E-001	3.57900E+000	9	...........
	58	0.786667	2.40032E-001	-9.90489E-005	0.00000E+000	-2.37750E-005	-5.99601E-002	2.40068E-001	3.57900E+000	9	...........
	59	0.8	2.30979E-001	-9.89781E-005	0.00000E+000	-2.28619E-005	-5.99601E-002	2.31013E-001	3.57900E+000	9	...........
	60	0.813333	2.21969E-001	-9.90187E-005	0.00000E+000	-2.19791E-005	-5.99601E-002	2.21999E-001	3.57900E+000	9	...........
	61	0.826667	2.13004E-001	-9.77226E-005	0.00000E+000	-2.08153E-005	-5.99601E-002	2.13035E-001	3.57900E+000	9	...........
	62	0.84	2.04083E-001	-9.82696E-005	0.00000E+000	-2.00551E-005	-5.99601E-002	2.04114E-001	3.57900E+000	9	...........
	63	0.853333	1.95217E-001	-9.87238E-005	0.00000E+000	-1.92725E-005	-5.99601E-002	1.95246E-001	3.57900E+000	9	...........
	64	0.866667	1.86402E-001	-9.83717E-005	0.00000E+000	-1.83366E-005	-5.99601E-002	1.86426E-001	3.57900E+000	9	...........
	65	0.88	1.77636E-001	-9.92802E-005	0.00000E+000	-1.76357E-005	-5.99601E-002	1.77667E-001	3.57900E+000	9	...........
	66	0.893333	1.68933E-001	-9.90395E-005	0.00000E+000	-1.67310E-005	-5.99601E-002	1.68960E-001	3.57900E+000	9	...........
	67	0.906667	1.60289E-001	-9.92875E-005	0.00000E+000	-1.59147E-005	-5.99601E-002	1.60315E-001	3.57900E+000	9	...........
	68	0.92	1.51710E-001	-9.83800E-005	0.00000E+000	-1.49253E-005	-5.99601E-002	1.51727E-001	3.57900E+000	9	...........
	69	0.933333	1.43187E-001	-9.87634E-005	0.00000E+000	-1.41416E-005	-5.99601E-002	1.43215E-001	3.57900E+000	9	...........
	70	0.946667	1.34732E-001	-9.84790E-005	0.00000E+000	-1.32683E-005	-5.99601E-002	1.34755E-001	3.57900E+000	9	...........
	71	0.96	1.26346E-001	-9.84790E-005	0.00000E+000	-1.24424E-005	-5.99601E-002	1.26364E-001	3.57900E+000	9	...........
	72	0.97333	1.18027E-001	-9.94188E-005	0.00000E+000	-1.17341E-005	-5.99601E-002	1.18046E-001	3.57900E+000	9	...........
	73	0.98667	1.09780E-001	-9.95365E-005	0.00000E+000	-1.09271E-005	-5.99601E-002	1.09794E-001	3.57900E+000	9	...........
	74	1	1.01602E-001	-9.93635E-005	0.00000E+000	-1.00956E-005	-5.99601E-002	1.01616E-001	3.57900E+000	9	...........
	75	1.01333	9.35018E-002	-9.91208E-005	0.00000E+000	-9.26798E-006	-5.99601E-002	9.35112E-002	3.57900E+000	9	...........
	76	1.02667	8.54683E-002	-9.88124E-005	0.00000E+000	-8.44533E-006	-5.99601E-002	8.54754E-002	3.57900E+000	9	...........
	77	1.04	7.75111E-002	-9.91104E-005	0.00000E+000	-7.68215E-006	-5.99601E-002	7.75161E-002	3.57900E+000	9	...........
	78	1.05333	6.96226E-002	-9.83519E-005	0.00000E+000	-6.84752E-006	-5.99601E-002	6.96198E-002	3.57900E+000	9	...........
	79	1.06667	6.17948E-002	-9.93229E-005	0.00000E+000	-6.13764E-006	-5.99601E-002	6.18038E-002	3.57900E+000	9	...........
	80	1.08	5.40500E-002	-9.88770E-005	0.00000E+000	-5.34430E-006	-5.99601E-002	5.40472E-002	3.57900E+000	9	...........
	81	1.09333	4.63978E-002	-9.84644E-005	0.00000E+000	-4.56853E-006	-5.99601E-002	4.63847E-002	3.57900E+000	9	...........
	82	1.10667	3.87873E-002	-9.89635E-005	0.00000E+000	-3.83853E-006	-5.99601E-002	3.87787E-002	3.57900E+000	9	...........
	83	1.12	3.12351E-002	-9.89114E-005	0.00000E+000	-3.08950E-006	-5.99601E-002	3.12246E-002	3.57900E+000	9	...........
	84	1.13333	2.37550E-002	-9.91062E-005	0.00000E+000	-2.35427E-006	-5.99601E-002	2.37328E-002	3.57900E+000	9	...........
	85	1.14667	1.63340E-002	-9.89374E-005	0.00000E+000	-1.61604E-006	-5.99601E-002	1.63075E-002	3.57900E+000	9	...........
	86	1.16	8.97436E-003	-9.91333E-005	0.00000E+000	-8.89658E-007	-5.99601E-002	8.94723E-003	3.57900E+000	9	...........
	87	1.17167	2.13642E-003	-9.90270E-005	0.00000E+000	-2.11563E-007	-5.99601E-002	2.10682E-003	3.57900E+000	9	...........
STARTTIMEOFFSET	QUANT	1121.341	Start Time Offset (s)
