EXPLAIN
TAG	PWR800_DISCHARGE
TITLE	LABEL	PWR Cyclic Charge Discharge (Cell) - Discharge Step	Test &Identifier
DATE	LABEL	13-7-2017	Date
TIME	LABEL	15:04:39	Time
NOTES	NOTES	2	&Notes...
	supercap test cell
	6M KOH
PSTAT	PSTAT	IFC5000-01520	Potentiostat
CAPACITY	QUANT	1.00000E-003	Capacity (A-hr)
CELLTYPE	SELECTOR	1	&Cell Type
WORKINGCONNECTION	SELECTOR	0	&Working Lead
MAXDISCHARGETIME	VARIABLEANDUNITS	1.00000E+002	s	1.00000E+002	second(s)	Max &Discharge Time
DISCHARGEMODE	MULTIPARAM	0	1.00000E-004	&Discharge Mode	Constant Current	Amp(s)
SAMPLETIME	QUANT	1.00000E-002	Sa&mple Period (s)
DISCHARGESTOPAT1	MULTIPARAM	3	0.00000E+000	Discharge Stop At &1	Voltage < Limit	V
DISCHARGESTOPAT2	MULTIPARAM	0	0.00000E+000	Discharge Stop At &2	None	N/A
AESBHCSELECTOR	TOGGLE	F	Save Both Half Cells
IRCOMP	TOGGLE	F	IR &Measure
EOC	QUANT	0	Open Circuit (V)
SEQUENCER	TOGGLE	TRUE	Run as Sequence
PSTATMODEL	IQUANT	53	Pstat Model
PSTATSECTION	LABEL	IFC5000-01520	Pstat Section
PSTATSERIALNO	LABEL	01520	Pstat Serial Number
CTRLMODE	IQUANT	0	Control Mode
ELECTROMETER	IQUANT	1	RE=0 or CS=1
IESTAB	IQUANT	0	I/E Stability
CASPEED	IQUANT	4	Control Amp Speed
CONVENTION	IQUANT	1	Current Convention
ICHRANGE	IQUANT	2	Ich Range
ICHRANGEMODE	TOGGLE	T	Ich Auto Range
ICHOFFSETENABLE	TOGGLE	F	Ich Offset Enable
ICHOFFSET	QUANT	0	Ich Offset (V)
ICHFILTER	IQUANT	1	Ich Filter
VCHRANGE	IQUANT	2	Vch Range
VCHRANGEMODE	TOGGLE	T	Vch Auto Range
VCHOFFSETENABLE	TOGGLE	F	Vch Offset Enable
VCHOFFSET	QUANT	0	Vch Offset (V)
VCHFILTER	IQUANT	1	Vch Filter
IERANGELOWERLIMIT	IQUANT	9	I/E Range Lower Limit
IERANGEMODE	TOGGLE	F	I/E AutoRange
IERANGE	IQUANT	9	I/E Range
ACHSELECT	IQUANT	1	Ach Select
ACHRANGE	IQUANT	2	Ach Range
ACHOFFSETENABLE	TOGGLE	F	Ach Offset Enable
ACHOFFSET	QUANT	0	Ach Offset (V)
ACHFILTER	IQUANT	1	Ach Filter
CABLEID	IQUANT	14	Cable ID
DCCALDATE	LABEL	5-7-2017	DC Calibration Date
ACCALDATE	LABEL	12/3/2015	AC Calibration Date
FRAMEWORKVERSION	QUANT	7.01	Framework Version
INSTRUMENTVERSION	LABEL	4.00	Instrument Version
CURVE	TABLE	94
	Pt	T	Vf	Im	Vu	Pwr	Sig	Ach	Temp	IERange	Over
	#	s	V	A	V	W	V	V	deg C	#	bits
	0	0.013333	8.58205E-001	-9.81393E-005	0.00000E+000	-8.42236E-005	-5.99601E-002	8.58539E-001	3.58020E+000	9	...........
	1	0.026667	8.45596E-001	-9.91072E-005	0.00000E+000	-8.38047E-005	-5.99601E-002	8.45924E-001	3.58020E+000	9	...........
	2	0.04	8.33712E-001	-9.90343E-005	0.00000E+000	-8.25661E-005	-5.99601E-002	8.34068E-001	3.58020E+000	9	...........
	3	0.053333	8.22428E-001	-9.92052E-005	0.00000E+000	-8.15891E-005	-5.99601E-002	8.22768E-001	3.58020E+000	9	...........
	4	0.066667	8.11519E-001	-9.86405E-005	0.00000E+000	-8.00486E-005	-5.99601E-002	8.11846E-001	3.58020E+000	9	...........
	5	0.08	8.00926E-001	-9.89614E-005	0.00000E+000	-7.92608E-005	-5.99601E-002	8.01237E-001	3.58010E+000	9	...........
	6	0.093333	7.90512E-001	-9.84602E-005	0.00000E+000	-7.78340E-005	-5.99601E-002	7.90829E-001	3.57940E+000	9	...........
	7	0.106667	7.80286E-001	-9.83519E-005	0.00000E+000	-7.67426E-005	-5.99601E-002	7.80570E-001	3.57940E+000	9	...........
	8	0.12	7.70196E-001	-9.89249E-005	0.00000E+000	-7.61916E-005	-5.99601E-002	7.70486E-001	3.57940E+000	9	...........
	9	0.133333	7.60202E-001	-9.95240E-005	0.00000E+000	-7.56584E-005	-5.99601E-002	7.60455E-001	3.57940E+000	9	...........
	10	0.146667	7.50297E-001	-9.88343E-005	0.00000E+000	-7.41551E-005	-5.99601E-002	7.50581E-001	3.57940E+000	9	...........
	11	0.16	7.40436E-001	-9.95448E-005	0.00000E+000	-7.37066E-005	-5.99601E-002	7.40733E-001	3.57940E+000	9	...........
	12	0.173333	7.30649E-001	-9.84311E-005	0.00000E+000	-7.19186E-005	-5.99601E-002	7.30938E-001	3.57940E+000	9	...........
	13	0.186667	7.20925E-001	-9.81654E-005	0.00000E+000	-7.07699E-005	-5.99601E-002	7.21189E-001	3.57940E+000	9	...........
	14	0.2	7.11144E-001	-9.86769E-005	0.00000E+000	-7.01735E-005	-5.99601E-002	7.11440E-001	3.57940E+000	9	...........
	15	0.213333	7.01447E-001	-9.91625E-005	0.00000E+000	-6.95572E-005	-5.99601E-002	7.01764E-001	3.57940E+000	9	...........
	16	0.226667	6.91770E-001	-9.86217E-005	0.00000E+000	-6.82235E-005	-5.99601E-002	6.92064E-001	3.57940E+000	9	...........
	17	0.24	6.82091E-001	-9.84029E-005	0.00000E+000	-6.71198E-005	-5.99601E-002	6.82382E-001	3.57940E+000	9	...........
	18	0.253333	6.72444E-001	-9.83039E-005	0.00000E+000	-6.61039E-005	-5.99601E-002	6.72713E-001	3.57940E+000	9	...........
	19	0.266667	6.62761E-001	-9.86603E-005	0.00000E+000	-6.53882E-005	-5.99601E-002	6.63042E-001	3.57940E+000	9	...........
	20	0.28	6.53099E-001	-9.85061E-005	0.00000E+000	-6.43342E-005	-5.99601E-002	6.53383E-001	3.57940E+000	9	...........
	21	0.293333	6.43438E-001	-9.80716E-005	0.00000E+000	-6.31030E-005	-5.99601E-002	6.43708E-001	3.57940E+000	9	...........
	22	0.306667	6.33754E-001	-9.88520E-005	0.00000E+000	-6.26479E-005	-5.99601E-002	6.34022E-001	3.57940E+000	9	...........
	23	0.32	6.24127E-001	-9.82175E-005	0.00000E+000	-6.13002E-005	-5.99601E-002	6.24353E-001	3.57940E+000	9	...........
	24	0.333333	6.14448E-001	-9.81935E-005	0.00000E+000	-6.03349E-005	-5.99601E-002	6.14693E-001	3.57940E+000	9	...........
	25	0.346667	6.04754E-001	-9.88103E-005	0.00000E+000	-5.97559E-005	-5.99601E-002	6.05038E-001	3.57940E+000	9	...........
	26	0.36	5.95108E-001	-9.98949E-005	0.00000E+000	-5.94482E-005	-5.99601E-002	5.95365E-001	3.57940E+000	9	...........
	27	0.373333	5.85434E-001	-9.92073E-005	0.00000E+000	-5.80793E-005	-5.99601E-002	5.85696E-001	3.57940E+000	9	...........
	28	0.386667	5.75773E-001	-9.85040E-005	0.00000E+000	-5.67159E-005	-5.99601E-002	5.76018E-001	3.57940E+000	9	...........
	29	0.4	5.66094E-001	-9.88280E-005	0.00000E+000	-5.59460E-005	-5.99601E-002	5.66364E-001	3.57940E+000	9	...........
	30	0.413333	5.56402E-001	-9.92833E-005	0.00000E+000	-5.52414E-005	-5.99601E-002	5.56671E-001	3.57940E+000	9	...........
	31	0.426667	5.46765E-001	-9.91552E-005	0.00000E+000	-5.42145E-005	-5.99601E-002	5.47006E-001	3.57940E+000	9	...........
	32	0.44	5.37112E-001	-9.94188E-005	0.00000E+000	-5.33991E-005	-5.99601E-002	5.37374E-001	3.57940E+000	9	...........
	33	0.453333	5.27463E-001	-9.91416E-005	0.00000E+000	-5.22935E-005	-5.99601E-002	5.27741E-001	3.57940E+000	9	...........
	34	0.466667	5.17882E-001	-9.92594E-005	0.00000E+000	-5.14046E-005	-5.99601E-002	5.18107E-001	3.57940E+000	9	...........
	35	0.48	5.08203E-001	-9.99980E-005	0.00000E+000	-5.08193E-005	-5.99601E-002	5.08481E-001	3.57940E+000	9	...........
	36	0.493333	4.98581E-001	-9.97428E-005	0.00000E+000	-4.97298E-005	-5.99601E-002	4.98850E-001	3.57940E+000	9	...........
	37	0.506667	4.89010E-001	-9.84519E-005	0.00000E+000	-4.81439E-005	-5.99601E-002	4.89285E-001	3.57940E+000	9	...........
	38	0.52	4.79807E-001	-9.86894E-005	0.00000E+000	-4.73519E-005	-5.99601E-002	4.79912E-001	3.57940E+000	9	...........
	39	0.533333	4.70243E-001	-9.88582E-005	0.00000E+000	-4.64874E-005	-5.99601E-002	4.70343E-001	3.57940E+000	9	...........
	40	0.546667	4.60697E-001	-9.81352E-005	0.00000E+000	-4.52106E-005	-5.99601E-002	4.60798E-001	3.57940E+000	9	...........
	41	0.56	4.51175E-001	-9.89520E-005	0.00000E+000	-4.46447E-005	-5.99601E-002	4.51268E-001	3.57940E+000	9	...........
	42	0.573333	4.41673E-001	-9.92864E-005	0.00000E+000	-4.38522E-005	-5.99601E-002	4.41775E-001	3.57940E+000	9	...........
	43	0.586667	4.32197E-001	-9.87686E-005	0.00000E+000	-4.26876E-005	-5.99601E-002	4.32291E-001	3.57940E+000	9	...........
	44	0.6	4.22741E-001	-9.86457E-005	0.00000E+000	-4.17016E-005	-5.99601E-002	4.22834E-001	3.57940E+000	9	...........
	45	0.613333	4.13309E-001	-9.88530E-005	0.00000E+000	-4.08568E-005	-5.99601E-002	4.13403E-001	3.57940E+000	9	...........
	46	0.626667	4.03908E-001	-9.93771E-005	0.00000E+000	-4.01392E-005	-5.99601E-002	4.03989E-001	3.57940E+000	9	...........
	47	0.64	3.94536E-001	-9.87957E-005	0.00000E+000	-3.89785E-005	-5.99601E-002	3.94610E-001	3.57940E+000	9	...........
	48	0.653333	3.85178E-001	-9.88759E-005	0.00000E+000	-3.80849E-005	-5.99601E-002	3.85249E-001	3.57940E+000	9	...........
	49	0.666667	3.75858E-001	-9.82185E-005	0.00000E+000	-3.69162E-005	-5.99601E-002	3.75931E-001	3.57940E+000	9	...........
	50	0.68	3.66564E-001	-9.88582E-005	0.00000E+000	-3.62379E-005	-5.99601E-002	3.66632E-001	3.57940E+000	9	...........
	51	0.693333	3.57287E-001	-9.91729E-005	0.00000E+000	-3.54332E-005	-5.99601E-002	3.57358E-001	3.57940E+000	9	...........
	52	0.706667	3.48040E-001	-9.80977E-005	0.00000E+000	-3.41419E-005	-5.99601E-002	3.48108E-001	3.57940E+000	9	...........
	53	0.72	3.38822E-001	-9.86051E-005	0.00000E+000	-3.34095E-005	-5.99601E-002	3.38890E-001	3.57940E+000	9	...........
	54	0.733333	3.29628E-001	-9.91239E-005	0.00000E+000	-3.26740E-005	-5.99601E-002	3.29695E-001	3.57940E+000	9	...........
	55	0.746667	3.20459E-001	-9.85936E-005	0.00000E+000	-3.15952E-005	-5.99601E-002	3.20526E-001	3.57940E+000	9	...........
	56	0.76	3.11323E-001	-9.78528E-005	0.00000E+000	-3.04639E-005	-5.99601E-002	3.11386E-001	3.57940E+000	9	...........
	57	0.773333	3.02204E-001	-9.84790E-005	0.00000E+000	-2.97608E-005	-5.99601E-002	3.02270E-001	3.57940E+000	9	...........
	58	0.786667	2.93118E-001	-9.77486E-005	0.00000E+000	-2.86518E-005	-5.99601E-002	2.93173E-001	3.57940E+000	9	...........
	59	0.8	2.84050E-001	-9.91500E-005	0.00000E+000	-2.81635E-005	-5.99601E-002	2.84112E-001	3.57940E+000	9	...........
	60	0.813333	2.75008E-001	-9.89385E-005	0.00000E+000	-2.72088E-005	-5.99601E-002	2.75062E-001	3.57940E+000	9	...........
	61	0.826667	2.65985E-001	-9.94979E-005	0.00000E+000	-2.64650E-005	-5.99601E-002	2.66046E-001	3.57940E+000	9	...........
	62	0.84	2.56997E-001	-9.83404E-005	0.00000E+000	-2.52732E-005	-5.99601E-002	2.57051E-001	3.57940E+000	9	...........
	63	0.853333	2.48029E-001	-9.86394E-005	0.00000E+000	-2.44655E-005	-5.99601E-002	2.48080E-001	3.57940E+000	9	...........
	64	0.866667	2.39088E-001	-9.93958E-005	0.00000E+000	-2.37644E-005	-5.99601E-002	2.39131E-001	3.57940E+000	9	...........
	65	0.88	2.30175E-001	-9.92771E-005	0.00000E+000	-2.28511E-005	-5.99601E-002	2.30216E-001	3.57940E+000	9	...........
	66	0.893333	2.21280E-001	-9.94719E-005	0.00000E+000	-2.20111E-005	-5.99601E-002	2.21320E-001	3.57940E+000	9	...........
	67	0.906667	2.12414E-001	-9.88322E-005	0.00000E+000	-2.09933E-005	-5.99601E-002	2.12452E-001	3.57940E+000	9	...........
	68	0.92	2.03576E-001	-9.85029E-005	0.00000E+000	-2.00528E-005	-5.99601E-002	2.03610E-001	3.57940E+000	9	...........
	69	0.933333	1.94763E-001	-9.94698E-005	0.00000E+000	-1.93730E-005	-5.99601E-002	1.94793E-001	3.57940E+000	9	...........
	70	0.946667	1.85986E-001	-9.89207E-005	0.00000E+000	-1.83979E-005	-5.99601E-002	1.86015E-001	3.57940E+000	9	...........
	71	0.96	1.77232E-001	-9.89739E-005	0.00000E+000	-1.75413E-005	-5.99601E-002	1.77263E-001	3.57940E+000	9	...........
	72	0.97333	1.68520E-001	-9.85842E-005	0.00000E+000	-1.66134E-005	-5.99601E-002	1.68549E-001	3.57940E+000	9	...........
	73	0.98667	1.59845E-001	-9.96917E-005	0.00000E+000	-1.59352E-005	-5.99601E-002	1.59871E-001	3.57940E+000	9	...........
	74	1	1.51212E-001	-9.86217E-005	0.00000E+000	-1.49128E-005	-5.99601E-002	1.51231E-001	3.57940E+000	9	...........
	75	1.01333	1.42618E-001	-9.87624E-005	0.00000E+000	-1.40853E-005	-5.99601E-002	1.42639E-001	3.57940E+000	9	...........
	76	1.02667	1.34068E-001	-9.89322E-005	0.00000E+000	-1.32636E-005	-5.99601E-002	1.34084E-001	3.57940E+000	9	...........
	77	1.04	1.25561E-001	-9.81581E-005	0.00000E+000	-1.23248E-005	-5.99601E-002	1.25579E-001	3.57940E+000	9	...........
	78	1.05333	1.17107E-001	-9.81143E-005	0.00000E+000	-1.14898E-005	-5.99601E-002	1.17123E-001	3.57940E+000	9	...........
	79	1.06667	1.08706E-001	-9.84957E-005	0.00000E+000	-1.07070E-005	-5.99601E-002	1.08720E-001	3.57940E+000	9	...........
	80	1.08	1.00365E-001	-9.93906E-005	0.00000E+000	-9.97536E-006	-5.99601E-002	1.00376E-001	3.57944E+000	9	...........
	81	1.09333	9.20785E-002	-9.86071E-005	0.00000E+000	-9.07960E-006	-5.99601E-002	9.20857E-002	3.57970E+000	9	...........
	82	1.10667	8.38532E-002	-9.91635E-005	0.00000E+000	-8.31518E-006	-5.99601E-002	8.38583E-002	3.57970E+000	9	...........
	83	1.12	7.56893E-002	-9.95302E-005	0.00000E+000	-7.53338E-006	-5.99601E-002	7.56869E-002	3.57970E+000	9	...........
	84	1.13333	6.75841E-002	-9.89874E-005	0.00000E+000	-6.68998E-006	-5.99601E-002	6.75801E-002	3.57970E+000	9	...........
	85	1.14667	5.95411E-002	-9.89353E-005	0.00000E+000	-5.89072E-006	-5.99601E-002	5.95390E-002	3.57970E+000	9	...........
	86	1.16	5.15633E-002	-9.99293E-005	0.00000E+000	-5.15269E-006	-5.99601E-002	5.15567E-002	3.57970E+000	9	...........
	87	1.17333	4.36855E-002	-9.88259E-005	0.00000E+000	-4.31726E-006	-5.99601E-002	4.36759E-002	3.57970E+000	9	...........
	88	1.18667	3.58299E-002	-9.92823E-005	0.00000E+000	-3.55728E-006	-5.99601E-002	3.58237E-002	3.57970E+000	9	...........
	89	1.2	2.80399E-002	-9.81998E-005	0.00000E+000	-2.75351E-006	-5.99601E-002	2.80268E-002	3.57970E+000	9	...........
	90	1.21333	2.03121E-002	-9.87988E-005	0.00000E+000	-2.00681E-006	-5.99601E-002	2.02923E-002	3.57970E+000	9	...........
	91	1.22667	1.26443E-002	-9.79508E-005	0.00000E+000	-1.23852E-006	-5.99601E-002	1.26210E-002	3.57970E+000	9	...........
	92	1.24	5.03086E-003	-9.93729E-005	0.00000E+000	-4.99931E-007	-5.99601E-002	5.00066E-003	3.57970E+000	9	...........
	93	1.24333	3.06003E-004	-9.86561E-005	0.00000E+000	-3.01890E-008	-5.99601E-002	2.72254E-004	3.57970E+000	9	...........
STARTTIMEOFFSET	QUANT	112.5583	Start Time Offset (s)
