EXPLAIN
TAG	PWR800_DISCHARGE
TITLE	LABEL	PWR Cyclic Charge Discharge (Cell) - Discharge Step	Test &Identifier
DATE	LABEL	13-7-2017	Date
TIME	LABEL	15:51:47	Time
NOTES	NOTES	2	&Notes...
	supercap test cell
	6M KOH
PSTAT	PSTAT	IFC5000-01520	Potentiostat
CAPACITY	QUANT	1.00000E-003	Capacity (A-hr)
CELLTYPE	SELECTOR	1	&Cell Type
WORKINGCONNECTION	SELECTOR	0	&Working Lead
MAXDISCHARGETIME	VARIABLEANDUNITS	1.00000E+002	s	1.00000E+002	second(s)	Max &Discharge Time
DISCHARGEMODE	MULTIPARAM	0	1.00000E-004	&Discharge Mode	Constant Current	Amp(s)
SAMPLETIME	QUANT	1.00000E-002	Sa&mple Period (s)
DISCHARGESTOPAT1	MULTIPARAM	3	0.00000E+000	Discharge Stop At &1	Voltage < Limit	V
DISCHARGESTOPAT2	MULTIPARAM	0	0.00000E+000	Discharge Stop At &2	None	N/A
AESBHCSELECTOR	TOGGLE	F	Save Both Half Cells
IRCOMP	TOGGLE	F	IR &Measure
EOC	QUANT	0	Open Circuit (V)
SEQUENCER	TOGGLE	TRUE	Run as Sequence
PSTATMODEL	IQUANT	53	Pstat Model
PSTATSECTION	LABEL	IFC5000-01520	Pstat Section
PSTATSERIALNO	LABEL	01520	Pstat Serial Number
CTRLMODE	IQUANT	0	Control Mode
ELECTROMETER	IQUANT	1	RE=0 or CS=1
IESTAB	IQUANT	0	I/E Stability
CASPEED	IQUANT	4	Control Amp Speed
CONVENTION	IQUANT	1	Current Convention
ICHRANGE	IQUANT	2	Ich Range
ICHRANGEMODE	TOGGLE	T	Ich Auto Range
ICHOFFSETENABLE	TOGGLE	F	Ich Offset Enable
ICHOFFSET	QUANT	0	Ich Offset (V)
ICHFILTER	IQUANT	1	Ich Filter
VCHRANGE	IQUANT	2	Vch Range
VCHRANGEMODE	TOGGLE	T	Vch Auto Range
VCHOFFSETENABLE	TOGGLE	F	Vch Offset Enable
VCHOFFSET	QUANT	0	Vch Offset (V)
VCHFILTER	IQUANT	1	Vch Filter
IERANGELOWERLIMIT	IQUANT	9	I/E Range Lower Limit
IERANGEMODE	TOGGLE	F	I/E AutoRange
IERANGE	IQUANT	9	I/E Range
ACHSELECT	IQUANT	1	Ach Select
ACHRANGE	IQUANT	2	Ach Range
ACHOFFSETENABLE	TOGGLE	F	Ach Offset Enable
ACHOFFSET	QUANT	0	Ach Offset (V)
ACHFILTER	IQUANT	1	Ach Filter
CABLEID	IQUANT	14	Cable ID
DCCALDATE	LABEL	5-7-2017	DC Calibration Date
ACCALDATE	LABEL	12/3/2015	AC Calibration Date
FRAMEWORKVERSION	QUANT	7.01	Framework Version
INSTRUMENTVERSION	LABEL	4.00	Instrument Version
CURVE	TABLE	86
	Pt	T	Vf	Im	Vu	Pwr	Sig	Ach	Temp	IERange	Over
	#	s	V	A	V	W	V	V	deg C	#	bits
	0	0.013333	8.46090E-001	-9.88624E-005	0.00000E+000	-8.36465E-005	-5.99601E-002	8.46417E-001	3.57860E+000	9	...........
	1	0.026667	8.31773E-001	-9.92385E-005	0.00000E+000	-8.25439E-005	-5.99601E-002	8.32108E-001	3.57860E+000	9	...........
	2	0.04	8.18318E-001	-9.85519E-005	0.00000E+000	-8.06468E-005	-5.99601E-002	8.18635E-001	3.57860E+000	9	...........
	3	0.053333	8.05413E-001	-9.87770E-005	0.00000E+000	-7.95562E-005	-5.99601E-002	8.05697E-001	3.57860E+000	9	...........
	4	0.066667	7.92884E-001	-9.99053E-005	0.00000E+000	-7.92134E-005	-5.99601E-002	7.93172E-001	3.57860E+000	9	...........
	5	0.08	7.80631E-001	-9.81289E-005	0.00000E+000	-7.66025E-005	-5.99601E-002	7.80915E-001	3.57860E+000	9	...........
	6	0.093333	7.68589E-001	-9.84269E-005	0.00000E+000	-7.56498E-005	-5.99601E-002	7.68872E-001	3.57860E+000	9	...........
	7	0.106667	7.56710E-001	-9.88728E-005	0.00000E+000	-7.48180E-005	-5.99601E-002	7.56980E-001	3.57860E+000	9	...........
	8	0.12	7.44937E-001	-9.83165E-005	0.00000E+000	-7.32395E-005	-5.99601E-002	7.45204E-001	3.57860E+000	9	...........
	9	0.133333	7.33252E-001	-9.84863E-005	0.00000E+000	-7.22153E-005	-5.99601E-002	7.33514E-001	3.57860E+000	9	...........
	10	0.146667	7.21666E-001	-9.89645E-005	0.00000E+000	-7.14193E-005	-5.99601E-002	7.21915E-001	3.57860E+000	9	...........
	11	0.16	7.10065E-001	-9.81956E-005	0.00000E+000	-6.97253E-005	-5.99601E-002	7.10334E-001	3.57860E+000	9	...........
	12	0.173333	6.98566E-001	-9.93135E-005	0.00000E+000	-6.93770E-005	-5.99601E-002	6.98830E-001	3.57860E+000	9	...........
	13	0.186667	6.87067E-001	-9.87134E-005	0.00000E+000	-6.78227E-005	-5.99601E-002	6.87340E-001	3.57860E+000	9	...........
	14	0.2	6.75622E-001	-9.95063E-005	0.00000E+000	-6.72287E-005	-5.99601E-002	6.75892E-001	3.57860E+000	9	...........
	15	0.213333	6.64198E-001	-9.85707E-005	0.00000E+000	-6.54705E-005	-5.99601E-002	6.64481E-001	3.57860E+000	9	...........
	16	0.226667	6.52776E-001	-9.92010E-005	0.00000E+000	-6.47561E-005	-5.99601E-002	6.53048E-001	3.57860E+000	9	...........
	17	0.24	6.41378E-001	-9.91520E-005	0.00000E+000	-6.35940E-005	-5.99601E-002	6.41671E-001	3.57860E+000	9	...........
	18	0.253333	6.30018E-001	-9.87613E-005	0.00000E+000	-6.22214E-005	-5.99601E-002	6.30274E-001	3.57860E+000	9	...........
	19	0.266667	6.18674E-001	-9.92937E-005	0.00000E+000	-6.14304E-005	-5.99601E-002	6.18957E-001	3.57860E+000	9	...........
	20	0.28	6.07310E-001	-9.87895E-005	0.00000E+000	-5.99958E-005	-5.99601E-002	6.07617E-001	3.57860E+000	9	...........
	21	0.293333	5.96055E-001	-9.94813E-005	0.00000E+000	-5.92964E-005	-5.99601E-002	5.96313E-001	3.57860E+000	9	...........
	22	0.306667	5.84791E-001	-9.86967E-005	0.00000E+000	-5.77170E-005	-5.99601E-002	5.85072E-001	3.57860E+000	9	...........
	23	0.32	5.73606E-001	-9.91114E-005	0.00000E+000	-5.68509E-005	-5.99601E-002	5.73833E-001	3.57860E+000	9	...........
	24	0.333333	5.62372E-001	-9.98126E-005	0.00000E+000	-5.61318E-005	-5.99601E-002	5.62655E-001	3.57860E+000	9	...........
	25	0.346667	5.51244E-001	-9.89895E-005	0.00000E+000	-5.45674E-005	-5.99601E-002	5.51489E-001	3.57860E+000	9	...........
	26	0.36	5.40137E-001	-9.90749E-005	0.00000E+000	-5.35141E-005	-5.99601E-002	5.40387E-001	3.57860E+000	9	...........
	27	0.373333	5.29058E-001	-9.91322E-005	0.00000E+000	-5.24467E-005	-5.99601E-002	5.29312E-001	3.57860E+000	9	...........
	28	0.386667	5.18074E-001	-9.89510E-005	0.00000E+000	-5.12639E-005	-5.99601E-002	5.18296E-001	3.57860E+000	9	...........
	29	0.4	5.07086E-001	-9.83571E-005	0.00000E+000	-4.98755E-005	-5.99601E-002	5.07340E-001	3.57860E+000	9	...........
	30	0.413333	4.96189E-001	-9.84175E-005	0.00000E+000	-4.88336E-005	-5.99601E-002	4.96479E-001	3.57860E+000	9	...........
	31	0.426667	4.85526E-001	-9.84873E-005	0.00000E+000	-4.78182E-005	-5.99601E-002	4.85721E-001	3.57854E+000	9	...........
	32	0.44	4.74982E-001	-9.94438E-005	0.00000E+000	-4.72340E-005	-5.99601E-002	4.75078E-001	3.57850E+000	9	...........
	33	0.453333	4.64273E-001	-9.84779E-005	0.00000E+000	-4.57206E-005	-5.99601E-002	4.64365E-001	3.57850E+000	9	...........
	34	0.466667	4.53636E-001	-9.96574E-005	0.00000E+000	-4.52082E-005	-5.99601E-002	4.53726E-001	3.57850E+000	9	...........
	35	0.48	4.43073E-001	-9.87665E-005	0.00000E+000	-4.37608E-005	-5.99601E-002	4.43162E-001	3.57850E+000	9	...........
	36	0.493333	4.32574E-001	-9.88697E-005	0.00000E+000	-4.27684E-005	-5.99601E-002	4.32658E-001	3.57850E+000	9	...........
	37	0.506667	4.22144E-001	-9.87863E-005	0.00000E+000	-4.17020E-005	-5.99601E-002	4.22231E-001	3.57850E+000	9	...........
	38	0.52	4.11790E-001	-9.87811E-005	0.00000E+000	-4.06771E-005	-5.99601E-002	4.11875E-001	3.57850E+000	9	...........
	39	0.533333	4.01504E-001	-9.79518E-005	0.00000E+000	-3.93280E-005	-5.99601E-002	4.01580E-001	3.57850E+000	9	...........
	40	0.546667	3.91294E-001	-9.90010E-005	0.00000E+000	-3.87385E-005	-5.99601E-002	3.91360E-001	3.57850E+000	9	...........
	41	0.56	3.81144E-001	-9.94375E-005	0.00000E+000	-3.79000E-005	-5.99601E-002	3.81211E-001	3.57850E+000	9	...........
	42	0.573333	3.71067E-001	-9.90729E-005	0.00000E+000	-3.67627E-005	-5.99601E-002	3.71134E-001	3.57850E+000	9	...........
	43	0.586667	3.61059E-001	-9.84196E-005	0.00000E+000	-3.55353E-005	-5.99601E-002	3.61128E-001	3.57850E+000	9	...........
	44	0.6	3.51111E-001	-9.85832E-005	0.00000E+000	-3.46136E-005	-5.99601E-002	3.51178E-001	3.57850E+000	9	...........
	45	0.613333	3.41232E-001	-9.82508E-005	0.00000E+000	-3.35264E-005	-5.99601E-002	3.41300E-001	3.57850E+000	9	...........
	46	0.626667	3.31416E-001	-9.78278E-005	0.00000E+000	-3.24217E-005	-5.99601E-002	3.31481E-001	3.57850E+000	9	...........
	47	0.64	3.21664E-001	-9.86769E-005	0.00000E+000	-3.17408E-005	-5.99601E-002	3.21724E-001	3.57850E+000	9	...........
	48	0.653333	3.11966E-001	-9.91750E-005	0.00000E+000	-3.09392E-005	-5.99601E-002	3.12024E-001	3.57850E+000	9	...........
	49	0.666667	3.02325E-001	-9.94031E-005	0.00000E+000	-3.00521E-005	-5.99601E-002	3.02381E-001	3.57850E+000	9	...........
	50	0.68	2.92734E-001	-9.91593E-005	0.00000E+000	-2.90273E-005	-5.99601E-002	2.92786E-001	3.57850E+000	9	...........
	51	0.693333	2.83199E-001	-9.92406E-005	0.00000E+000	-2.81049E-005	-5.99601E-002	2.83261E-001	3.57850E+000	9	...........
	52	0.706667	2.73728E-001	-9.94188E-005	0.00000E+000	-2.72137E-005	-5.99601E-002	2.73778E-001	3.57850E+000	9	...........
	53	0.72	2.64297E-001	-9.92218E-005	0.00000E+000	-2.62240E-005	-5.99601E-002	2.64350E-001	3.57850E+000	9	...........
	54	0.733333	2.54921E-001	-9.85509E-005	0.00000E+000	-2.51227E-005	-5.99601E-002	2.54971E-001	3.57850E+000	9	...........
	55	0.746667	2.45601E-001	-9.82143E-005	0.00000E+000	-2.41216E-005	-5.99601E-002	2.45646E-001	3.57850E+000	9	...........
	56	0.76	2.36335E-001	-9.80497E-005	0.00000E+000	-2.31726E-005	-5.99601E-002	2.36374E-001	3.57850E+000	9	...........
	57	0.773333	2.27121E-001	-9.89374E-005	0.00000E+000	-2.24708E-005	-5.99601E-002	2.27160E-001	3.57850E+000	9	...........
	58	0.786667	2.17963E-001	-9.86519E-005	0.00000E+000	-2.15025E-005	-5.99601E-002	2.17993E-001	3.57850E+000	9	...........
	59	0.8	2.08861E-001	-9.87280E-005	0.00000E+000	-2.06204E-005	-5.99601E-002	2.08888E-001	3.57850E+000	9	...........
	60	0.813333	1.99809E-001	-9.81477E-005	0.00000E+000	-1.96108E-005	-5.99601E-002	1.99843E-001	3.57850E+000	9	...........
	61	0.826667	1.90823E-001	-9.94584E-005	0.00000E+000	-1.89789E-005	-5.99601E-002	1.90852E-001	3.57850E+000	9	...........
	62	0.84	1.81899E-001	-9.89082E-005	0.00000E+000	-1.79913E-005	-5.99601E-002	1.81924E-001	3.57850E+000	9	...........
	63	0.853333	1.73032E-001	-9.88478E-005	0.00000E+000	-1.71039E-005	-5.99601E-002	1.73065E-001	3.57850E+000	9	...........
	64	0.866667	1.64244E-001	-9.91166E-005	0.00000E+000	-1.62793E-005	-5.99601E-002	1.64263E-001	3.57850E+000	9	...........
	65	0.88	1.55523E-001	-9.82664E-005	0.00000E+000	-1.52827E-005	-5.99601E-002	1.55538E-001	3.57850E+000	9	...........
	66	0.893333	1.46866E-001	-9.81435E-005	0.00000E+000	-1.44140E-005	-5.99601E-002	1.46882E-001	3.57850E+000	9	...........
	67	0.906667	1.38287E-001	-9.83342E-005	0.00000E+000	-1.35983E-005	-5.99601E-002	1.38296E-001	3.57850E+000	9	...........
	68	0.92	1.29774E-001	-9.86426E-005	0.00000E+000	-1.28012E-005	-5.99601E-002	1.29791E-001	3.57850E+000	9	...........
	69	0.933333	1.21339E-001	-9.93333E-005	0.00000E+000	-1.20530E-005	-5.99601E-002	1.21351E-001	3.57850E+000	9	...........
	70	0.946667	1.12987E-001	-9.87249E-005	0.00000E+000	-1.11546E-005	-5.99601E-002	1.12999E-001	3.57850E+000	9	...........
	71	0.96	1.04709E-001	-9.89457E-005	0.00000E+000	-1.03605E-005	-5.99601E-002	1.04714E-001	3.57850E+000	9	...........
	72	0.97333	9.65041E-002	-9.88291E-005	0.00000E+000	-9.53741E-006	-5.99601E-002	9.65145E-002	3.57850E+000	9	...........
	73	0.98667	8.83725E-002	-9.92146E-005	0.00000E+000	-8.76784E-006	-5.99601E-002	8.83805E-002	3.57850E+000	9	...........
	74	1	8.03221E-002	-9.90968E-005	0.00000E+000	-7.95966E-006	-5.99601E-002	8.03231E-002	3.57850E+000	9	...........
	75	1.01333	7.23466E-002	-9.90385E-005	0.00000E+000	-7.16510E-006	-5.99601E-002	7.23438E-002	3.57850E+000	9	...........
	76	1.02667	6.44374E-002	-9.88020E-005	0.00000E+000	-6.36654E-006	-5.99601E-002	6.44312E-002	3.57850E+000	9	...........
	77	1.04	5.66040E-002	-9.95709E-005	0.00000E+000	-5.63611E-006	-5.99601E-002	5.65957E-002	3.57850E+000	9	...........
	78	1.05333	4.88493E-002	-9.90801E-005	0.00000E+000	-4.84000E-006	-5.99601E-002	4.88465E-002	3.57850E+000	9	...........
	79	1.06667	4.11862E-002	-9.93615E-005	0.00000E+000	-4.09232E-006	-5.99601E-002	4.11758E-002	3.57850E+000	9	...........
	80	1.08	3.35650E-002	-9.92875E-005	0.00000E+000	-3.33259E-006	-5.99601E-002	3.35523E-002	3.57850E+000	9	...........
	81	1.09333	2.60088E-002	-9.81060E-005	0.00000E+000	-2.55162E-006	-5.99601E-002	2.59909E-002	3.57850E+000	9	...........
	82	1.10667	1.85224E-002	-9.88895E-005	0.00000E+000	-1.83167E-006	-5.99601E-002	1.84992E-002	3.57850E+000	9	...........
	83	1.12	1.11006E-002	-9.90656E-005	0.00000E+000	-1.09969E-006	-5.99601E-002	1.10787E-002	3.57850E+000	9	...........
	84	1.13333	3.75468E-003	-9.94615E-005	0.00000E+000	-3.73446E-007	-5.99601E-002	3.71823E-003	3.57850E+000	9	...........
	85	1.135	-3.39308E-004	-9.66432E-005	0.00000E+000	3.27918E-008	-5.99601E-002	-3.78809E-004	3.57850E+000	9	...........
STARTTIMEOFFSET	QUANT	2247.452	Start Time Offset (s)
