EXPLAIN
TAG	PWR800_DISCHARGE
TITLE	LABEL	PWR Cyclic Charge Discharge (Cell) - Discharge Step	Test &Identifier
DATE	LABEL	13-7-2017	Date
TIME	LABEL	15:15:13	Time
NOTES	NOTES	2	&Notes...
	supercap test cell
	6M KOH
PSTAT	PSTAT	IFC5000-01520	Potentiostat
CAPACITY	QUANT	1.00000E-003	Capacity (A-hr)
CELLTYPE	SELECTOR	1	&Cell Type
WORKINGCONNECTION	SELECTOR	0	&Working Lead
MAXDISCHARGETIME	VARIABLEANDUNITS	1.00000E+002	s	1.00000E+002	second(s)	Max &Discharge Time
DISCHARGEMODE	MULTIPARAM	0	1.00000E-004	&Discharge Mode	Constant Current	Amp(s)
SAMPLETIME	QUANT	1.00000E-002	Sa&mple Period (s)
DISCHARGESTOPAT1	MULTIPARAM	3	0.00000E+000	Discharge Stop At &1	Voltage < Limit	V
DISCHARGESTOPAT2	MULTIPARAM	0	0.00000E+000	Discharge Stop At &2	None	N/A
AESBHCSELECTOR	TOGGLE	F	Save Both Half Cells
IRCOMP	TOGGLE	F	IR &Measure
EOC	QUANT	0	Open Circuit (V)
SEQUENCER	TOGGLE	TRUE	Run as Sequence
PSTATMODEL	IQUANT	53	Pstat Model
PSTATSECTION	LABEL	IFC5000-01520	Pstat Section
PSTATSERIALNO	LABEL	01520	Pstat Serial Number
CTRLMODE	IQUANT	0	Control Mode
ELECTROMETER	IQUANT	1	RE=0 or CS=1
IESTAB	IQUANT	0	I/E Stability
CASPEED	IQUANT	4	Control Amp Speed
CONVENTION	IQUANT	1	Current Convention
ICHRANGE	IQUANT	2	Ich Range
ICHRANGEMODE	TOGGLE	T	Ich Auto Range
ICHOFFSETENABLE	TOGGLE	F	Ich Offset Enable
ICHOFFSET	QUANT	0	Ich Offset (V)
ICHFILTER	IQUANT	1	Ich Filter
VCHRANGE	IQUANT	2	Vch Range
VCHRANGEMODE	TOGGLE	T	Vch Auto Range
VCHOFFSETENABLE	TOGGLE	F	Vch Offset Enable
VCHOFFSET	QUANT	0	Vch Offset (V)
VCHFILTER	IQUANT	1	Vch Filter
IERANGELOWERLIMIT	IQUANT	9	I/E Range Lower Limit
IERANGEMODE	TOGGLE	F	I/E AutoRange
IERANGE	IQUANT	9	I/E Range
ACHSELECT	IQUANT	1	Ach Select
ACHRANGE	IQUANT	2	Ach Range
ACHOFFSETENABLE	TOGGLE	F	Ach Offset Enable
ACHOFFSET	QUANT	0	Ach Offset (V)
ACHFILTER	IQUANT	1	Ach Filter
CABLEID	IQUANT	14	Cable ID
DCCALDATE	LABEL	5-7-2017	DC Calibration Date
ACCALDATE	LABEL	12/3/2015	AC Calibration Date
FRAMEWORKVERSION	QUANT	7.01	Framework Version
INSTRUMENTVERSION	LABEL	4.00	Instrument Version
CURVE	TABLE	90
	Pt	T	Vf	Im	Vu	Pwr	Sig	Ach	Temp	IERange	Over
	#	s	V	A	V	W	V	V	deg C	#	bits
	0	0.013333	8.52133E-001	-9.87072E-005	0.00000E+000	-8.41116E-005	-5.99601E-002	8.52501E-001	3.57920E+000	9	...........
	1	0.026667	8.38701E-001	-9.94959E-005	0.00000E+000	-8.34473E-005	-5.99601E-002	8.39066E-001	3.57920E+000	9	...........
	2	0.04	8.26102E-001	-9.85571E-005	0.00000E+000	-8.14182E-005	-5.99601E-002	8.26447E-001	3.57920E+000	9	...........
	3	0.053333	8.14007E-001	-9.96574E-005	0.00000E+000	-8.11218E-005	-5.99601E-002	8.14357E-001	3.57920E+000	9	...........
	4	0.066667	8.02380E-001	-9.91510E-005	0.00000E+000	-7.95568E-005	-5.99601E-002	8.02696E-001	3.57920E+000	9	...........
	5	0.08	7.91006E-001	-9.87395E-005	0.00000E+000	-7.81035E-005	-5.99601E-002	7.91315E-001	3.57920E+000	9	...........
	6	0.093333	7.79837E-001	-9.93521E-005	0.00000E+000	-7.74784E-005	-5.99601E-002	7.80136E-001	3.57920E+000	9	...........
	7	0.106667	7.68833E-001	-9.88103E-005	0.00000E+000	-7.59686E-005	-5.99601E-002	7.69150E-001	3.57920E+000	9	...........
	8	0.12	7.58000E-001	-9.96324E-005	0.00000E+000	-7.55214E-005	-5.99601E-002	7.58269E-001	3.57920E+000	9	...........
	9	0.133333	7.47208E-001	-9.90958E-005	0.00000E+000	-7.40451E-005	-5.99601E-002	7.47486E-001	3.57920E+000	9	...........
	10	0.146667	7.36515E-001	-9.85853E-005	0.00000E+000	-7.26095E-005	-5.99601E-002	7.36801E-001	3.57920E+000	9	...........
	11	0.16	7.25900E-001	-9.87051E-005	0.00000E+000	-7.16500E-005	-5.99601E-002	7.26173E-001	3.57920E+000	9	...........
	12	0.173333	7.15282E-001	-9.86394E-005	0.00000E+000	-7.05550E-005	-5.99601E-002	7.15571E-001	3.57920E+000	9	...........
	13	0.186667	7.04738E-001	-9.88551E-005	0.00000E+000	-6.96670E-005	-5.99601E-002	7.04998E-001	3.57920E+000	9	...........
	14	0.2	6.94213E-001	-9.84665E-005	0.00000E+000	-6.83567E-005	-5.99601E-002	6.94493E-001	3.57920E+000	9	...........
	15	0.213333	6.83700E-001	-9.83842E-005	0.00000E+000	-6.72653E-005	-5.99601E-002	6.83995E-001	3.57920E+000	9	...........
	16	0.226667	6.73238E-001	-9.86363E-005	0.00000E+000	-6.64057E-005	-5.99601E-002	6.73515E-001	3.57920E+000	9	...........
	17	0.24	6.62749E-001	-9.94792E-005	0.00000E+000	-6.59297E-005	-5.99601E-002	6.63027E-001	3.57920E+000	9	...........
	18	0.253333	6.52287E-001	-9.86103E-005	0.00000E+000	-6.43222E-005	-5.99601E-002	6.52563E-001	3.57920E+000	9	...........
	19	0.266667	6.41850E-001	-1.00303E-004	0.00000E+000	-6.43797E-005	-5.99601E-002	6.42109E-001	3.57920E+000	9	...........
	20	0.28	6.31402E-001	-9.85946E-005	0.00000E+000	-6.22529E-005	-5.99601E-002	6.31683E-001	3.57920E+000	9	...........
	21	0.293333	6.20971E-001	-9.84581E-005	0.00000E+000	-6.11396E-005	-5.99601E-002	6.21238E-001	3.57920E+000	9	...........
	22	0.306667	6.10505E-001	-9.88447E-005	0.00000E+000	-6.03451E-005	-5.99601E-002	6.10810E-001	3.57920E+000	9	...........
	23	0.32	6.00096E-001	-9.95688E-005	0.00000E+000	-5.97508E-005	-5.99601E-002	6.00403E-001	3.57920E+000	9	...........
	24	0.333333	5.89687E-001	-9.92010E-005	0.00000E+000	-5.84975E-005	-5.99601E-002	5.90015E-001	3.57920E+000	9	...........
	25	0.346667	5.79302E-001	-9.87405E-005	0.00000E+000	-5.72005E-005	-5.99601E-002	5.79617E-001	3.57920E+000	9	...........
	26	0.36	5.68959E-001	-9.94073E-005	0.00000E+000	-5.65587E-005	-5.99601E-002	5.69227E-001	3.57920E+000	9	...........
	27	0.373333	5.58577E-001	-9.85707E-005	0.00000E+000	-5.50593E-005	-5.99601E-002	5.58900E-001	3.57920E+000	9	...........
	28	0.386667	5.48273E-001	-9.89791E-005	0.00000E+000	-5.42675E-005	-5.99601E-002	5.48555E-001	3.57920E+000	9	...........
	29	0.4	5.37973E-001	-9.94396E-005	0.00000E+000	-5.34958E-005	-5.99601E-002	5.38260E-001	3.57920E+000	9	...........
	30	0.413333	5.27679E-001	-9.89801E-005	0.00000E+000	-5.22297E-005	-5.99601E-002	5.27950E-001	3.57920E+000	9	...........
	31	0.426667	5.17443E-001	-9.88864E-005	0.00000E+000	-5.11680E-005	-5.99601E-002	5.17710E-001	3.57920E+000	9	...........
	32	0.44	5.07181E-001	-9.90343E-005	0.00000E+000	-5.02284E-005	-5.99601E-002	5.07466E-001	3.57920E+000	9	...........
	33	0.453333	4.97010E-001	-9.88874E-005	0.00000E+000	-4.91480E-005	-5.99601E-002	4.97283E-001	3.57920E+000	9	...........
	34	0.466667	4.86986E-001	-9.97751E-005	0.00000E+000	-4.85891E-005	-5.99601E-002	4.87181E-001	3.57920E+000	9	...........
	35	0.48	4.77161E-001	-9.90062E-005	0.00000E+000	-4.72418E-005	-5.99601E-002	4.77267E-001	3.57920E+000	9	...........
	36	0.493333	4.67101E-001	-9.88020E-005	0.00000E+000	-4.61505E-005	-5.99601E-002	4.67199E-001	3.57920E+000	9	...........
	37	0.506667	4.57080E-001	-9.86665E-005	0.00000E+000	-4.50985E-005	-5.99601E-002	4.57173E-001	3.57920E+000	9	...........
	38	0.52	4.47102E-001	-9.89155E-005	0.00000E+000	-4.42253E-005	-5.99601E-002	4.47198E-001	3.57876E+000	9	...........
	39	0.533333	4.37176E-001	-9.86446E-005	0.00000E+000	-4.31251E-005	-5.99601E-002	4.37274E-001	3.57860E+000	9	...........
	40	0.546667	4.27304E-001	-9.90718E-005	0.00000E+000	-4.23337E-005	-5.99601E-002	4.27390E-001	3.57860E+000	9	...........
	41	0.56	4.17480E-001	-9.90968E-005	0.00000E+000	-4.13709E-005	-5.99601E-002	4.17571E-001	3.57860E+000	9	...........
	42	0.573333	4.07705E-001	-9.89833E-005	0.00000E+000	-4.03560E-005	-5.99601E-002	4.07789E-001	3.57860E+000	9	...........
	43	0.586667	3.97979E-001	-9.94615E-005	0.00000E+000	-3.95835E-005	-5.99601E-002	3.98059E-001	3.57860E+000	9	...........
	44	0.6	3.88301E-001	-9.94073E-005	0.00000E+000	-3.85999E-005	-5.99601E-002	3.88375E-001	3.57860E+000	9	...........
	45	0.613333	3.78672E-001	-9.88624E-005	0.00000E+000	-3.74364E-005	-5.99601E-002	3.78749E-001	3.57860E+000	9	...........
	46	0.626667	3.69094E-001	-9.86176E-005	0.00000E+000	-3.63992E-005	-5.99601E-002	3.69170E-001	3.57860E+000	9	...........
	47	0.64	3.59566E-001	-9.91437E-005	0.00000E+000	-3.56487E-005	-5.99601E-002	3.59639E-001	3.57860E+000	9	...........
	48	0.653333	3.50079E-001	-9.75673E-005	0.00000E+000	-3.41563E-005	-5.99601E-002	3.50157E-001	3.57860E+000	9	...........
	49	0.666667	3.40650E-001	-9.91479E-005	0.00000E+000	-3.37747E-005	-5.99601E-002	3.40715E-001	3.57860E+000	9	...........
	50	0.68	3.31260E-001	-9.89947E-005	0.00000E+000	-3.27930E-005	-5.99601E-002	3.31327E-001	3.57860E+000	9	...........
	51	0.693333	3.21919E-001	-9.90291E-005	0.00000E+000	-3.18793E-005	-5.99601E-002	3.21987E-001	3.57860E+000	9	...........
	52	0.706667	3.12623E-001	-9.84373E-005	0.00000E+000	-3.07738E-005	-5.99601E-002	3.12689E-001	3.57860E+000	9	...........
	53	0.72	3.03371E-001	-9.81852E-005	0.00000E+000	-2.97865E-005	-5.99601E-002	3.03436E-001	3.57860E+000	9	...........
	54	0.733333	2.94164E-001	-9.93521E-005	0.00000E+000	-2.92259E-005	-5.99601E-002	2.94220E-001	3.57860E+000	9	...........
	55	0.746667	2.84995E-001	-9.94052E-005	0.00000E+000	-2.83300E-005	-5.99601E-002	2.85054E-001	3.57860E+000	9	...........
	56	0.76	2.75868E-001	-9.87874E-005	0.00000E+000	-2.72523E-005	-5.99601E-002	2.75924E-001	3.57860E+000	9	...........
	57	0.773333	2.66781E-001	-9.85071E-005	0.00000E+000	-2.62799E-005	-5.99601E-002	2.66832E-001	3.57860E+000	9	...........
	58	0.786667	2.57731E-001	-9.87030E-005	0.00000E+000	-2.54388E-005	-5.99601E-002	2.57782E-001	3.57860E+000	9	...........
	59	0.8	2.48723E-001	-9.97418E-005	0.00000E+000	-2.48081E-005	-5.99601E-002	2.48773E-001	3.57860E+000	9	...........
	60	0.813333	2.39760E-001	-9.86353E-005	0.00000E+000	-2.36488E-005	-5.99601E-002	2.39797E-001	3.57860E+000	9	...........
	61	0.826667	2.30829E-001	-9.99397E-005	0.00000E+000	-2.30690E-005	-5.99601E-002	2.30866E-001	3.57860E+000	9	...........
	62	0.84	2.21940E-001	-9.86634E-005	0.00000E+000	-2.18974E-005	-5.99601E-002	2.21985E-001	3.57860E+000	9	...........
	63	0.853333	2.13095E-001	-9.89666E-005	0.00000E+000	-2.10893E-005	-5.99601E-002	2.13126E-001	3.57860E+000	9	...........
	64	0.866667	2.04287E-001	-9.88405E-005	0.00000E+000	-2.01919E-005	-5.99601E-002	2.04317E-001	3.57860E+000	9	...........
	65	0.88	1.95524E-001	-9.92312E-005	0.00000E+000	-1.94021E-005	-5.99601E-002	1.95553E-001	3.57860E+000	9	...........
	66	0.893333	1.86803E-001	-9.99512E-005	0.00000E+000	-1.86711E-005	-5.99601E-002	1.86834E-001	3.57860E+000	9	...........
	67	0.906667	1.78127E-001	-9.84477E-005	0.00000E+000	-1.75362E-005	-5.99601E-002	1.78151E-001	3.57860E+000	9	...........
	68	0.92	1.69507E-001	-9.87572E-005	0.00000E+000	-1.67401E-005	-5.99601E-002	1.69530E-001	3.57860E+000	9	...........
	69	0.933333	1.60936E-001	-9.95750E-005	0.00000E+000	-1.60252E-005	-5.99601E-002	1.60957E-001	3.57860E+000	9	...........
	70	0.946667	1.52422E-001	-9.90229E-005	0.00000E+000	-1.50932E-005	-5.99601E-002	1.52433E-001	3.57860E+000	9	...........
	71	0.96	1.43955E-001	-9.99626E-005	0.00000E+000	-1.43901E-005	-5.99601E-002	1.43976E-001	3.57860E+000	9	...........
	72	0.97333	1.35560E-001	-9.91531E-005	0.00000E+000	-1.34412E-005	-5.99601E-002	1.35572E-001	3.57860E+000	9	...........
	73	0.98667	1.27220E-001	-9.94302E-005	0.00000E+000	-1.26495E-005	-5.99601E-002	1.27232E-001	3.57860E+000	9	...........
	74	1	1.18939E-001	-9.90020E-005	0.00000E+000	-1.17752E-005	-5.99601E-002	1.18956E-001	3.57860E+000	9	...........
	75	1.01333	1.10727E-001	-9.83217E-005	0.00000E+000	-1.08869E-005	-5.99601E-002	1.10739E-001	3.57860E+000	9	...........
	76	1.02667	1.02585E-001	-9.82091E-005	0.00000E+000	-1.00748E-005	-5.99601E-002	1.02591E-001	3.57860E+000	9	...........
	77	1.04	9.45019E-002	-9.77424E-005	0.00000E+000	-9.23684E-006	-5.99601E-002	9.45085E-002	3.57860E+000	9	...........
	78	1.05333	8.64859E-002	-9.87655E-005	0.00000E+000	-8.54182E-006	-5.99601E-002	8.64950E-002	3.57860E+000	9	...........
	79	1.06667	7.85389E-002	-9.90447E-005	0.00000E+000	-7.77886E-006	-5.99601E-002	7.85401E-002	3.57860E+000	9	...........
	80	1.08	7.06596E-002	-9.88916E-005	0.00000E+000	-6.98764E-006	-5.99601E-002	7.06555E-002	3.57860E+000	9	...........
	81	1.09333	6.28406E-002	-9.80695E-005	0.00000E+000	-6.16274E-006	-5.99601E-002	6.28407E-002	3.57860E+000	9	...........
	82	1.10667	5.50902E-002	-9.93302E-005	0.00000E+000	-5.47212E-006	-5.99601E-002	5.50839E-002	3.57860E+000	9	...........
	83	1.12	4.74293E-002	-9.86947E-005	0.00000E+000	-4.68102E-006	-5.99601E-002	4.74159E-002	3.57860E+000	9	...........
	84	1.13333	3.98190E-002	-9.77778E-005	0.00000E+000	-3.89342E-006	-5.99601E-002	3.98128E-002	3.57860E+000	9	...........
	85	1.14667	3.22606E-002	-9.79893E-005	0.00000E+000	-3.16119E-006	-5.99601E-002	3.22498E-002	3.57860E+000	9	...........
	86	1.16	2.47684E-002	-9.83112E-005	0.00000E+000	-2.43501E-006	-5.99601E-002	2.47456E-002	3.57860E+000	9	...........
	87	1.17333	1.73351E-002	-9.92885E-005	0.00000E+000	-1.72118E-006	-5.99601E-002	1.73100E-002	3.57860E+000	9	...........
	88	1.18667	9.96556E-003	-9.82800E-005	0.00000E+000	-9.79415E-007	-5.99601E-002	9.93849E-003	3.57860E+000	9	...........
	89	1.2	2.64875E-003	-9.86571E-005	0.00000E+000	-2.61318E-007	-5.99601E-002	2.61381E-003	3.57860E+000	9	...........
STARTTIMEOFFSET	QUANT	596.4046	Start Time Offset (s)
