EXPLAIN
TAG	PWR800_DISCHARGE
TITLE	LABEL	PWR Cyclic Charge Discharge (Cell) - Discharge Step	Test &Identifier
DATE	LABEL	13-7-2017	Date
TIME	LABEL	15:16:41	Time
NOTES	NOTES	2	&Notes...
	supercap test cell
	6M KOH
PSTAT	PSTAT	IFC5000-01520	Potentiostat
CAPACITY	QUANT	1.00000E-003	Capacity (A-hr)
CELLTYPE	SELECTOR	1	&Cell Type
WORKINGCONNECTION	SELECTOR	0	&Working Lead
MAXDISCHARGETIME	VARIABLEANDUNITS	1.00000E+002	s	1.00000E+002	second(s)	Max &Discharge Time
DISCHARGEMODE	MULTIPARAM	0	1.00000E-004	&Discharge Mode	Constant Current	Amp(s)
SAMPLETIME	QUANT	1.00000E-002	Sa&mple Period (s)
DISCHARGESTOPAT1	MULTIPARAM	3	0.00000E+000	Discharge Stop At &1	Voltage < Limit	V
DISCHARGESTOPAT2	MULTIPARAM	0	0.00000E+000	Discharge Stop At &2	None	N/A
AESBHCSELECTOR	TOGGLE	F	Save Both Half Cells
IRCOMP	TOGGLE	F	IR &Measure
EOC	QUANT	0	Open Circuit (V)
SEQUENCER	TOGGLE	TRUE	Run as Sequence
PSTATMODEL	IQUANT	53	Pstat Model
PSTATSECTION	LABEL	IFC5000-01520	Pstat Section
PSTATSERIALNO	LABEL	01520	Pstat Serial Number
CTRLMODE	IQUANT	0	Control Mode
ELECTROMETER	IQUANT	1	RE=0 or CS=1
IESTAB	IQUANT	0	I/E Stability
CASPEED	IQUANT	4	Control Amp Speed
CONVENTION	IQUANT	1	Current Convention
ICHRANGE	IQUANT	2	Ich Range
ICHRANGEMODE	TOGGLE	T	Ich Auto Range
ICHOFFSETENABLE	TOGGLE	F	Ich Offset Enable
ICHOFFSET	QUANT	0	Ich Offset (V)
ICHFILTER	IQUANT	1	Ich Filter
VCHRANGE	IQUANT	2	Vch Range
VCHRANGEMODE	TOGGLE	T	Vch Auto Range
VCHOFFSETENABLE	TOGGLE	F	Vch Offset Enable
VCHOFFSET	QUANT	0	Vch Offset (V)
VCHFILTER	IQUANT	1	Vch Filter
IERANGELOWERLIMIT	IQUANT	9	I/E Range Lower Limit
IERANGEMODE	TOGGLE	F	I/E AutoRange
IERANGE	IQUANT	9	I/E Range
ACHSELECT	IQUANT	1	Ach Select
ACHRANGE	IQUANT	2	Ach Range
ACHOFFSETENABLE	TOGGLE	F	Ach Offset Enable
ACHOFFSET	QUANT	0	Ach Offset (V)
ACHFILTER	IQUANT	1	Ach Filter
CABLEID	IQUANT	14	Cable ID
DCCALDATE	LABEL	5-7-2017	DC Calibration Date
ACCALDATE	LABEL	12/3/2015	AC Calibration Date
FRAMEWORKVERSION	QUANT	7.01	Framework Version
INSTRUMENTVERSION	LABEL	4.00	Instrument Version
CURVE	TABLE	90
	Pt	T	Vf	Im	Vu	Pwr	Sig	Ach	Temp	IERange	Over
	#	s	V	A	V	W	V	V	deg C	#	bits
	0	0.013333	8.53206E-001	-9.89051E-005	0.00000E+000	-8.43864E-005	-5.99601E-002	8.53508E-001	3.58010E+000	9	...........
	1	0.026667	8.39644E-001	-9.91802E-005	0.00000E+000	-8.32761E-005	-5.99601E-002	8.39978E-001	3.58010E+000	9	...........
	2	0.04	8.26956E-001	-9.92135E-005	0.00000E+000	-8.20452E-005	-5.99601E-002	8.27258E-001	3.58010E+000	9	...........
	3	0.053333	8.14811E-001	-9.95855E-005	0.00000E+000	-8.11434E-005	-5.99601E-002	8.15102E-001	3.57879E+000	9	...........
	4	0.066667	8.03064E-001	-9.84384E-005	0.00000E+000	-7.90523E-005	-5.99601E-002	8.03353E-001	3.57860E+000	9	...........
	5	0.08	7.91601E-001	-9.88687E-005	0.00000E+000	-7.82646E-005	-5.99601E-002	7.91870E-001	3.57860E+000	9	...........
	6	0.093333	7.80357E-001	-9.91145E-005	0.00000E+000	-7.73448E-005	-5.99601E-002	7.80620E-001	3.57860E+000	9	...........
	7	0.106667	7.69317E-001	-9.87676E-005	0.00000E+000	-7.59836E-005	-5.99601E-002	7.69552E-001	3.57860E+000	9	...........
	8	0.12	7.58349E-001	-9.88436E-005	0.00000E+000	-7.49580E-005	-5.99601E-002	7.58626E-001	3.57860E+000	9	...........
	9	0.133333	7.47534E-001	-9.90729E-005	0.00000E+000	-7.40603E-005	-5.99601E-002	7.47792E-001	3.57860E+000	9	...........
	10	0.146667	7.36730E-001	-9.81643E-005	0.00000E+000	-7.23206E-005	-5.99601E-002	7.37021E-001	3.57860E+000	9	...........
	11	0.16	7.26031E-001	-9.87061E-005	0.00000E+000	-7.16637E-005	-5.99601E-002	7.26321E-001	3.57860E+000	9	...........
	12	0.173333	7.15367E-001	-9.92781E-005	0.00000E+000	-7.10203E-005	-5.99601E-002	7.15651E-001	3.57860E+000	9	...........
	13	0.186667	7.04726E-001	-9.96261E-005	0.00000E+000	-7.02091E-005	-5.99601E-002	7.05018E-001	3.57860E+000	9	...........
	14	0.2	6.94143E-001	-9.83665E-005	0.00000E+000	-6.82804E-005	-5.99601E-002	6.94444E-001	3.57860E+000	9	...........
	15	0.213333	6.83559E-001	-9.88989E-005	0.00000E+000	-6.76032E-005	-5.99601E-002	6.83843E-001	3.57860E+000	9	...........
	16	0.226667	6.73011E-001	-9.86676E-005	0.00000E+000	-6.64044E-005	-5.99601E-002	6.73284E-001	3.57860E+000	9	...........
	17	0.24	6.62455E-001	-9.81654E-005	0.00000E+000	-6.50302E-005	-5.99601E-002	6.62720E-001	3.57860E+000	9	...........
	18	0.253333	6.51911E-001	-9.91781E-005	0.00000E+000	-6.46553E-005	-5.99601E-002	6.52178E-001	3.57860E+000	9	...........
	19	0.266667	6.41406E-001	-9.91052E-005	0.00000E+000	-6.35666E-005	-5.99601E-002	6.41669E-001	3.57860E+000	9	...........
	20	0.28	6.30871E-001	-9.96646E-005	0.00000E+000	-6.28755E-005	-5.99601E-002	6.31151E-001	3.57860E+000	9	...........
	21	0.293333	6.20406E-001	-9.83477E-005	0.00000E+000	-6.10155E-005	-5.99601E-002	6.20656E-001	3.57860E+000	9	...........
	22	0.306667	6.09874E-001	-9.95250E-005	0.00000E+000	-6.06978E-005	-5.99601E-002	6.10186E-001	3.57860E+000	9	...........
	23	0.32	5.99418E-001	-9.87947E-005	0.00000E+000	-5.92193E-005	-5.99601E-002	5.99702E-001	3.57860E+000	9	...........
	24	0.333333	5.88935E-001	-9.91114E-005	0.00000E+000	-5.83702E-005	-5.99601E-002	5.89235E-001	3.57860E+000	9	...........
	25	0.346667	5.78513E-001	-9.95355E-005	0.00000E+000	-5.75825E-005	-5.99601E-002	5.78800E-001	3.57860E+000	9	...........
	26	0.36	5.68103E-001	-9.77330E-005	0.00000E+000	-5.55224E-005	-5.99601E-002	5.68358E-001	3.57860E+000	9	...........
	27	0.373333	5.57643E-001	-9.79184E-005	0.00000E+000	-5.46035E-005	-5.99601E-002	5.57930E-001	3.57860E+000	9	...........
	28	0.386667	5.47271E-001	-9.84415E-005	0.00000E+000	-5.38742E-005	-5.99601E-002	5.47540E-001	3.57860E+000	9	...........
	29	0.4	5.36917E-001	-9.85425E-005	0.00000E+000	-5.29092E-005	-5.99601E-002	5.37160E-001	3.57860E+000	9	...........
	30	0.413333	5.26566E-001	-9.86373E-005	0.00000E+000	-5.19391E-005	-5.99601E-002	5.26786E-001	3.57860E+000	9	...........
	31	0.426667	5.16265E-001	-9.83217E-005	0.00000E+000	-5.07600E-005	-5.99601E-002	5.16479E-001	3.57860E+000	9	...........
	32	0.44	5.05951E-001	-9.88905E-005	0.00000E+000	-5.00338E-005	-5.99601E-002	5.06208E-001	3.57860E+000	9	...........
	33	0.453333	4.95730E-001	-9.83873E-005	0.00000E+000	-4.87735E-005	-5.99601E-002	4.95980E-001	3.57860E+000	9	...........
	34	0.466667	4.85690E-001	-9.91979E-005	0.00000E+000	-4.81794E-005	-5.99601E-002	4.85868E-001	3.57860E+000	9	...........
	35	0.48	4.75778E-001	-9.82029E-005	0.00000E+000	-4.67227E-005	-5.99601E-002	4.75873E-001	3.57860E+000	9	...........
	36	0.493333	4.65662E-001	-9.90614E-005	0.00000E+000	-4.61292E-005	-5.99601E-002	4.65765E-001	3.57860E+000	9	...........
	37	0.506667	4.55598E-001	-9.95230E-005	0.00000E+000	-4.53424E-005	-5.99601E-002	4.55697E-001	3.57860E+000	9	...........
	38	0.52	4.45590E-001	-9.85352E-005	0.00000E+000	-4.39063E-005	-5.99601E-002	4.45676E-001	3.57860E+000	9	...........
	39	0.533333	4.35628E-001	-9.85040E-005	0.00000E+000	-4.29111E-005	-5.99601E-002	4.35709E-001	3.57860E+000	9	...........
	40	0.546667	4.25708E-001	-9.82977E-005	0.00000E+000	-4.18461E-005	-5.99601E-002	4.25796E-001	3.57860E+000	9	...........
	41	0.56	4.15845E-001	-9.92792E-005	0.00000E+000	-4.12847E-005	-5.99601E-002	4.15930E-001	3.57860E+000	9	...........
	42	0.573333	4.06042E-001	-9.93667E-005	0.00000E+000	-4.03470E-005	-5.99601E-002	4.06115E-001	3.57860E+000	9	...........
	43	0.586667	3.96283E-001	-9.89322E-005	0.00000E+000	-3.92051E-005	-5.99601E-002	3.96358E-001	3.57860E+000	9	...........
	44	0.6	3.86577E-001	-9.83873E-005	0.00000E+000	-3.80343E-005	-5.99601E-002	3.86652E-001	3.57860E+000	9	...........
	45	0.613333	3.76922E-001	-9.89812E-005	0.00000E+000	-3.73082E-005	-5.99601E-002	3.76991E-001	3.57860E+000	9	...........
	46	0.626667	3.67319E-001	-9.77507E-005	0.00000E+000	-3.59057E-005	-5.99601E-002	3.67386E-001	3.57860E+000	9	...........
	47	0.64	3.57766E-001	-9.93594E-005	0.00000E+000	-3.55475E-005	-5.99601E-002	3.57832E-001	3.57860E+000	9	...........
	48	0.653333	3.48265E-001	-9.88082E-005	0.00000E+000	-3.44114E-005	-5.99601E-002	3.48326E-001	3.57860E+000	9	...........
	49	0.666667	3.38807E-001	-9.78205E-005	0.00000E+000	-3.31423E-005	-5.99601E-002	3.38871E-001	3.57860E+000	9	...........
	50	0.68	3.29398E-001	-9.85415E-005	0.00000E+000	-3.24594E-005	-5.99601E-002	3.29464E-001	3.57860E+000	9	...........
	51	0.693333	3.20040E-001	-9.89676E-005	0.00000E+000	-3.16736E-005	-5.99601E-002	3.20100E-001	3.57860E+000	9	...........
	52	0.706667	3.10719E-001	-9.81800E-005	0.00000E+000	-3.05063E-005	-5.99601E-002	3.10780E-001	3.57860E+000	9	...........
	53	0.72	3.01442E-001	-9.91979E-005	0.00000E+000	-2.99024E-005	-5.99601E-002	3.01503E-001	3.57860E+000	9	...........
	54	0.733333	2.92213E-001	-9.91302E-005	0.00000E+000	-2.89671E-005	-5.99601E-002	2.92270E-001	3.57860E+000	9	...........
	55	0.746667	2.83022E-001	-9.84540E-005	0.00000E+000	-2.78646E-005	-5.99601E-002	2.83080E-001	3.57860E+000	9	...........
	56	0.76	2.73878E-001	-9.83633E-005	0.00000E+000	-2.69396E-005	-5.99601E-002	2.73935E-001	3.57860E+000	9	...........
	57	0.773333	2.64770E-001	-9.88759E-005	0.00000E+000	-2.61794E-005	-5.99601E-002	2.64828E-001	3.57860E+000	9	...........
	58	0.786667	2.55707E-001	-9.89009E-005	0.00000E+000	-2.52897E-005	-5.99601E-002	2.55757E-001	3.57860E+000	9	...........
	59	0.8	2.46681E-001	-1.00453E-004	0.00000E+000	-2.47799E-005	-5.99601E-002	2.46731E-001	3.57860E+000	9	...........
	60	0.813333	2.37699E-001	-9.88791E-005	0.00000E+000	-2.35035E-005	-5.99601E-002	2.37742E-001	3.57860E+000	9	...........
	61	0.826667	2.28751E-001	-9.95052E-005	0.00000E+000	-2.27619E-005	-5.99601E-002	2.28794E-001	3.57860E+000	9	...........
	62	0.84	2.19849E-001	-9.90458E-005	0.00000E+000	-2.17752E-005	-5.99601E-002	2.19892E-001	3.57860E+000	9	...........
	63	0.853333	2.10988E-001	-9.89864E-005	0.00000E+000	-2.08849E-005	-5.99601E-002	2.11024E-001	3.57860E+000	9	...........
	64	0.866667	2.02173E-001	-9.95229E-005	0.00000E+000	-2.01209E-005	-5.99601E-002	2.02212E-001	3.57860E+000	9	...........
	65	0.88	1.93396E-001	-9.85154E-005	0.00000E+000	-1.90525E-005	-5.99601E-002	1.93434E-001	3.57860E+000	9	...........
	66	0.893333	1.84666E-001	-9.85603E-005	0.00000E+000	-1.82007E-005	-5.99601E-002	1.84701E-001	3.57860E+000	9	...........
	67	0.906667	1.75980E-001	-9.82727E-005	0.00000E+000	-1.72941E-005	-5.99601E-002	1.76020E-001	3.57860E+000	9	...........
	68	0.92	1.67361E-001	-9.91406E-005	0.00000E+000	-1.65923E-005	-5.99601E-002	1.67388E-001	3.57860E+000	9	...........
	69	0.933333	1.58784E-001	-9.90843E-005	0.00000E+000	-1.57330E-005	-5.99601E-002	1.58809E-001	3.57860E+000	9	...........
	70	0.946667	1.50273E-001	-9.74454E-005	0.00000E+000	-1.46434E-005	-5.99601E-002	1.50293E-001	3.57860E+000	9	...........
	71	0.96	1.41807E-001	-9.93823E-005	0.00000E+000	-1.40931E-005	-5.99601E-002	1.41825E-001	3.57860E+000	9	...........
	72	0.97333	1.33412E-001	-9.86196E-005	0.00000E+000	-1.31570E-005	-5.99601E-002	1.33428E-001	3.57860E+000	9	...........
	73	0.98667	1.25072E-001	-9.87311E-005	0.00000E+000	-1.23485E-005	-5.99601E-002	1.25092E-001	3.57860E+000	9	...........
	74	1	1.16799E-001	-9.82060E-005	0.00000E+000	-1.14704E-005	-5.99601E-002	1.16820E-001	3.57860E+000	9	...........
	75	1.01333	1.08587E-001	-9.97313E-005	0.00000E+000	-1.08295E-005	-5.99601E-002	1.08603E-001	3.57860E+000	9	...........
	76	1.02667	1.00457E-001	-9.81602E-005	0.00000E+000	-9.86090E-006	-5.99601E-002	1.00469E-001	3.57860E+000	9	...........
	77	1.04	9.23861E-002	-9.94875E-005	0.00000E+000	-9.19126E-006	-5.99601E-002	9.23946E-002	3.57860E+000	9	...........
	78	1.05333	8.43809E-002	-9.92187E-005	0.00000E+000	-8.37217E-006	-5.99601E-002	8.43927E-002	3.57860E+000	9	...........
	79	1.06667	7.64516E-002	-9.94490E-005	0.00000E+000	-7.60303E-006	-5.99601E-002	7.64466E-002	3.57860E+000	9	...........
	80	1.08	6.85750E-002	-9.95042E-005	0.00000E+000	-6.82350E-006	-5.99601E-002	6.85782E-002	3.57860E+000	9	...........
	81	1.09333	6.07755E-002	-9.87259E-005	0.00000E+000	-6.00012E-006	-5.99601E-002	6.07742E-002	3.57860E+000	9	...........
	82	1.10667	5.30374E-002	-9.84738E-005	0.00000E+000	-5.22280E-006	-5.99601E-002	5.30320E-002	3.57860E+000	9	...........
	83	1.12	4.53999E-002	-9.87290E-005	0.00000E+000	-4.48229E-006	-5.99601E-002	4.53929E-002	3.57860E+000	9	...........
	84	1.13333	3.78007E-002	-9.90739E-005	0.00000E+000	-3.74506E-006	-5.99601E-002	3.77865E-002	3.57860E+000	9	...........
	85	1.14667	3.02575E-002	-9.92239E-005	0.00000E+000	-3.00227E-006	-5.99601E-002	3.02416E-002	3.57860E+000	9	...........
	86	1.16	2.27738E-002	-9.91604E-005	0.00000E+000	-2.25826E-006	-5.99601E-002	2.27521E-002	3.57860E+000	9	...........
	87	1.17333	1.53576E-002	-9.83529E-005	0.00000E+000	-1.51047E-006	-5.99601E-002	1.53332E-002	3.57860E+000	9	...........
	88	1.18667	7.99663E-003	-9.87238E-005	0.00000E+000	-7.89458E-007	-5.99601E-002	7.96994E-003	3.57860E+000	9	...........
	89	1.19667	1.60699E-003	-9.99828E-005	0.00000E+000	-1.60671E-007	-5.99601E-002	1.57832E-003	3.57860E+000	9	...........
STARTTIMEOFFSET	QUANT	662.874	Start Time Offset (s)
