EXPLAIN
TAG	PWR800_DISCHARGE
TITLE	LABEL	PWR Cyclic Charge Discharge (Cell) - Discharge Step	Test &Identifier
DATE	LABEL	13-7-2017	Date
TIME	LABEL	15:39:56	Time
NOTES	NOTES	2	&Notes...
	supercap test cell
	6M KOH
PSTAT	PSTAT	IFC5000-01520	Potentiostat
CAPACITY	QUANT	1.00000E-003	Capacity (A-hr)
CELLTYPE	SELECTOR	1	&Cell Type
WORKINGCONNECTION	SELECTOR	0	&Working Lead
MAXDISCHARGETIME	VARIABLEANDUNITS	1.00000E+002	s	1.00000E+002	second(s)	Max &Discharge Time
DISCHARGEMODE	MULTIPARAM	0	1.00000E-004	&Discharge Mode	Constant Current	Amp(s)
SAMPLETIME	QUANT	1.00000E-002	Sa&mple Period (s)
DISCHARGESTOPAT1	MULTIPARAM	3	0.00000E+000	Discharge Stop At &1	Voltage < Limit	V
DISCHARGESTOPAT2	MULTIPARAM	0	0.00000E+000	Discharge Stop At &2	None	N/A
AESBHCSELECTOR	TOGGLE	F	Save Both Half Cells
IRCOMP	TOGGLE	F	IR &Measure
EOC	QUANT	0	Open Circuit (V)
SEQUENCER	TOGGLE	TRUE	Run as Sequence
PSTATMODEL	IQUANT	53	Pstat Model
PSTATSECTION	LABEL	IFC5000-01520	Pstat Section
PSTATSERIALNO	LABEL	01520	Pstat Serial Number
CTRLMODE	IQUANT	0	Control Mode
ELECTROMETER	IQUANT	1	RE=0 or CS=1
IESTAB	IQUANT	0	I/E Stability
CASPEED	IQUANT	4	Control Amp Speed
CONVENTION	IQUANT	1	Current Convention
ICHRANGE	IQUANT	2	Ich Range
ICHRANGEMODE	TOGGLE	T	Ich Auto Range
ICHOFFSETENABLE	TOGGLE	F	Ich Offset Enable
ICHOFFSET	QUANT	0	Ich Offset (V)
ICHFILTER	IQUANT	1	Ich Filter
VCHRANGE	IQUANT	2	Vch Range
VCHRANGEMODE	TOGGLE	T	Vch Auto Range
VCHOFFSETENABLE	TOGGLE	F	Vch Offset Enable
VCHOFFSET	QUANT	0	Vch Offset (V)
VCHFILTER	IQUANT	1	Vch Filter
IERANGELOWERLIMIT	IQUANT	9	I/E Range Lower Limit
IERANGEMODE	TOGGLE	F	I/E AutoRange
IERANGE	IQUANT	9	I/E Range
ACHSELECT	IQUANT	1	Ach Select
ACHRANGE	IQUANT	2	Ach Range
ACHOFFSETENABLE	TOGGLE	F	Ach Offset Enable
ACHOFFSET	QUANT	0	Ach Offset (V)
ACHFILTER	IQUANT	1	Ach Filter
CABLEID	IQUANT	14	Cable ID
DCCALDATE	LABEL	5-7-2017	DC Calibration Date
ACCALDATE	LABEL	12/3/2015	AC Calibration Date
FRAMEWORKVERSION	QUANT	7.01	Framework Version
INSTRUMENTVERSION	LABEL	4.00	Instrument Version
CURVE	TABLE	87
	Pt	T	Vf	Im	Vu	Pwr	Sig	Ach	Temp	IERange	Over
	#	s	V	A	V	W	V	V	deg C	#	bits
	0	0.013333	8.46777E-001	-9.85853E-005	0.00000E+000	-8.34797E-005	-5.99601E-002	8.47124E-001	3.57890E+000	9	...........
	1	0.026667	8.32554E-001	-9.91020E-005	0.00000E+000	-8.25078E-005	-5.99601E-002	8.32905E-001	3.57890E+000	9	...........
	2	0.04	8.19190E-001	-9.85009E-005	0.00000E+000	-8.06910E-005	-5.99601E-002	8.19500E-001	3.57890E+000	9	...........
	3	0.053333	8.06384E-001	-9.89207E-005	0.00000E+000	-7.97681E-005	-5.99601E-002	8.06696E-001	3.57890E+000	9	...........
	4	0.066667	7.94001E-001	-9.87697E-005	0.00000E+000	-7.84232E-005	-5.99601E-002	7.94299E-001	3.57890E+000	9	...........
	5	0.08	7.81900E-001	-9.76705E-005	0.00000E+000	-7.63686E-005	-5.99601E-002	7.82217E-001	3.57890E+000	9	...........
	6	0.093333	7.70009E-001	-9.86082E-005	0.00000E+000	-7.59291E-005	-5.99601E-002	7.70311E-001	3.57890E+000	9	...........
	7	0.106667	7.58303E-001	-9.87915E-005	0.00000E+000	-7.49139E-005	-5.99601E-002	7.58577E-001	3.57890E+000	9	...........
	8	0.12	7.46704E-001	-9.85290E-005	0.00000E+000	-7.35720E-005	-5.99601E-002	7.46990E-001	3.57890E+000	9	...........
	9	0.133333	7.35164E-001	-9.92364E-005	0.00000E+000	-7.29551E-005	-5.99601E-002	7.35464E-001	3.57890E+000	9	...........
	10	0.146667	7.23756E-001	-9.91302E-005	0.00000E+000	-7.17461E-005	-5.99601E-002	7.24034E-001	3.57890E+000	9	...........
	11	0.16	7.12351E-001	-9.92021E-005	0.00000E+000	-7.06667E-005	-5.99601E-002	7.12673E-001	3.57890E+000	9	...........
	12	0.173333	7.01037E-001	-9.82852E-005	0.00000E+000	-6.89015E-005	-5.99601E-002	7.01324E-001	3.57890E+000	9	...........
	13	0.186667	6.89750E-001	-9.88770E-005	0.00000E+000	-6.82004E-005	-5.99601E-002	6.90040E-001	3.57890E+000	9	...........
	14	0.2	6.78488E-001	-9.84571E-005	0.00000E+000	-6.68020E-005	-5.99601E-002	6.78770E-001	3.57890E+000	9	...........
	15	0.213333	6.67272E-001	-9.89051E-005	0.00000E+000	-6.59966E-005	-5.99601E-002	6.67558E-001	3.57890E+000	9	...........
	16	0.226667	6.56029E-001	-9.87103E-005	0.00000E+000	-6.47568E-005	-5.99601E-002	6.56327E-001	3.57890E+000	9	...........
	17	0.24	6.44867E-001	-9.93698E-005	0.00000E+000	-6.40803E-005	-5.99601E-002	6.45144E-001	3.57890E+000	9	...........
	18	0.253333	6.33676E-001	-9.91395E-005	0.00000E+000	-6.28223E-005	-5.99601E-002	6.33952E-001	3.57890E+000	9	...........
	19	0.266667	6.22568E-001	-9.88687E-005	0.00000E+000	-6.15524E-005	-5.99601E-002	6.22827E-001	3.57890E+000	9	...........
	20	0.28	6.11396E-001	-9.87478E-005	0.00000E+000	-6.03740E-005	-5.99601E-002	6.11714E-001	3.57890E+000	9	...........
	21	0.293333	6.00328E-001	-9.99001E-005	0.00000E+000	-5.99729E-005	-5.99601E-002	6.00637E-001	3.57890E+000	9	...........
	22	0.306667	5.89244E-001	-9.89728E-005	0.00000E+000	-5.83192E-005	-5.99601E-002	5.89531E-001	3.57890E+000	9	...........
	23	0.32	5.78208E-001	-9.89968E-005	0.00000E+000	-5.72407E-005	-5.99601E-002	5.78477E-001	3.57890E+000	9	...........
	24	0.333333	5.67231E-001	-9.89249E-005	0.00000E+000	-5.61133E-005	-5.99601E-002	5.67473E-001	3.57890E+000	9	...........
	25	0.346667	5.56222E-001	-9.86811E-005	0.00000E+000	-5.48886E-005	-5.99601E-002	5.56486E-001	3.57890E+000	9	...........
	26	0.36	5.45312E-001	-9.90051E-005	0.00000E+000	-5.39887E-005	-5.99601E-002	5.45531E-001	3.57890E+000	9	...........
	27	0.373333	5.34396E-001	-9.92479E-005	0.00000E+000	-5.30377E-005	-5.99601E-002	5.34636E-001	3.57890E+000	9	...........
	28	0.386667	5.23549E-001	-9.84238E-005	0.00000E+000	-5.15296E-005	-5.99601E-002	5.23772E-001	3.57890E+000	9	...........
	29	0.4	5.12757E-001	-9.88791E-005	0.00000E+000	-5.07010E-005	-5.99601E-002	5.12958E-001	3.57890E+000	9	...........
	30	0.413333	5.01979E-001	-9.88999E-005	0.00000E+000	-4.96457E-005	-5.99601E-002	5.02195E-001	3.57890E+000	9	...........
	31	0.426667	4.91308E-001	-9.89749E-005	0.00000E+000	-4.86272E-005	-5.99601E-002	4.91526E-001	3.57890E+000	9	...........
	32	0.44	4.80963E-001	-9.90812E-005	0.00000E+000	-4.76544E-005	-5.99601E-002	4.81048E-001	3.57890E+000	9	...........
	33	0.453333	4.70443E-001	-9.88843E-005	0.00000E+000	-4.65194E-005	-5.99601E-002	4.70533E-001	3.57890E+000	9	...........
	34	0.466667	4.59921E-001	-9.87572E-005	0.00000E+000	-4.54205E-005	-5.99601E-002	4.60015E-001	3.57890E+000	9	...........
	35	0.48	4.49472E-001	-9.91281E-005	0.00000E+000	-4.45553E-005	-5.99601E-002	4.49562E-001	3.57890E+000	9	...........
	36	0.493333	4.39078E-001	-9.87738E-005	0.00000E+000	-4.33694E-005	-5.99601E-002	4.39164E-001	3.57890E+000	9	...........
	37	0.506667	4.28755E-001	-9.88905E-005	0.00000E+000	-4.23998E-005	-5.99601E-002	4.28839E-001	3.57890E+000	9	...........
	38	0.52	4.18490E-001	-9.87342E-005	0.00000E+000	-4.13193E-005	-5.99601E-002	4.18578E-001	3.57890E+000	9	...........
	39	0.533333	4.08301E-001	-9.91239E-005	0.00000E+000	-4.04724E-005	-5.99601E-002	4.08383E-001	3.57890E+000	9	...........
	40	0.546667	3.98177E-001	-9.86488E-005	0.00000E+000	-3.92797E-005	-5.99601E-002	3.98250E-001	3.57890E+000	9	...........
	41	0.56	3.88116E-001	-9.91896E-005	0.00000E+000	-3.84970E-005	-5.99601E-002	3.88186E-001	3.57890E+000	9	...........
	42	0.573333	3.78122E-001	-9.85978E-005	0.00000E+000	-3.72819E-005	-5.99601E-002	3.78192E-001	3.57890E+000	9	...........
	43	0.586667	3.68190E-001	-9.94886E-005	0.00000E+000	-3.66307E-005	-5.99601E-002	3.68262E-001	3.57890E+000	9	...........
	44	0.6	3.58322E-001	-9.82008E-005	0.00000E+000	-3.51875E-005	-5.99601E-002	3.58393E-001	3.57890E+000	9	...........
	45	0.613333	3.48512E-001	-9.85550E-005	0.00000E+000	-3.43476E-005	-5.99601E-002	3.48580E-001	3.57890E+000	9	...........
	46	0.626667	3.38756E-001	-9.94615E-005	0.00000E+000	-3.36931E-005	-5.99601E-002	3.38825E-001	3.57890E+000	9	...........
	47	0.64	3.29069E-001	-9.82477E-005	0.00000E+000	-3.23303E-005	-5.99601E-002	3.29129E-001	3.57890E+000	9	...........
	48	0.653333	3.19431E-001	-9.85655E-005	0.00000E+000	-3.14848E-005	-5.99601E-002	3.19494E-001	3.57890E+000	9	...........
	49	0.666667	3.09854E-001	-9.90083E-005	0.00000E+000	-3.06781E-005	-5.99601E-002	3.09907E-001	3.57890E+000	9	...........
	50	0.68	3.00322E-001	-9.86030E-005	0.00000E+000	-2.96126E-005	-5.99601E-002	3.00384E-001	3.57890E+000	9	...........
	51	0.693333	2.90848E-001	-9.95615E-005	0.00000E+000	-2.89572E-005	-5.99601E-002	2.90901E-001	3.57890E+000	9	...........
	52	0.706667	2.81426E-001	-9.87384E-005	0.00000E+000	-2.77875E-005	-5.99601E-002	2.81479E-001	3.57890E+000	9	...........
	53	0.72	2.72054E-001	-9.81289E-005	0.00000E+000	-2.66963E-005	-5.99601E-002	2.72101E-001	3.57890E+000	9	...........
	54	0.733333	2.62724E-001	-9.92260E-005	0.00000E+000	-2.60691E-005	-5.99601E-002	2.62776E-001	3.57890E+000	9	...........
	55	0.746667	2.53452E-001	-9.81758E-005	0.00000E+000	-2.48829E-005	-5.99601E-002	2.53498E-001	3.57890E+000	9	...........
	56	0.76	2.44231E-001	-9.90072E-005	0.00000E+000	-2.41807E-005	-5.99601E-002	2.44272E-001	3.57890E+000	9	...........
	57	0.773333	2.35057E-001	-9.85540E-005	0.00000E+000	-2.31658E-005	-5.99601E-002	2.35093E-001	3.57890E+000	9	...........
	58	0.786667	2.25930E-001	-9.92041E-005	0.00000E+000	-2.24132E-005	-5.99601E-002	2.25966E-001	3.57890E+000	9	...........
	59	0.8	2.16851E-001	-9.88572E-005	0.00000E+000	-2.14373E-005	-5.99601E-002	2.16888E-001	3.57890E+000	9	...........
	60	0.813333	2.07836E-001	-9.88291E-005	0.00000E+000	-2.05403E-005	-5.99601E-002	2.07871E-001	3.57978E+000	9	...........
	61	0.826667	1.98872E-001	-9.90333E-005	0.00000E+000	-1.96950E-005	-5.99601E-002	1.98907E-001	3.57990E+000	9	...........
	62	0.84	1.89960E-001	-9.81539E-005	0.00000E+000	-1.86453E-005	-5.99601E-002	1.89992E-001	3.57990E+000	9	...........
	63	0.853333	1.81108E-001	-9.94479E-005	0.00000E+000	-1.80109E-005	-5.99601E-002	1.81134E-001	3.57990E+000	9	...........
	64	0.866667	1.72319E-001	-9.92937E-005	0.00000E+000	-1.71102E-005	-5.99601E-002	1.72342E-001	3.57990E+000	9	...........
	65	0.88	1.63592E-001	-9.91802E-005	0.00000E+000	-1.62251E-005	-5.99601E-002	1.63611E-001	3.57990E+000	9	...........
	66	0.893333	1.54933E-001	-9.84800E-005	0.00000E+000	-1.52578E-005	-5.99601E-002	1.54949E-001	3.57990E+000	9	...........
	67	0.906667	1.46339E-001	-9.85217E-005	0.00000E+000	-1.44175E-005	-5.99601E-002	1.46356E-001	3.57990E+000	9	...........
	68	0.92	1.37819E-001	-9.78174E-005	0.00000E+000	-1.34811E-005	-5.99601E-002	1.37834E-001	3.57990E+000	9	...........
	69	0.933333	1.29369E-001	-9.92218E-005	0.00000E+000	-1.28362E-005	-5.99601E-002	1.29379E-001	3.57990E+000	9	...........
	70	0.946667	1.20986E-001	-9.87436E-005	0.00000E+000	-1.19466E-005	-5.99601E-002	1.21001E-001	3.57990E+000	9	...........
	71	0.96	1.12686E-001	-9.91333E-005	0.00000E+000	-1.11709E-005	-5.99601E-002	1.12697E-001	3.57990E+000	9	...........
	72	0.97333	1.04459E-001	-9.88697E-005	0.00000E+000	-1.03278E-005	-5.99601E-002	1.04466E-001	3.57990E+000	9	...........
	73	0.98667	9.62997E-002	-9.85571E-005	0.00000E+000	-9.49102E-006	-5.99601E-002	9.63118E-002	3.57990E+000	9	...........
	74	1	8.82189E-002	-9.84498E-005	0.00000E+000	-8.68513E-006	-5.99601E-002	8.82276E-002	3.57990E+000	9	...........
	75	1.01333	8.02146E-002	-9.91114E-005	0.00000E+000	-7.95019E-006	-5.99601E-002	8.02130E-002	3.57990E+000	9	...........
	76	1.02667	7.22790E-002	-1.00421E-004	0.00000E+000	-7.25834E-006	-5.99601E-002	7.22792E-002	3.57990E+000	9	...........
	77	1.04	6.44205E-002	-9.93813E-005	0.00000E+000	-6.40219E-006	-5.99601E-002	6.44147E-002	3.57990E+000	9	...........
	78	1.05333	5.66305E-002	-9.93271E-005	0.00000E+000	-5.62494E-006	-5.99601E-002	5.66234E-002	3.57990E+000	9	...........
	79	1.06667	4.89216E-002	-9.91260E-005	0.00000E+000	-4.84940E-006	-5.99601E-002	4.89168E-002	3.57990E+000	9	...........
	80	1.08	4.12958E-002	-9.89780E-005	0.00000E+000	-4.08738E-006	-5.99601E-002	4.12812E-002	3.57990E+000	9	...........
	81	1.09333	3.37084E-002	-9.85582E-005	0.00000E+000	-3.32223E-006	-5.99601E-002	3.36936E-002	3.57990E+000	9	...........
	82	1.10667	2.61863E-002	-9.83977E-005	0.00000E+000	-2.57667E-006	-5.99601E-002	2.61704E-002	3.57990E+000	9	...........
	83	1.12	1.87333E-002	-9.85165E-005	0.00000E+000	-1.84554E-006	-5.99601E-002	1.87062E-002	3.57990E+000	9	...........
	84	1.13333	1.13461E-002	-9.91729E-005	0.00000E+000	-1.12522E-006	-5.99601E-002	1.13168E-002	3.57990E+000	9	...........
	85	1.14667	4.02929E-003	-9.84884E-005	0.00000E+000	-3.96839E-007	-5.99601E-002	3.99771E-003	3.57990E+000	9	...........
	86	1.14833	-6.15022E-005	-9.97188E-005	0.00000E+000	6.13292E-009	-5.99601E-002	-9.95032E-005	3.57990E+000	9	...........
STARTTIMEOFFSET	QUANT	1714.768	Start Time Offset (s)
