EXPLAIN
TAG	PWR800_DISCHARGE
TITLE	LABEL	PWR Cyclic Charge Discharge (Cell) - Discharge Step	Test &Identifier
DATE	LABEL	13-7-2017	Date
TIME	LABEL	15:46:49	Time
NOTES	NOTES	2	&Notes...
	supercap test cell
	6M KOH
PSTAT	PSTAT	IFC5000-01520	Potentiostat
CAPACITY	QUANT	1.00000E-003	Capacity (A-hr)
CELLTYPE	SELECTOR	1	&Cell Type
WORKINGCONNECTION	SELECTOR	0	&Working Lead
MAXDISCHARGETIME	VARIABLEANDUNITS	1.00000E+002	s	1.00000E+002	second(s)	Max &Discharge Time
DISCHARGEMODE	MULTIPARAM	0	1.00000E-004	&Discharge Mode	Constant Current	Amp(s)
SAMPLETIME	QUANT	1.00000E-002	Sa&mple Period (s)
DISCHARGESTOPAT1	MULTIPARAM	3	0.00000E+000	Discharge Stop At &1	Voltage < Limit	V
DISCHARGESTOPAT2	MULTIPARAM	0	0.00000E+000	Discharge Stop At &2	None	N/A
AESBHCSELECTOR	TOGGLE	F	Save Both Half Cells
IRCOMP	TOGGLE	F	IR &Measure
EOC	QUANT	0	Open Circuit (V)
SEQUENCER	TOGGLE	TRUE	Run as Sequence
PSTATMODEL	IQUANT	53	Pstat Model
PSTATSECTION	LABEL	IFC5000-01520	Pstat Section
PSTATSERIALNO	LABEL	01520	Pstat Serial Number
CTRLMODE	IQUANT	0	Control Mode
ELECTROMETER	IQUANT	1	RE=0 or CS=1
IESTAB	IQUANT	0	I/E Stability
CASPEED	IQUANT	4	Control Amp Speed
CONVENTION	IQUANT	1	Current Convention
ICHRANGE	IQUANT	2	Ich Range
ICHRANGEMODE	TOGGLE	T	Ich Auto Range
ICHOFFSETENABLE	TOGGLE	F	Ich Offset Enable
ICHOFFSET	QUANT	0	Ich Offset (V)
ICHFILTER	IQUANT	1	Ich Filter
VCHRANGE	IQUANT	2	Vch Range
VCHRANGEMODE	TOGGLE	T	Vch Auto Range
VCHOFFSETENABLE	TOGGLE	F	Vch Offset Enable
VCHOFFSET	QUANT	0	Vch Offset (V)
VCHFILTER	IQUANT	1	Vch Filter
IERANGELOWERLIMIT	IQUANT	9	I/E Range Lower Limit
IERANGEMODE	TOGGLE	F	I/E AutoRange
IERANGE	IQUANT	9	I/E Range
ACHSELECT	IQUANT	1	Ach Select
ACHRANGE	IQUANT	2	Ach Range
ACHOFFSETENABLE	TOGGLE	F	Ach Offset Enable
ACHOFFSET	QUANT	0	Ach Offset (V)
ACHFILTER	IQUANT	1	Ach Filter
CABLEID	IQUANT	14	Cable ID
DCCALDATE	LABEL	5-7-2017	DC Calibration Date
ACCALDATE	LABEL	12/3/2015	AC Calibration Date
FRAMEWORKVERSION	QUANT	7.01	Framework Version
INSTRUMENTVERSION	LABEL	4.00	Instrument Version
CURVE	TABLE	86
	Pt	T	Vf	Im	Vu	Pwr	Sig	Ach	Temp	IERange	Over
	#	s	V	A	V	W	V	V	deg C	#	bits
	0	0.013333	8.46668E-001	-9.87738E-005	0.00000E+000	-8.36287E-005	-5.99601E-002	8.47003E-001	3.57860E+000	9	...........
	1	0.026667	8.32528E-001	-9.98543E-005	0.00000E+000	-8.31315E-005	-5.99601E-002	8.32825E-001	3.57860E+000	9	...........
	2	0.04	8.19155E-001	-9.90499E-005	0.00000E+000	-8.11373E-005	-5.99601E-002	8.19491E-001	3.57860E+000	9	...........
	3	0.053333	8.06369E-001	-9.79466E-005	0.00000E+000	-7.89811E-005	-5.99601E-002	8.06665E-001	3.57860E+000	9	...........
	4	0.066667	7.93979E-001	-9.92239E-005	0.00000E+000	-7.87817E-005	-5.99601E-002	7.94270E-001	3.57860E+000	9	...........
	5	0.08	7.81832E-001	-9.79435E-005	0.00000E+000	-7.65753E-005	-5.99601E-002	7.82136E-001	3.57860E+000	9	...........
	6	0.093333	7.69886E-001	-9.92052E-005	0.00000E+000	-7.63767E-005	-5.99601E-002	7.70179E-001	3.57860E+000	9	...........
	7	0.106667	7.58109E-001	-9.90833E-005	0.00000E+000	-7.51159E-005	-5.99601E-002	7.58385E-001	3.57860E+000	9	...........
	8	0.12	7.46429E-001	-9.87645E-005	0.00000E+000	-7.37206E-005	-5.99601E-002	7.46724E-001	3.57860E+000	9	...........
	9	0.133333	7.34815E-001	-9.81654E-005	0.00000E+000	-7.21334E-005	-5.99601E-002	7.35114E-001	3.57860E+000	9	...........
	10	0.146667	7.23329E-001	-9.82883E-005	0.00000E+000	-7.10948E-005	-5.99601E-002	7.23591E-001	3.57860E+000	9	...........
	11	0.16	7.11811E-001	-9.86280E-005	0.00000E+000	-7.02044E-005	-5.99601E-002	7.12111E-001	3.57860E+000	9	...........
	12	0.173333	7.00388E-001	-9.83613E-005	0.00000E+000	-6.88910E-005	-5.99601E-002	7.00687E-001	3.57860E+000	9	...........
	13	0.186667	6.89016E-001	-9.95313E-005	0.00000E+000	-6.85787E-005	-5.99601E-002	6.89277E-001	3.57860E+000	9	...........
	14	0.2	6.77666E-001	-9.80299E-005	0.00000E+000	-6.64315E-005	-5.99601E-002	6.77919E-001	3.57860E+000	9	...........
	15	0.213333	6.66299E-001	-9.91989E-005	0.00000E+000	-6.60961E-005	-5.99601E-002	6.66573E-001	3.57860E+000	9	...........
	16	0.226667	6.54963E-001	-9.94198E-005	0.00000E+000	-6.51163E-005	-5.99601E-002	6.55249E-001	3.57860E+000	9	...........
	17	0.24	6.43657E-001	-9.90395E-005	0.00000E+000	-6.37475E-005	-5.99601E-002	6.43956E-001	3.57860E+000	9	...........
	18	0.253333	6.32375E-001	-9.93250E-005	0.00000E+000	-6.28107E-005	-5.99601E-002	6.32639E-001	3.57860E+000	9	...........
	19	0.266667	6.21147E-001	-9.99262E-005	0.00000E+000	-6.20689E-005	-5.99601E-002	6.21394E-001	3.57860E+000	9	...........
	20	0.28	6.09857E-001	-9.80226E-005	0.00000E+000	-5.97798E-005	-5.99601E-002	6.10150E-001	3.57860E+000	9	...........
	21	0.293333	5.98663E-001	-9.96969E-005	0.00000E+000	-5.96848E-005	-5.99601E-002	5.98955E-001	3.57860E+000	9	...........
	22	0.306667	5.87501E-001	-9.95584E-005	0.00000E+000	-5.84907E-005	-5.99601E-002	5.87757E-001	3.57860E+000	9	...........
	23	0.32	5.76338E-001	-9.87697E-005	0.00000E+000	-5.69247E-005	-5.99601E-002	5.76613E-001	3.57860E+000	9	...........
	24	0.333333	5.65222E-001	-9.98626E-005	0.00000E+000	-5.64445E-005	-5.99601E-002	5.65500E-001	3.57860E+000	9	...........
	25	0.346667	5.54129E-001	-9.96042E-005	0.00000E+000	-5.51936E-005	-5.99601E-002	5.54410E-001	3.57860E+000	9	...........
	26	0.36	5.43108E-001	-1.00002E-004	0.00000E+000	-5.43120E-005	-5.99601E-002	5.43372E-001	3.57860E+000	9	...........
	27	0.373333	5.32091E-001	-9.94313E-005	0.00000E+000	-5.29064E-005	-5.99601E-002	5.32352E-001	3.57860E+000	9	...........
	28	0.386667	5.21168E-001	-9.83706E-005	0.00000E+000	-5.12676E-005	-5.99601E-002	5.21396E-001	3.57860E+000	9	...........
	29	0.4	5.10252E-001	-9.86238E-005	0.00000E+000	-5.03230E-005	-5.99601E-002	5.10513E-001	3.57860E+000	9	...........
	30	0.413333	4.99367E-001	-9.90854E-005	0.00000E+000	-4.94800E-005	-5.99601E-002	4.99649E-001	3.57860E+000	9	...........
	31	0.426667	4.88657E-001	-9.91291E-005	0.00000E+000	-4.84401E-005	-5.99601E-002	4.88873E-001	3.57860E+000	9	...........
	32	0.44	4.78273E-001	-9.89124E-005	0.00000E+000	-4.73071E-005	-5.99601E-002	4.78374E-001	3.57860E+000	9	...........
	33	0.453333	4.67615E-001	-9.89978E-005	0.00000E+000	-4.62929E-005	-5.99601E-002	4.67717E-001	3.57860E+000	9	...........
	34	0.466667	4.57027E-001	-9.85363E-005	0.00000E+000	-4.50337E-005	-5.99601E-002	4.57116E-001	3.57860E+000	9	...........
	35	0.48	4.46497E-001	-9.83602E-005	0.00000E+000	-4.39175E-005	-5.99601E-002	4.46592E-001	3.57860E+000	9	...........
	36	0.493333	4.36031E-001	-9.99626E-005	0.00000E+000	-4.35868E-005	-5.99601E-002	4.36125E-001	3.57860E+000	9	...........
	37	0.506667	4.25641E-001	-9.87978E-005	0.00000E+000	-4.20524E-005	-5.99601E-002	4.25729E-001	3.57860E+000	9	...........
	38	0.52	4.15321E-001	-9.86259E-005	0.00000E+000	-4.09614E-005	-5.99601E-002	4.15409E-001	3.57860E+000	9	...........
	39	0.533333	4.05077E-001	-9.83946E-005	0.00000E+000	-3.98573E-005	-5.99601E-002	4.05152E-001	3.57860E+000	9	...........
	40	0.546667	3.94893E-001	-9.91354E-005	0.00000E+000	-3.91478E-005	-5.99601E-002	3.94962E-001	3.57860E+000	9	...........
	41	0.56	3.84778E-001	-9.81695E-005	0.00000E+000	-3.77734E-005	-5.99601E-002	3.84853E-001	3.57860E+000	9	...........
	42	0.573333	3.74728E-001	-9.84863E-005	0.00000E+000	-3.69056E-005	-5.99601E-002	3.74800E-001	3.57860E+000	9	...........
	43	0.586667	3.64750E-001	-9.84727E-005	0.00000E+000	-3.59180E-005	-5.99601E-002	3.64823E-001	3.57860E+000	9	...........
	44	0.6	3.54837E-001	-9.89103E-005	0.00000E+000	-3.50970E-005	-5.99601E-002	3.54900E-001	3.57860E+000	9	...........
	45	0.613333	3.44986E-001	-9.93115E-005	0.00000E+000	-3.42611E-005	-5.99601E-002	3.45045E-001	3.57860E+000	9	...........
	46	0.626667	3.35196E-001	-9.92885E-005	0.00000E+000	-3.32811E-005	-5.99601E-002	3.35256E-001	3.57860E+000	9	...........
	47	0.64	3.25472E-001	-9.87530E-005	0.00000E+000	-3.21414E-005	-5.99601E-002	3.25529E-001	3.57860E+000	9	...........
	48	0.653333	3.15800E-001	-9.83175E-005	0.00000E+000	-3.10487E-005	-5.99601E-002	3.15857E-001	3.57860E+000	9	...........
	49	0.666667	3.06180E-001	-9.93312E-005	0.00000E+000	-3.04133E-005	-5.99601E-002	3.06238E-001	3.57860E+000	9	...........
	50	0.68	2.96623E-001	-9.90374E-005	0.00000E+000	-2.93768E-005	-5.99601E-002	2.96671E-001	3.57860E+000	9	...........
	51	0.693333	2.87116E-001	-9.87759E-005	0.00000E+000	-2.83602E-005	-5.99601E-002	2.87165E-001	3.57860E+000	9	...........
	52	0.706667	2.77663E-001	-9.87207E-005	0.00000E+000	-2.74111E-005	-5.99601E-002	2.77713E-001	3.57860E+000	9	...........
	53	0.72	2.68255E-001	-9.88853E-005	0.00000E+000	-2.65265E-005	-5.99601E-002	2.68305E-001	3.57860E+000	9	...........
	54	0.733333	2.58906E-001	-9.95896E-005	0.00000E+000	-2.57843E-005	-5.99601E-002	2.58955E-001	3.57860E+000	9	...........
	55	0.746667	2.49612E-001	-9.90416E-005	0.00000E+000	-2.47220E-005	-5.99601E-002	2.49657E-001	3.57860E+000	9	...........
	56	0.76	2.40374E-001	-9.91520E-005	0.00000E+000	-2.38336E-005	-5.99601E-002	2.40409E-001	3.57860E+000	9	...........
	57	0.773333	2.31176E-001	-9.86363E-005	0.00000E+000	-2.28024E-005	-5.99601E-002	2.31211E-001	3.57860E+000	9	...........
	58	0.786667	2.22034E-001	-9.82821E-005	0.00000E+000	-2.18220E-005	-5.99601E-002	2.22068E-001	3.57860E+000	9	...........
	59	0.8	2.12950E-001	-9.89176E-005	0.00000E+000	-2.10645E-005	-5.99601E-002	2.12982E-001	3.57860E+000	9	...........
	60	0.813333	2.03923E-001	-9.89155E-005	0.00000E+000	-2.01711E-005	-5.99601E-002	2.03952E-001	3.57860E+000	9	...........
	61	0.826667	1.94953E-001	-9.88614E-005	0.00000E+000	-1.92733E-005	-5.99601E-002	1.94982E-001	3.57860E+000	9	...........
	62	0.84	1.86043E-001	-9.89989E-005	0.00000E+000	-1.84181E-005	-5.99601E-002	1.86067E-001	3.57860E+000	9	...........
	63	0.853333	1.77193E-001	-9.87540E-005	0.00000E+000	-1.74986E-005	-5.99601E-002	1.77221E-001	3.57860E+000	9	...........
	64	0.866667	1.68402E-001	-9.94334E-005	0.00000E+000	-1.67447E-005	-5.99601E-002	1.68431E-001	3.57860E+000	9	...........
	65	0.88	1.59688E-001	-9.87176E-005	0.00000E+000	-1.57640E-005	-5.99601E-002	1.59709E-001	3.57860E+000	9	...........
	66	0.893333	1.51039E-001	-9.89082E-005	0.00000E+000	-1.49390E-005	-5.99601E-002	1.51059E-001	3.57860E+000	9	...........
	67	0.906667	1.42462E-001	-9.95542E-005	0.00000E+000	-1.41827E-005	-5.99601E-002	1.42479E-001	3.57860E+000	9	...........
	68	0.92	1.33958E-001	-9.86801E-005	0.00000E+000	-1.32190E-005	-5.99601E-002	1.33969E-001	3.57860E+000	9	...........
	69	0.933333	1.25528E-001	-9.85477E-005	0.00000E+000	-1.23705E-005	-5.99601E-002	1.25538E-001	3.57860E+000	9	...........
	70	0.946667	1.17172E-001	-9.96136E-005	0.00000E+000	-1.16719E-005	-5.99601E-002	1.17184E-001	3.57860E+000	9	...........
	71	0.96	1.08889E-001	-9.78007E-005	0.00000E+000	-1.06495E-005	-5.99601E-002	1.08902E-001	3.58000E+000	9	...........
	72	0.97333	1.00683E-001	-9.86373E-005	0.00000E+000	-9.93113E-006	-5.99601E-002	1.00690E-001	3.58000E+000	9	...........
	73	0.98667	9.25472E-002	-9.85373E-005	0.00000E+000	-9.11935E-006	-5.99601E-002	9.25600E-002	3.58000E+000	9	...........
	74	1	8.44986E-002	-9.85728E-005	0.00000E+000	-8.32926E-006	-5.99601E-002	8.45048E-002	3.58000E+000	9	...........
	75	1.01333	7.65225E-002	-9.88395E-005	0.00000E+000	-7.56345E-006	-5.99601E-002	7.65212E-002	3.58000E+000	9	...........
	76	1.02667	6.86177E-002	-9.90072E-005	0.00000E+000	-6.79365E-006	-5.99601E-002	6.86134E-002	3.58000E+000	9	...........
	77	1.04	6.07792E-002	-9.86436E-005	0.00000E+000	-5.99548E-006	-5.99601E-002	6.07703E-002	3.58000E+000	9	...........
	78	1.05333	5.30201E-002	-9.96813E-005	0.00000E+000	-5.28511E-006	-5.99601E-002	5.30093E-002	3.58000E+000	9	...........
	79	1.06667	4.53546E-002	-9.86634E-005	0.00000E+000	-4.47484E-006	-5.99601E-002	4.53388E-002	3.58000E+000	9	...........
	80	1.08	3.77380E-002	-9.91229E-005	0.00000E+000	-3.74070E-006	-5.99601E-002	3.77224E-002	3.58000E+000	9	...........
	81	1.09333	3.01785E-002	-9.83248E-005	0.00000E+000	-2.96729E-006	-5.99601E-002	3.01626E-002	3.58000E+000	9	...........
	82	1.10667	2.26883E-002	-9.89833E-005	0.00000E+000	-2.24576E-006	-5.99601E-002	2.26641E-002	3.58000E+000	9	...........
	83	1.12	1.52661E-002	-9.83102E-005	0.00000E+000	-1.50082E-006	-5.99601E-002	1.52410E-002	3.58000E+000	9	...........
	84	1.13333	7.90539E-003	-9.91177E-005	0.00000E+000	-7.83564E-007	-5.99601E-002	7.87480E-003	3.58000E+000	9	...........
	85	1.14333	1.52001E-003	-9.88825E-005	0.00000E+000	-1.50302E-007	-5.99601E-002	1.48181E-003	3.58000E+000	9	...........
STARTTIMEOFFSET	QUANT	2023.729	Start Time Offset (s)
