EXPLAIN
TAG	PWR800_DISCHARGE
TITLE	LABEL	PWR Cyclic Charge Discharge (Cell) - Discharge Step	Test &Identifier
DATE	LABEL	13-7-2017	Date
TIME	LABEL	15:41:30	Time
NOTES	NOTES	2	&Notes...
	supercap test cell
	6M KOH
PSTAT	PSTAT	IFC5000-01520	Potentiostat
CAPACITY	QUANT	1.00000E-003	Capacity (A-hr)
CELLTYPE	SELECTOR	1	&Cell Type
WORKINGCONNECTION	SELECTOR	0	&Working Lead
MAXDISCHARGETIME	VARIABLEANDUNITS	1.00000E+002	s	1.00000E+002	second(s)	Max &Discharge Time
DISCHARGEMODE	MULTIPARAM	0	1.00000E-004	&Discharge Mode	Constant Current	Amp(s)
SAMPLETIME	QUANT	1.00000E-002	Sa&mple Period (s)
DISCHARGESTOPAT1	MULTIPARAM	3	0.00000E+000	Discharge Stop At &1	Voltage < Limit	V
DISCHARGESTOPAT2	MULTIPARAM	0	0.00000E+000	Discharge Stop At &2	None	N/A
AESBHCSELECTOR	TOGGLE	F	Save Both Half Cells
IRCOMP	TOGGLE	F	IR &Measure
EOC	QUANT	0	Open Circuit (V)
SEQUENCER	TOGGLE	TRUE	Run as Sequence
PSTATMODEL	IQUANT	53	Pstat Model
PSTATSECTION	LABEL	IFC5000-01520	Pstat Section
PSTATSERIALNO	LABEL	01520	Pstat Serial Number
CTRLMODE	IQUANT	0	Control Mode
ELECTROMETER	IQUANT	1	RE=0 or CS=1
IESTAB	IQUANT	0	I/E Stability
CASPEED	IQUANT	4	Control Amp Speed
CONVENTION	IQUANT	1	Current Convention
ICHRANGE	IQUANT	2	Ich Range
ICHRANGEMODE	TOGGLE	T	Ich Auto Range
ICHOFFSETENABLE	TOGGLE	F	Ich Offset Enable
ICHOFFSET	QUANT	0	Ich Offset (V)
ICHFILTER	IQUANT	1	Ich Filter
VCHRANGE	IQUANT	2	Vch Range
VCHRANGEMODE	TOGGLE	T	Vch Auto Range
VCHOFFSETENABLE	TOGGLE	F	Vch Offset Enable
VCHOFFSET	QUANT	0	Vch Offset (V)
VCHFILTER	IQUANT	1	Vch Filter
IERANGELOWERLIMIT	IQUANT	9	I/E Range Lower Limit
IERANGEMODE	TOGGLE	F	I/E AutoRange
IERANGE	IQUANT	9	I/E Range
ACHSELECT	IQUANT	1	Ach Select
ACHRANGE	IQUANT	2	Ach Range
ACHOFFSETENABLE	TOGGLE	F	Ach Offset Enable
ACHOFFSET	QUANT	0	Ach Offset (V)
ACHFILTER	IQUANT	1	Ach Filter
CABLEID	IQUANT	14	Cable ID
DCCALDATE	LABEL	5-7-2017	DC Calibration Date
ACCALDATE	LABEL	12/3/2015	AC Calibration Date
FRAMEWORKVERSION	QUANT	7.01	Framework Version
INSTRUMENTVERSION	LABEL	4.00	Instrument Version
CURVE	TABLE	86
	Pt	T	Vf	Im	Vu	Pwr	Sig	Ach	Temp	IERange	Over
	#	s	V	A	V	W	V	V	deg C	#	bits
	0	0.013333	8.45136E-001	-9.89718E-005	0.00000E+000	-8.36447E-005	-5.99601E-002	8.45479E-001	3.57890E+000	9	...........
	1	0.026667	8.30922E-001	-9.87436E-005	0.00000E+000	-8.20483E-005	-5.99601E-002	8.31248E-001	3.57890E+000	9	...........
	2	0.04	8.17514E-001	-9.89530E-005	0.00000E+000	-8.08955E-005	-5.99601E-002	8.17845E-001	3.57890E+000	9	...........
	3	0.053333	8.04711E-001	-9.84800E-005	0.00000E+000	-7.92480E-005	-5.99601E-002	8.04991E-001	3.57890E+000	9	...........
	4	0.066667	7.92307E-001	-9.88655E-005	0.00000E+000	-7.83318E-005	-5.99601E-002	7.92565E-001	3.57890E+000	9	...........
	5	0.08	7.80157E-001	-9.86759E-005	0.00000E+000	-7.69827E-005	-5.99601E-002	7.80425E-001	3.57890E+000	9	...........
	6	0.093333	7.68249E-001	-9.85155E-005	0.00000E+000	-7.56844E-005	-5.99601E-002	7.68525E-001	3.57890E+000	9	...........
	7	0.106667	7.56500E-001	-9.80153E-005	0.00000E+000	-7.41486E-005	-5.99601E-002	7.56776E-001	3.57890E+000	9	...........
	8	0.12	7.44878E-001	-9.87426E-005	0.00000E+000	-7.35512E-005	-5.99601E-002	7.45158E-001	3.57890E+000	9	...........
	9	0.133333	7.33332E-001	-9.82914E-005	0.00000E+000	-7.20803E-005	-5.99601E-002	7.33629E-001	3.57890E+000	9	...........
	10	0.146667	7.21906E-001	-9.90531E-005	0.00000E+000	-7.15070E-005	-5.99601E-002	7.22164E-001	3.57890E+000	9	...........
	11	0.16	7.10478E-001	-9.92021E-005	0.00000E+000	-7.04809E-005	-5.99601E-002	7.10744E-001	3.57890E+000	9	...........
	12	0.173333	6.99145E-001	-9.77090E-005	0.00000E+000	-6.83128E-005	-5.99601E-002	6.99387E-001	3.57890E+000	9	...........
	13	0.186667	6.87821E-001	-9.92166E-005	0.00000E+000	-6.82433E-005	-5.99601E-002	6.88063E-001	3.57890E+000	9	...........
	14	0.2	6.76558E-001	-9.95271E-005	0.00000E+000	-6.73358E-005	-5.99601E-002	6.76780E-001	3.57890E+000	9	...........
	15	0.213333	6.65285E-001	-9.94240E-005	0.00000E+000	-6.61453E-005	-5.99601E-002	6.65517E-001	3.57890E+000	9	...........
	16	0.226667	6.54041E-001	-9.87447E-005	0.00000E+000	-6.45830E-005	-5.99601E-002	6.54243E-001	3.57890E+000	9	...........
	17	0.24	6.42839E-001	-9.95563E-005	0.00000E+000	-6.39987E-005	-5.99601E-002	6.43043E-001	3.57890E+000	9	...........
	18	0.253333	6.31631E-001	-9.89291E-005	0.00000E+000	-6.24867E-005	-5.99601E-002	6.31851E-001	3.57890E+000	9	...........
	19	0.266667	6.20492E-001	-9.88509E-005	0.00000E+000	-6.13362E-005	-5.99601E-002	6.20688E-001	3.57890E+000	9	...........
	20	0.28	6.09289E-001	-9.88145E-005	0.00000E+000	-6.02066E-005	-5.99601E-002	6.09553E-001	3.57890E+000	9	...........
	21	0.293333	5.98196E-001	-9.92489E-005	0.00000E+000	-5.93703E-005	-5.99601E-002	5.98460E-001	3.57890E+000	9	...........
	22	0.306667	5.87103E-001	-9.89874E-005	0.00000E+000	-5.81158E-005	-5.99601E-002	5.87391E-001	3.57890E+000	9	...........
	23	0.32	5.76052E-001	-9.96969E-005	0.00000E+000	-5.74306E-005	-5.99601E-002	5.76318E-001	3.57890E+000	9	...........
	24	0.333333	5.65034E-001	-9.89457E-005	0.00000E+000	-5.59077E-005	-5.99601E-002	5.65286E-001	3.57890E+000	9	...........
	25	0.346667	5.54044E-001	-9.90781E-005	0.00000E+000	-5.48936E-005	-5.99601E-002	5.54310E-001	3.57890E+000	9	...........
	26	0.36	5.43103E-001	-9.83831E-005	0.00000E+000	-5.34322E-005	-5.99601E-002	5.43354E-001	3.57890E+000	9	...........
	27	0.373333	5.32167E-001	-9.92083E-005	0.00000E+000	-5.27954E-005	-5.99601E-002	5.32414E-001	3.57890E+000	9	...........
	28	0.386667	5.21310E-001	-9.84634E-005	0.00000E+000	-5.13300E-005	-5.99601E-002	5.21553E-001	3.57890E+000	9	...........
	29	0.4	5.10509E-001	-9.95771E-005	0.00000E+000	-5.08350E-005	-5.99601E-002	5.10741E-001	3.57890E+000	9	...........
	30	0.413333	4.99714E-001	-9.87186E-005	0.00000E+000	-4.93310E-005	-5.99601E-002	4.99980E-001	3.57890E+000	9	...........
	31	0.426667	4.89028E-001	-9.88468E-005	0.00000E+000	-4.83389E-005	-5.99601E-002	4.89253E-001	3.57890E+000	9	...........
	32	0.44	4.78739E-001	-9.92531E-005	0.00000E+000	-4.75163E-005	-5.99601E-002	4.78839E-001	3.57890E+000	9	...........
	33	0.453333	4.68149E-001	-9.93667E-005	0.00000E+000	-4.65184E-005	-5.99601E-002	4.68248E-001	3.57866E+000	9	...........
	34	0.466667	4.57622E-001	-9.83237E-005	0.00000E+000	-4.49951E-005	-5.99601E-002	4.57718E-001	3.57850E+000	9	...........
	35	0.48	4.47163E-001	-9.83810E-005	0.00000E+000	-4.39923E-005	-5.99601E-002	4.47257E-001	3.57850E+000	9	...........
	36	0.493333	4.36771E-001	-9.93917E-005	0.00000E+000	-4.34114E-005	-5.99601E-002	4.36857E-001	3.57850E+000	9	...........
	37	0.506667	4.26443E-001	-9.95240E-005	0.00000E+000	-4.24413E-005	-5.99601E-002	4.26533E-001	3.57850E+000	9	...........
	38	0.52	4.16178E-001	-9.90208E-005	0.00000E+000	-4.12103E-005	-5.99601E-002	4.16267E-001	3.57850E+000	9	...........
	39	0.533333	4.05989E-001	-9.92781E-005	0.00000E+000	-4.03058E-005	-5.99601E-002	4.06072E-001	3.57850E+000	9	...........
	40	0.546667	3.95860E-001	-9.99699E-005	0.00000E+000	-3.95741E-005	-5.99601E-002	3.95938E-001	3.57850E+000	9	...........
	41	0.56	3.85801E-001	-9.92677E-005	0.00000E+000	-3.82975E-005	-5.99601E-002	3.85874E-001	3.57850E+000	9	...........
	42	0.573333	3.75806E-001	-9.97282E-005	0.00000E+000	-3.74785E-005	-5.99601E-002	3.75877E-001	3.57850E+000	9	...........
	43	0.586667	3.65874E-001	-9.97511E-005	0.00000E+000	-3.64964E-005	-5.99601E-002	3.65947E-001	3.57850E+000	9	...........
	44	0.6	3.56007E-001	-9.91791E-005	0.00000E+000	-3.53085E-005	-5.99601E-002	3.56075E-001	3.57850E+000	9	...........
	45	0.613333	3.46196E-001	-9.82487E-005	0.00000E+000	-3.40133E-005	-5.99601E-002	3.46267E-001	3.57850E+000	9	...........
	46	0.626667	3.36452E-001	-9.86071E-005	0.00000E+000	-3.31766E-005	-5.99601E-002	3.36516E-001	3.57850E+000	9	...........
	47	0.64	3.26763E-001	-9.80299E-005	0.00000E+000	-3.20325E-005	-5.99601E-002	3.26829E-001	3.57850E+000	9	...........
	48	0.653333	3.17127E-001	-9.95521E-005	0.00000E+000	-3.15706E-005	-5.99601E-002	3.17191E-001	3.57850E+000	9	...........
	49	0.666667	3.07555E-001	-9.81268E-005	0.00000E+000	-3.01794E-005	-5.99601E-002	3.07618E-001	3.57850E+000	9	...........
	50	0.68	2.98032E-001	-9.80456E-005	0.00000E+000	-2.92207E-005	-5.99601E-002	2.98089E-001	3.57850E+000	9	...........
	51	0.693333	2.88560E-001	-9.83123E-005	0.00000E+000	-2.83690E-005	-5.99601E-002	2.88617E-001	3.57850E+000	9	...........
	52	0.706667	2.79138E-001	-9.85092E-005	0.00000E+000	-2.74977E-005	-5.99601E-002	2.79193E-001	3.57850E+000	9	...........
	53	0.72	2.69765E-001	-9.85884E-005	0.00000E+000	-2.65957E-005	-5.99601E-002	2.69818E-001	3.57850E+000	9	...........
	54	0.733333	2.60441E-001	-9.93094E-005	0.00000E+000	-2.58643E-005	-5.99601E-002	2.60496E-001	3.57850E+000	9	...........
	55	0.746667	2.51176E-001	-9.80237E-005	0.00000E+000	-2.46212E-005	-5.99601E-002	2.51221E-001	3.57850E+000	9	...........
	56	0.76	2.41955E-001	-9.94615E-005	0.00000E+000	-2.40652E-005	-5.99601E-002	2.41997E-001	3.57850E+000	9	...........
	57	0.773333	2.32784E-001	-9.91771E-005	0.00000E+000	-2.30868E-005	-5.99601E-002	2.32820E-001	3.57850E+000	9	...........
	58	0.786667	2.23662E-001	-9.91541E-005	0.00000E+000	-2.21770E-005	-5.99601E-002	2.23698E-001	3.57850E+000	9	...........
	59	0.8	2.14593E-001	-9.86530E-005	0.00000E+000	-2.11702E-005	-5.99601E-002	2.14623E-001	3.57850E+000	9	...........
	60	0.813333	2.05581E-001	-9.93010E-005	0.00000E+000	-2.04144E-005	-5.99601E-002	2.05609E-001	3.57850E+000	9	...........
	61	0.826667	1.96621E-001	-9.97292E-005	0.00000E+000	-1.96088E-005	-5.99601E-002	1.96657E-001	3.57850E+000	9	...........
	62	0.84	1.87726E-001	-9.80435E-005	0.00000E+000	-1.84053E-005	-5.99601E-002	1.87749E-001	3.57850E+000	9	...........
	63	0.853333	1.78879E-001	-9.86822E-005	0.00000E+000	-1.76522E-005	-5.99601E-002	1.78904E-001	3.57850E+000	9	...........
	64	0.866667	1.70092E-001	-9.89885E-005	0.00000E+000	-1.68371E-005	-5.99601E-002	1.70120E-001	3.57850E+000	9	...........
	65	0.88	1.61385E-001	-9.95813E-005	0.00000E+000	-1.60709E-005	-5.99601E-002	1.61399E-001	3.57850E+000	9	...........
	66	0.893333	1.52734E-001	-9.93177E-005	0.00000E+000	-1.51692E-005	-5.99601E-002	1.52753E-001	3.57850E+000	9	...........
	67	0.906667	1.44154E-001	-9.93146E-005	0.00000E+000	-1.43166E-005	-5.99601E-002	1.44170E-001	3.57850E+000	9	...........
	68	0.92	1.35641E-001	-9.94646E-005	0.00000E+000	-1.34915E-005	-5.99601E-002	1.35656E-001	3.57850E+000	9	...........
	69	0.933333	1.27205E-001	-9.88197E-005	0.00000E+000	-1.25704E-005	-5.99601E-002	1.27219E-001	3.57850E+000	9	...........
	70	0.946667	1.18845E-001	-9.88707E-005	0.00000E+000	-1.17502E-005	-5.99601E-002	1.18859E-001	3.57850E+000	9	...........
	71	0.96	1.10554E-001	-9.86894E-005	0.00000E+000	-1.09105E-005	-5.99601E-002	1.10573E-001	3.57850E+000	9	...........
	72	0.97333	1.02346E-001	-9.97761E-005	0.00000E+000	-1.02117E-005	-5.99601E-002	1.02351E-001	3.57850E+000	9	...........
	73	0.98667	9.42056E-002	-9.90822E-005	0.00000E+000	-9.33410E-006	-5.99601E-002	9.42118E-002	3.57850E+000	9	...........
	74	1	8.61377E-002	-9.98084E-005	0.00000E+000	-8.59727E-006	-5.99601E-002	8.61387E-002	3.57850E+000	9	...........
	75	1.01333	7.81471E-002	-9.95813E-005	0.00000E+000	-7.78199E-006	-5.99601E-002	7.81475E-002	3.57850E+000	9	...........
	76	1.02667	7.02302E-002	-9.86113E-005	0.00000E+000	-6.92549E-006	-5.99601E-002	7.02236E-002	3.57850E+000	9	...........
	77	1.04	6.23855E-002	-9.97428E-005	0.00000E+000	-6.22250E-006	-5.99601E-002	6.23748E-002	3.57850E+000	9	...........
	78	1.05333	5.46178E-002	-9.89291E-005	0.00000E+000	-5.40328E-006	-5.99601E-002	5.46044E-002	3.57850E+000	9	...........
	79	1.06667	4.69270E-002	-9.85519E-005	0.00000E+000	-4.62475E-006	-5.99601E-002	4.69207E-002	3.57850E+000	9	...........
	80	1.08	3.93074E-002	-9.94334E-005	0.00000E+000	-3.90847E-006	-5.99601E-002	3.92980E-002	3.57850E+000	9	...........
	81	1.09333	3.17398E-002	-9.87363E-005	0.00000E+000	-3.13387E-006	-5.99601E-002	3.17260E-002	3.57850E+000	9	...........
	82	1.10667	2.42398E-002	-9.85623E-005	0.00000E+000	-2.38913E-006	-5.99601E-002	2.42222E-002	3.57850E+000	9	...........
	83	1.12	1.68029E-002	-9.84519E-005	0.00000E+000	-1.65428E-006	-5.99601E-002	1.67804E-002	3.57850E+000	9	...........
	84	1.13333	9.43535E-003	-9.89666E-005	0.00000E+000	-9.33785E-007	-5.99601E-002	9.40180E-003	3.57850E+000	9	...........
	85	1.145	2.58218E-003	-9.89580E-005	0.00000E+000	-2.55528E-007	-5.99601E-002	2.54941E-003	3.57850E+000	9	...........
STARTTIMEOFFSET	QUANT	1785.195	Start Time Offset (s)
