EXPLAIN
TAG	PWR800_DISCHARGE
TITLE	LABEL	PWR Cyclic Charge Discharge (Cell) - Discharge Step	Test &Identifier
DATE	LABEL	13-7-2017	Date
TIME	LABEL	15:16:57	Time
NOTES	NOTES	2	&Notes...
	supercap test cell
	6M KOH
PSTAT	PSTAT	IFC5000-01520	Potentiostat
CAPACITY	QUANT	1.00000E-003	Capacity (A-hr)
CELLTYPE	SELECTOR	1	&Cell Type
WORKINGCONNECTION	SELECTOR	0	&Working Lead
MAXDISCHARGETIME	VARIABLEANDUNITS	1.00000E+002	s	1.00000E+002	second(s)	Max &Discharge Time
DISCHARGEMODE	MULTIPARAM	0	1.00000E-004	&Discharge Mode	Constant Current	Amp(s)
SAMPLETIME	QUANT	1.00000E-002	Sa&mple Period (s)
DISCHARGESTOPAT1	MULTIPARAM	3	0.00000E+000	Discharge Stop At &1	Voltage < Limit	V
DISCHARGESTOPAT2	MULTIPARAM	0	0.00000E+000	Discharge Stop At &2	None	N/A
AESBHCSELECTOR	TOGGLE	F	Save Both Half Cells
IRCOMP	TOGGLE	F	IR &Measure
EOC	QUANT	0	Open Circuit (V)
SEQUENCER	TOGGLE	TRUE	Run as Sequence
PSTATMODEL	IQUANT	53	Pstat Model
PSTATSECTION	LABEL	IFC5000-01520	Pstat Section
PSTATSERIALNO	LABEL	01520	Pstat Serial Number
CTRLMODE	IQUANT	0	Control Mode
ELECTROMETER	IQUANT	1	RE=0 or CS=1
IESTAB	IQUANT	0	I/E Stability
CASPEED	IQUANT	4	Control Amp Speed
CONVENTION	IQUANT	1	Current Convention
ICHRANGE	IQUANT	2	Ich Range
ICHRANGEMODE	TOGGLE	T	Ich Auto Range
ICHOFFSETENABLE	TOGGLE	F	Ich Offset Enable
ICHOFFSET	QUANT	0	Ich Offset (V)
ICHFILTER	IQUANT	1	Ich Filter
VCHRANGE	IQUANT	2	Vch Range
VCHRANGEMODE	TOGGLE	T	Vch Auto Range
VCHOFFSETENABLE	TOGGLE	F	Vch Offset Enable
VCHOFFSET	QUANT	0	Vch Offset (V)
VCHFILTER	IQUANT	1	Vch Filter
IERANGELOWERLIMIT	IQUANT	9	I/E Range Lower Limit
IERANGEMODE	TOGGLE	F	I/E AutoRange
IERANGE	IQUANT	9	I/E Range
ACHSELECT	IQUANT	1	Ach Select
ACHRANGE	IQUANT	2	Ach Range
ACHOFFSETENABLE	TOGGLE	F	Ach Offset Enable
ACHOFFSET	QUANT	0	Ach Offset (V)
ACHFILTER	IQUANT	1	Ach Filter
CABLEID	IQUANT	14	Cable ID
DCCALDATE	LABEL	5-7-2017	DC Calibration Date
ACCALDATE	LABEL	12/3/2015	AC Calibration Date
FRAMEWORKVERSION	QUANT	7.01	Framework Version
INSTRUMENTVERSION	LABEL	4.00	Instrument Version
CURVE	TABLE	90
	Pt	T	Vf	Im	Vu	Pwr	Sig	Ach	Temp	IERange	Over
	#	s	V	A	V	W	V	V	deg C	#	bits
	0	0.013333	8.52210E-001	-9.84269E-005	0.00000E+000	-8.38804E-005	-5.99601E-002	8.52572E-001	3.57860E+000	9	...........
	1	0.026667	8.38623E-001	-9.90885E-005	0.00000E+000	-8.30978E-005	-5.99601E-002	8.38995E-001	3.57860E+000	9	...........
	2	0.04	8.25930E-001	-9.96449E-005	0.00000E+000	-8.22997E-005	-5.99601E-002	8.26271E-001	3.57860E+000	9	...........
	3	0.053333	8.13766E-001	-9.91750E-005	0.00000E+000	-8.07052E-005	-5.99601E-002	8.14096E-001	3.57860E+000	9	...........
	4	0.066667	8.02045E-001	-9.80351E-005	0.00000E+000	-7.86286E-005	-5.99601E-002	8.02346E-001	3.57860E+000	9	...........
	5	0.08	7.90565E-001	-9.93927E-005	0.00000E+000	-7.85764E-005	-5.99601E-002	7.90882E-001	3.57860E+000	9	...........
	6	0.093333	7.79319E-001	-9.92583E-005	0.00000E+000	-7.73539E-005	-5.99601E-002	7.79646E-001	3.57860E+000	9	...........
	7	0.106667	7.68254E-001	-9.98543E-005	0.00000E+000	-7.67134E-005	-5.99601E-002	7.68565E-001	3.57860E+000	9	...........
	8	0.12	7.57304E-001	-9.87832E-005	0.00000E+000	-7.48089E-005	-5.99601E-002	7.57605E-001	3.57860E+000	9	...........
	9	0.133333	7.46476E-001	-9.89833E-005	0.00000E+000	-7.38886E-005	-5.99601E-002	7.46738E-001	3.57860E+000	9	...........
	10	0.146667	7.35677E-001	-9.83623E-005	0.00000E+000	-7.23629E-005	-5.99601E-002	7.35953E-001	3.57860E+000	9	...........
	11	0.16	7.24996E-001	-9.87905E-005	0.00000E+000	-7.16227E-005	-5.99601E-002	7.25238E-001	3.57860E+000	9	...........
	12	0.173333	7.14284E-001	-9.93583E-005	0.00000E+000	-7.09701E-005	-5.99601E-002	7.14559E-001	3.57860E+000	9	...........
	13	0.186667	7.03664E-001	-9.91541E-005	0.00000E+000	-6.97712E-005	-5.99601E-002	7.03916E-001	3.57860E+000	9	...........
	14	0.2	6.93056E-001	-9.89906E-005	0.00000E+000	-6.86060E-005	-5.99601E-002	6.93322E-001	3.57860E+000	9	...........
	15	0.213333	6.82484E-001	-9.89833E-005	0.00000E+000	-6.75545E-005	-5.99601E-002	6.82738E-001	3.57860E+000	9	...........
	16	0.226667	6.71939E-001	-9.80601E-005	0.00000E+000	-6.58904E-005	-5.99601E-002	6.72158E-001	3.57860E+000	9	...........
	17	0.24	6.61370E-001	-9.88697E-005	0.00000E+000	-6.53894E-005	-5.99601E-002	6.61633E-001	3.57860E+000	9	...........
	18	0.253333	6.50831E-001	-9.83894E-005	0.00000E+000	-6.40348E-005	-5.99601E-002	6.51094E-001	3.57860E+000	9	...........
	19	0.266667	6.40286E-001	-9.91635E-005	0.00000E+000	-6.34930E-005	-5.99601E-002	6.40541E-001	3.57860E+000	9	...........
	20	0.28	6.29765E-001	-9.85217E-005	0.00000E+000	-6.20456E-005	-5.99601E-002	6.30019E-001	3.57860E+000	9	...........
	21	0.293333	6.19274E-001	-9.94750E-005	0.00000E+000	-6.16023E-005	-5.99601E-002	6.19503E-001	3.57860E+000	9	...........
	22	0.306667	6.08721E-001	-9.91906E-005	0.00000E+000	-6.03794E-005	-5.99601E-002	6.08986E-001	3.57860E+000	9	...........
	23	0.32	5.98258E-001	-9.87384E-005	0.00000E+000	-5.90710E-005	-5.99601E-002	5.98492E-001	3.57860E+000	9	...........
	24	0.333333	5.87774E-001	-9.89322E-005	0.00000E+000	-5.81497E-005	-5.99601E-002	5.88032E-001	3.57860E+000	9	...........
	25	0.346667	5.77315E-001	-9.87270E-005	0.00000E+000	-5.69965E-005	-5.99601E-002	5.77572E-001	3.57860E+000	9	...........
	26	0.36	5.66905E-001	-9.99824E-005	0.00000E+000	-5.66805E-005	-5.99601E-002	5.67149E-001	3.57860E+000	9	...........
	27	0.373333	5.56453E-001	-9.83019E-005	0.00000E+000	-5.47004E-005	-5.99601E-002	5.56711E-001	3.57860E+000	9	...........
	28	0.386667	5.46082E-001	-9.93250E-005	0.00000E+000	-5.42396E-005	-5.99601E-002	5.46311E-001	3.57860E+000	9	...........
	29	0.4	5.35706E-001	-9.86707E-005	0.00000E+000	-5.28584E-005	-5.99601E-002	5.35945E-001	3.57860E+000	9	...........
	30	0.413333	5.25364E-001	-9.89187E-005	0.00000E+000	-5.19683E-005	-5.99601E-002	5.25600E-001	3.57860E+000	9	...........
	31	0.426667	5.15077E-001	-9.90072E-005	0.00000E+000	-5.09963E-005	-5.99601E-002	5.15290E-001	3.57860E+000	9	...........
	32	0.44	5.04745E-001	-9.92062E-005	0.00000E+000	-5.00739E-005	-5.99601E-002	5.05010E-001	3.57860E+000	9	...........
	33	0.453333	4.94534E-001	-9.91416E-005	0.00000E+000	-4.90289E-005	-5.99601E-002	4.94773E-001	3.57860E+000	9	...........
	34	0.466667	4.84537E-001	-9.85092E-005	0.00000E+000	-4.77313E-005	-5.99601E-002	4.84671E-001	3.57860E+000	9	...........
	35	0.48	4.74559E-001	-9.89728E-005	0.00000E+000	-4.69685E-005	-5.99601E-002	4.74664E-001	3.57860E+000	9	...........
	36	0.493333	4.64456E-001	-9.86644E-005	0.00000E+000	-4.58253E-005	-5.99601E-002	4.64549E-001	3.57860E+000	9	...........
	37	0.506667	4.54397E-001	-9.85259E-005	0.00000E+000	-4.47698E-005	-5.99601E-002	4.54487E-001	3.57860E+000	9	...........
	38	0.52	4.44377E-001	-9.83394E-005	0.00000E+000	-4.36997E-005	-5.99601E-002	4.44468E-001	3.57860E+000	9	...........
	39	0.533333	4.34410E-001	-9.91979E-005	0.00000E+000	-4.30926E-005	-5.99601E-002	4.34497E-001	3.57860E+000	9	...........
	40	0.546667	4.24497E-001	-9.86644E-005	0.00000E+000	-4.18827E-005	-5.99601E-002	4.24583E-001	3.57860E+000	9	...........
	41	0.56	4.14637E-001	-9.94584E-005	0.00000E+000	-4.12391E-005	-5.99601E-002	4.14719E-001	3.57860E+000	9	...........
	42	0.573333	4.04832E-001	-9.93198E-005	0.00000E+000	-4.02079E-005	-5.99601E-002	4.04906E-001	3.57860E+000	9	...........
	43	0.586667	3.95076E-001	-9.94990E-005	0.00000E+000	-3.93096E-005	-5.99601E-002	3.95146E-001	3.57860E+000	9	...........
	44	0.6	3.85367E-001	-9.92531E-005	0.00000E+000	-3.82488E-005	-5.99601E-002	3.85438E-001	3.57860E+000	9	...........
	45	0.613333	3.75715E-001	-9.88905E-005	0.00000E+000	-3.71546E-005	-5.99601E-002	3.75789E-001	3.57860E+000	9	...........
	46	0.626667	3.66111E-001	-9.89291E-005	0.00000E+000	-3.62190E-005	-5.99601E-002	3.66186E-001	3.57860E+000	9	...........
	47	0.64	3.56559E-001	-9.86144E-005	0.00000E+000	-3.51618E-005	-5.99601E-002	3.56625E-001	3.57860E+000	9	...........
	48	0.653333	3.47056E-001	-9.87363E-005	0.00000E+000	-3.42670E-005	-5.99601E-002	3.47121E-001	3.57860E+000	9	...........
	49	0.666667	3.37598E-001	-9.88176E-005	0.00000E+000	-3.33606E-005	-5.99601E-002	3.37661E-001	3.57860E+000	9	...........
	50	0.68	3.28187E-001	-9.92625E-005	0.00000E+000	-3.25766E-005	-5.99601E-002	3.28240E-001	3.57860E+000	9	...........
	51	0.693333	3.18828E-001	-9.71964E-005	0.00000E+000	-3.09889E-005	-5.99601E-002	3.18885E-001	3.57860E+000	9	...........
	52	0.706667	3.09508E-001	-9.91802E-005	0.00000E+000	-3.06971E-005	-5.99601E-002	3.09564E-001	3.57860E+000	9	...........
	53	0.72	3.00229E-001	-9.87822E-005	0.00000E+000	-2.96572E-005	-5.99601E-002	3.00285E-001	3.57860E+000	9	...........
	54	0.733333	2.91003E-001	-9.93698E-005	0.00000E+000	-2.89169E-005	-5.99601E-002	2.91052E-001	3.57860E+000	9	...........
	55	0.746667	2.81812E-001	-9.86811E-005	0.00000E+000	-2.78095E-005	-5.99601E-002	2.81866E-001	3.57860E+000	9	...........
	56	0.76	2.72669E-001	-9.88634E-005	0.00000E+000	-2.69570E-005	-5.99601E-002	2.72715E-001	3.57860E+000	9	...........
	57	0.773333	2.63558E-001	-9.91843E-005	0.00000E+000	-2.61408E-005	-5.99601E-002	2.63608E-001	3.57860E+000	9	...........
	58	0.786667	2.54493E-001	-9.91916E-005	0.00000E+000	-2.52436E-005	-5.99601E-002	2.54546E-001	3.57860E+000	9	...........
	59	0.8	2.45474E-001	-9.87332E-005	0.00000E+000	-2.42364E-005	-5.99601E-002	2.45515E-001	3.57860E+000	9	...........
	60	0.813333	2.36485E-001	-9.85748E-005	0.00000E+000	-2.33114E-005	-5.99601E-002	2.36527E-001	3.57860E+000	9	...........
	61	0.826667	2.27544E-001	-9.93938E-005	0.00000E+000	-2.26165E-005	-5.99601E-002	2.27582E-001	3.57860E+000	9	...........
	62	0.84	2.18640E-001	-9.84300E-005	0.00000E+000	-2.15207E-005	-5.99601E-002	2.18681E-001	3.57860E+000	9	...........
	63	0.853333	2.09782E-001	-9.81591E-005	0.00000E+000	-2.05920E-005	-5.99601E-002	2.09811E-001	3.57860E+000	9	...........
	64	0.866667	2.00962E-001	-9.87353E-005	0.00000E+000	-1.98421E-005	-5.99601E-002	2.00997E-001	3.57860E+000	9	...........
	65	0.88	1.92195E-001	-9.79268E-005	0.00000E+000	-1.88211E-005	-5.99601E-002	1.92218E-001	3.57860E+000	9	...........
	66	0.893333	1.83467E-001	-9.93469E-005	0.00000E+000	-1.82268E-005	-5.99601E-002	1.83495E-001	3.57935E+000	9	...........
	67	0.906667	1.74786E-001	-9.85915E-005	0.00000E+000	-1.72325E-005	-5.99601E-002	1.74813E-001	3.58010E+000	9	...........
	68	0.92	1.66161E-001	-9.89708E-005	0.00000E+000	-1.64451E-005	-5.99601E-002	1.66184E-001	3.58010E+000	9	...........
	69	0.933333	1.57593E-001	-9.88686E-005	0.00000E+000	-1.55810E-005	-5.99601E-002	1.57616E-001	3.58010E+000	9	...........
	70	0.946667	1.49081E-001	-9.81289E-005	0.00000E+000	-1.46292E-005	-5.99601E-002	1.49100E-001	3.58010E+000	9	...........
	71	0.96	1.40623E-001	-9.84884E-005	0.00000E+000	-1.38497E-005	-5.99601E-002	1.40638E-001	3.58010E+000	9	...........
	72	0.97333	1.32226E-001	-9.88843E-005	0.00000E+000	-1.30750E-005	-5.99601E-002	1.32242E-001	3.58010E+000	9	...........
	73	0.98667	1.23896E-001	-9.84821E-005	0.00000E+000	-1.22016E-005	-5.99601E-002	1.23905E-001	3.58010E+000	9	...........
	74	1	1.15622E-001	-9.95917E-005	0.00000E+000	-1.15150E-005	-5.99601E-002	1.15640E-001	3.58010E+000	9	...........
	75	1.01333	1.07423E-001	-9.93375E-005	0.00000E+000	-1.06712E-005	-5.99601E-002	1.07434E-001	3.58010E+000	9	...........
	76	1.02667	9.92891E-002	-9.79403E-005	0.00000E+000	-9.72441E-006	-5.99601E-002	9.93057E-002	3.58010E+000	9	...........
	77	1.04	9.12255E-002	-9.78643E-005	0.00000E+000	-8.92772E-006	-5.99601E-002	9.12375E-002	3.58010E+000	9	...........
	78	1.05333	8.32275E-002	-9.94281E-005	0.00000E+000	-8.27516E-006	-5.99601E-002	8.32328E-002	3.58010E+000	9	...........
	79	1.06667	7.52999E-002	-9.93583E-005	0.00000E+000	-7.48168E-006	-5.99601E-002	7.52997E-002	3.58010E+000	9	...........
	80	1.08	6.74418E-002	-9.78778E-005	0.00000E+000	-6.60105E-006	-5.99601E-002	6.74342E-002	3.58010E+000	9	...........
	81	1.09333	5.96429E-002	-9.90770E-005	0.00000E+000	-5.90924E-006	-5.99601E-002	5.96404E-002	3.58010E+000	9	...........
	82	1.10667	5.19108E-002	-9.92458E-005	0.00000E+000	-5.15193E-006	-5.99601E-002	5.19057E-002	3.58010E+000	9	...........
	83	1.12	4.42857E-002	-9.89155E-005	0.00000E+000	-4.38055E-006	-5.99601E-002	4.42734E-002	3.58010E+000	9	...........
	84	1.13333	3.66873E-002	-9.88489E-005	0.00000E+000	-3.62650E-006	-5.99601E-002	3.66773E-002	3.58010E+000	9	...........
	85	1.14667	2.91494E-002	-9.90166E-005	0.00000E+000	-2.88627E-006	-5.99601E-002	2.91344E-002	3.58010E+000	9	...........
	86	1.16	2.16719E-002	-9.95771E-005	0.00000E+000	-2.15803E-006	-5.99601E-002	2.16503E-002	3.58010E+000	9	...........
	87	1.17333	1.42601E-002	-9.99064E-005	0.00000E+000	-1.42468E-006	-5.99601E-002	1.42303E-002	3.58010E+000	9	...........
	88	1.18667	6.90651E-003	-9.88989E-005	0.00000E+000	-6.83046E-007	-5.99601E-002	6.87398E-003	3.58010E+000	9	...........
	89	1.195	9.73719E-004	-9.82585E-005	0.00000E+000	-9.56762E-008	-5.99601E-002	9.43800E-004	3.58010E+000	9	...........
STARTTIMEOFFSET	QUANT	675.1557	Start Time Offset (s)
