EXPLAIN
TAG	PWR800_DISCHARGE
TITLE	LABEL	PWR Cyclic Charge Discharge (Cell) - Discharge Step	Test &Identifier
DATE	LABEL	13-7-2017	Date
TIME	LABEL	15:33:30	Time
NOTES	NOTES	2	&Notes...
	supercap test cell
	6M KOH
PSTAT	PSTAT	IFC5000-01520	Potentiostat
CAPACITY	QUANT	1.00000E-003	Capacity (A-hr)
CELLTYPE	SELECTOR	1	&Cell Type
WORKINGCONNECTION	SELECTOR	0	&Working Lead
MAXDISCHARGETIME	VARIABLEANDUNITS	1.00000E+002	s	1.00000E+002	second(s)	Max &Discharge Time
DISCHARGEMODE	MULTIPARAM	0	1.00000E-004	&Discharge Mode	Constant Current	Amp(s)
SAMPLETIME	QUANT	1.00000E-002	Sa&mple Period (s)
DISCHARGESTOPAT1	MULTIPARAM	3	0.00000E+000	Discharge Stop At &1	Voltage < Limit	V
DISCHARGESTOPAT2	MULTIPARAM	0	0.00000E+000	Discharge Stop At &2	None	N/A
AESBHCSELECTOR	TOGGLE	F	Save Both Half Cells
IRCOMP	TOGGLE	F	IR &Measure
EOC	QUANT	0	Open Circuit (V)
SEQUENCER	TOGGLE	TRUE	Run as Sequence
PSTATMODEL	IQUANT	53	Pstat Model
PSTATSECTION	LABEL	IFC5000-01520	Pstat Section
PSTATSERIALNO	LABEL	01520	Pstat Serial Number
CTRLMODE	IQUANT	0	Control Mode
ELECTROMETER	IQUANT	1	RE=0 or CS=1
IESTAB	IQUANT	0	I/E Stability
CASPEED	IQUANT	4	Control Amp Speed
CONVENTION	IQUANT	1	Current Convention
ICHRANGE	IQUANT	2	Ich Range
ICHRANGEMODE	TOGGLE	T	Ich Auto Range
ICHOFFSETENABLE	TOGGLE	F	Ich Offset Enable
ICHOFFSET	QUANT	0	Ich Offset (V)
ICHFILTER	IQUANT	1	Ich Filter
VCHRANGE	IQUANT	2	Vch Range
VCHRANGEMODE	TOGGLE	T	Vch Auto Range
VCHOFFSETENABLE	TOGGLE	F	Vch Offset Enable
VCHOFFSET	QUANT	0	Vch Offset (V)
VCHFILTER	IQUANT	1	Vch Filter
IERANGELOWERLIMIT	IQUANT	9	I/E Range Lower Limit
IERANGEMODE	TOGGLE	F	I/E AutoRange
IERANGE	IQUANT	9	I/E Range
ACHSELECT	IQUANT	1	Ach Select
ACHRANGE	IQUANT	2	Ach Range
ACHOFFSETENABLE	TOGGLE	F	Ach Offset Enable
ACHOFFSET	QUANT	0	Ach Offset (V)
ACHFILTER	IQUANT	1	Ach Filter
CABLEID	IQUANT	14	Cable ID
DCCALDATE	LABEL	5-7-2017	DC Calibration Date
ACCALDATE	LABEL	12/3/2015	AC Calibration Date
FRAMEWORKVERSION	QUANT	7.01	Framework Version
INSTRUMENTVERSION	LABEL	4.00	Instrument Version
CURVE	TABLE	87
	Pt	T	Vf	Im	Vu	Pwr	Sig	Ach	Temp	IERange	Over
	#	s	V	A	V	W	V	V	deg C	#	bits
	0	0.013333	8.47576E-001	-9.88134E-005	0.00000E+000	-8.37519E-005	-5.99601E-002	8.47876E-001	3.57990E+000	9	...........
	1	0.026667	8.33489E-001	-9.85155E-005	0.00000E+000	-8.21116E-005	-5.99601E-002	8.33813E-001	3.57990E+000	9	...........
	2	0.04	8.20286E-001	-9.87468E-005	0.00000E+000	-8.10006E-005	-5.99601E-002	8.20576E-001	3.57990E+000	9	...........
	3	0.053333	8.07625E-001	-9.79924E-005	0.00000E+000	-7.91411E-005	-5.99601E-002	8.07941E-001	3.57990E+000	9	...........
	4	0.066667	7.95383E-001	-9.82102E-005	0.00000E+000	-7.81147E-005	-5.99601E-002	7.95668E-001	3.57990E+000	9	...........
	5	0.08	7.83412E-001	-9.89176E-005	0.00000E+000	-7.74933E-005	-5.99601E-002	7.83704E-001	3.57990E+000	9	...........
	6	0.093333	7.71699E-001	-9.85134E-005	0.00000E+000	-7.60227E-005	-5.99601E-002	7.71977E-001	3.57990E+000	9	...........
	7	0.106667	7.60114E-001	-9.91739E-005	0.00000E+000	-7.53834E-005	-5.99601E-002	7.60394E-001	3.57990E+000	9	...........
	8	0.12	7.48652E-001	-9.91510E-005	0.00000E+000	-7.42296E-005	-5.99601E-002	7.48953E-001	3.57990E+000	9	...........
	9	0.133333	7.37284E-001	-9.93510E-005	0.00000E+000	-7.32499E-005	-5.99601E-002	7.37581E-001	3.57990E+000	9	...........
	10	0.146667	7.26024E-001	-9.87947E-005	0.00000E+000	-7.17273E-005	-5.99601E-002	7.26289E-001	3.57990E+000	9	...........
	11	0.16	7.14771E-001	-9.97532E-005	0.00000E+000	-7.13007E-005	-5.99601E-002	7.15053E-001	3.57990E+000	9	...........
	12	0.173333	7.03596E-001	-9.90812E-005	0.00000E+000	-6.97132E-005	-5.99601E-002	7.03865E-001	3.57903E+000	9	...........
	13	0.186667	6.92457E-001	-9.90614E-005	0.00000E+000	-6.85958E-005	-5.99601E-002	6.92730E-001	3.57850E+000	9	...........
	14	0.2	6.81341E-001	-9.93333E-005	0.00000E+000	-6.76798E-005	-5.99601E-002	6.81632E-001	3.57850E+000	9	...........
	15	0.213333	6.70257E-001	-9.81237E-005	0.00000E+000	-6.57681E-005	-5.99601E-002	6.70518E-001	3.57850E+000	9	...........
	16	0.226667	6.59178E-001	-9.91364E-005	0.00000E+000	-6.53485E-005	-5.99601E-002	6.59419E-001	3.57850E+000	9	...........
	17	0.24	6.48143E-001	-9.98470E-005	0.00000E+000	-6.47152E-005	-5.99601E-002	6.48383E-001	3.57850E+000	9	...........
	18	0.253333	6.37098E-001	-9.94667E-005	0.00000E+000	-6.33700E-005	-5.99601E-002	6.37349E-001	3.57850E+000	9	...........
	19	0.266667	6.26127E-001	-9.88332E-005	0.00000E+000	-6.18821E-005	-5.99601E-002	6.26347E-001	3.57850E+000	9	...........
	20	0.28	6.15110E-001	-9.92792E-005	0.00000E+000	-6.10676E-005	-5.99601E-002	6.15351E-001	3.57850E+000	9	...........
	21	0.293333	6.04113E-001	-9.83873E-005	0.00000E+000	-5.94371E-005	-5.99601E-002	6.04387E-001	3.57850E+000	9	...........
	22	0.306667	5.93191E-001	-9.77153E-005	0.00000E+000	-5.79638E-005	-5.99601E-002	5.93480E-001	3.57850E+000	9	...........
	23	0.32	5.82255E-001	-9.92083E-005	0.00000E+000	-5.77646E-005	-5.99601E-002	5.82523E-001	3.57850E+000	9	...........
	24	0.333333	5.71405E-001	-9.87343E-005	0.00000E+000	-5.64173E-005	-5.99601E-002	5.71657E-001	3.57850E+000	9	...........
	25	0.346667	5.60521E-001	-9.86780E-005	0.00000E+000	-5.53111E-005	-5.99601E-002	5.60747E-001	3.57850E+000	9	...........
	26	0.36	5.49683E-001	-9.91177E-005	0.00000E+000	-5.44833E-005	-5.99601E-002	5.49897E-001	3.57850E+000	9	...........
	27	0.373333	5.38889E-001	-9.83956E-005	0.00000E+000	-5.30244E-005	-5.99601E-002	5.39139E-001	3.57850E+000	9	...........
	28	0.386667	5.28135E-001	-9.84967E-005	0.00000E+000	-5.20196E-005	-5.99601E-002	5.28345E-001	3.57850E+000	9	...........
	29	0.4	5.17441E-001	-9.88166E-005	0.00000E+000	-5.11318E-005	-5.99601E-002	5.17642E-001	3.57850E+000	9	...........
	30	0.413333	5.06727E-001	-9.83790E-005	0.00000E+000	-4.98513E-005	-5.99601E-002	5.06996E-001	3.57850E+000	9	...........
	31	0.426667	4.96124E-001	-9.88666E-005	0.00000E+000	-4.90500E-005	-5.99601E-002	4.96409E-001	3.57850E+000	9	...........
	32	0.44	4.85724E-001	-9.85238E-005	0.00000E+000	-4.78554E-005	-5.99601E-002	4.85907E-001	3.57850E+000	9	...........
	33	0.453333	4.75439E-001	-9.86728E-005	0.00000E+000	-4.69128E-005	-5.99601E-002	4.75541E-001	3.57850E+000	9	...........
	34	0.466667	4.64985E-001	-9.90822E-005	0.00000E+000	-4.60717E-005	-5.99601E-002	4.65083E-001	3.57850E+000	9	...........
	35	0.48	4.54599E-001	-9.85248E-005	0.00000E+000	-4.47893E-005	-5.99601E-002	4.54691E-001	3.57850E+000	9	...........
	36	0.493333	4.44265E-001	-9.85175E-005	0.00000E+000	-4.37679E-005	-5.99601E-002	4.44362E-001	3.57850E+000	9	...........
	37	0.506667	4.34000E-001	-9.83060E-005	0.00000E+000	-4.26648E-005	-5.99601E-002	4.34087E-001	3.57850E+000	9	...........
	38	0.52	4.23790E-001	-9.85915E-005	0.00000E+000	-4.17821E-005	-5.99601E-002	4.23879E-001	3.57850E+000	9	...........
	39	0.533333	4.13646E-001	-9.79455E-005	0.00000E+000	-4.05148E-005	-5.99601E-002	4.13728E-001	3.57850E+000	9	...........
	40	0.546667	4.03567E-001	-9.94021E-005	0.00000E+000	-4.01154E-005	-5.99601E-002	4.03646E-001	3.57850E+000	9	...........
	41	0.56	3.93550E-001	-9.92375E-005	0.00000E+000	-3.90549E-005	-5.99601E-002	3.93625E-001	3.57850E+000	9	...........
	42	0.573333	3.83589E-001	-9.92177E-005	0.00000E+000	-3.80588E-005	-5.99601E-002	3.83667E-001	3.57850E+000	9	...........
	43	0.586667	3.73706E-001	-9.94875E-005	0.00000E+000	-3.71791E-005	-5.99601E-002	3.73773E-001	3.57850E+000	9	...........
	44	0.6	3.63872E-001	-9.90656E-005	0.00000E+000	-3.60472E-005	-5.99601E-002	3.63937E-001	3.57850E+000	9	...........
	45	0.613333	3.54089E-001	-9.86613E-005	0.00000E+000	-3.49349E-005	-5.99601E-002	3.54157E-001	3.57850E+000	9	...........
	46	0.626667	3.44374E-001	-9.96917E-005	0.00000E+000	-3.43313E-005	-5.99601E-002	3.44438E-001	3.57850E+000	9	...........
	47	0.64	3.34709E-001	-9.87082E-005	0.00000E+000	-3.30385E-005	-5.99601E-002	3.34777E-001	3.57850E+000	9	...........
	48	0.653333	3.25111E-001	-9.85905E-005	0.00000E+000	-3.20529E-005	-5.99601E-002	3.25177E-001	3.57850E+000	9	...........
	49	0.666667	3.15561E-001	-9.93385E-005	0.00000E+000	-3.13473E-005	-5.99601E-002	3.15621E-001	3.57850E+000	9	...........
	50	0.68	3.06059E-001	-9.88332E-005	0.00000E+000	-3.02488E-005	-5.99601E-002	3.06120E-001	3.57850E+000	9	...........
	51	0.693333	2.96610E-001	-9.88634E-005	0.00000E+000	-2.93239E-005	-5.99601E-002	2.96662E-001	3.57850E+000	9	...........
	52	0.706667	2.87216E-001	-9.87593E-005	0.00000E+000	-2.83653E-005	-5.99601E-002	2.87265E-001	3.57850E+000	9	...........
	53	0.72	2.77862E-001	-9.98293E-005	0.00000E+000	-2.77387E-005	-5.99601E-002	2.77914E-001	3.57850E+000	9	...........
	54	0.733333	2.68563E-001	-9.87832E-005	0.00000E+000	-2.65295E-005	-5.99601E-002	2.68610E-001	3.57850E+000	9	...........
	55	0.746667	2.59312E-001	-9.83477E-005	0.00000E+000	-2.55028E-005	-5.99601E-002	2.59361E-001	3.57850E+000	9	...........
	56	0.76	2.50101E-001	-9.87832E-005	0.00000E+000	-2.47058E-005	-5.99601E-002	2.50145E-001	3.57850E+000	9	...........
	57	0.773333	2.40951E-001	-9.89405E-005	0.00000E+000	-2.38398E-005	-5.99601E-002	2.40986E-001	3.57850E+000	9	...........
	58	0.786667	2.31833E-001	-9.87770E-005	0.00000E+000	-2.28997E-005	-5.99601E-002	2.31867E-001	3.57850E+000	9	...........
	59	0.8	2.22763E-001	-9.88155E-005	0.00000E+000	-2.20124E-005	-5.99601E-002	2.22803E-001	3.57850E+000	9	...........
	60	0.813333	2.13745E-001	-9.84008E-005	0.00000E+000	-2.10327E-005	-5.99601E-002	2.13784E-001	3.57850E+000	9	...........
	61	0.826667	2.04779E-001	-9.88416E-005	0.00000E+000	-2.02407E-005	-5.99601E-002	2.04813E-001	3.57850E+000	9	...........
	62	0.84	1.95867E-001	-9.91656E-005	0.00000E+000	-1.94233E-005	-5.99601E-002	1.95898E-001	3.57850E+000	9	...........
	63	0.853333	1.87005E-001	-9.88832E-005	0.00000E+000	-1.84917E-005	-5.99601E-002	1.87032E-001	3.57850E+000	9	...........
	64	0.866667	1.78204E-001	-9.84800E-005	0.00000E+000	-1.75495E-005	-5.99601E-002	1.78235E-001	3.57850E+000	9	...........
	65	0.88	1.69462E-001	-9.90812E-005	0.00000E+000	-1.67905E-005	-5.99601E-002	1.69489E-001	3.57850E+000	9	...........
	66	0.893333	1.60783E-001	-9.95896E-005	0.00000E+000	-1.60124E-005	-5.99601E-002	1.60806E-001	3.57850E+000	9	...........
	67	0.906667	1.52163E-001	-9.88270E-005	0.00000E+000	-1.50378E-005	-5.99601E-002	1.52188E-001	3.57850E+000	9	...........
	68	0.92	1.43612E-001	-9.79601E-005	0.00000E+000	-1.40682E-005	-5.99601E-002	1.43630E-001	3.57850E+000	9	...........
	69	0.933333	1.35133E-001	-9.83071E-005	0.00000E+000	-1.32845E-005	-5.99601E-002	1.35148E-001	3.57850E+000	9	...........
	70	0.946667	1.26724E-001	-9.89437E-005	0.00000E+000	-1.25386E-005	-5.99601E-002	1.26737E-001	3.57850E+000	9	...........
	71	0.96	1.18380E-001	-9.82070E-005	0.00000E+000	-1.16257E-005	-5.99601E-002	1.18390E-001	3.57850E+000	9	...........
	72	0.97333	1.10114E-001	-9.76403E-005	0.00000E+000	-1.07515E-005	-5.99601E-002	1.10121E-001	3.57850E+000	9	...........
	73	0.98667	1.01920E-001	-9.92875E-005	0.00000E+000	-1.01194E-005	-5.99601E-002	1.01930E-001	3.57850E+000	9	...........
	74	1	9.37967E-002	-9.84113E-005	0.00000E+000	-9.23065E-006	-5.99601E-002	9.38025E-002	3.57850E+000	9	...........
	75	1.01333	8.57522E-002	-9.85415E-005	0.00000E+000	-8.45015E-006	-5.99601E-002	8.57560E-002	3.57850E+000	9	...........
	76	1.02667	7.77771E-002	-9.94542E-005	0.00000E+000	-7.73526E-006	-5.99601E-002	7.77753E-002	3.57850E+000	9	...........
	77	1.04	6.98758E-002	-9.86540E-005	0.00000E+000	-6.89353E-006	-5.99601E-002	6.98671E-002	3.57850E+000	9	...........
	78	1.05333	6.20478E-002	-9.80622E-005	0.00000E+000	-6.08454E-006	-5.99601E-002	6.20389E-002	3.57850E+000	9	...........
	79	1.06667	5.42870E-002	-9.90739E-005	0.00000E+000	-5.37843E-006	-5.99601E-002	5.42779E-002	3.57850E+000	9	...........
	80	1.08	4.66199E-002	-9.85061E-005	0.00000E+000	-4.59234E-006	-5.99601E-002	4.66153E-002	3.57850E+000	9	...........
	81	1.09333	3.90139E-002	-9.94917E-005	0.00000E+000	-3.88156E-006	-5.99601E-002	3.90047E-002	3.57850E+000	9	...........
	82	1.10667	3.14549E-002	-9.94615E-005	0.00000E+000	-3.12855E-006	-5.99601E-002	3.14394E-002	3.57850E+000	9	...........
	83	1.12	2.39615E-002	-9.90697E-005	0.00000E+000	-2.37386E-006	-5.99601E-002	2.39395E-002	3.57850E+000	9	...........
	84	1.13333	1.65362E-002	-9.93667E-005	0.00000E+000	-1.64315E-006	-5.99601E-002	1.65101E-002	3.57850E+000	9	...........
	85	1.14667	9.16973E-003	-9.88843E-005	0.00000E+000	-9.06743E-007	-5.99601E-002	9.14269E-003	3.57850E+000	9	...........
	86	1.15833	2.32570E-003	-9.83614E-005	0.00000E+000	-2.28759E-007	-5.99601E-002	2.29073E-003	3.57850E+000	9	...........
STARTTIMEOFFSET	QUANT	1424.324	Start Time Offset (s)
