EXPLAIN
TAG	PWR800_DISCHARGE
TITLE	LABEL	PWR Cyclic Charge Discharge (Cell) - Discharge Step	Test &Identifier
DATE	LABEL	13-7-2017	Date
TIME	LABEL	15:48:57	Time
NOTES	NOTES	2	&Notes...
	supercap test cell
	6M KOH
PSTAT	PSTAT	IFC5000-01520	Potentiostat
CAPACITY	QUANT	1.00000E-003	Capacity (A-hr)
CELLTYPE	SELECTOR	1	&Cell Type
WORKINGCONNECTION	SELECTOR	0	&Working Lead
MAXDISCHARGETIME	VARIABLEANDUNITS	1.00000E+002	s	1.00000E+002	second(s)	Max &Discharge Time
DISCHARGEMODE	MULTIPARAM	0	1.00000E-004	&Discharge Mode	Constant Current	Amp(s)
SAMPLETIME	QUANT	1.00000E-002	Sa&mple Period (s)
DISCHARGESTOPAT1	MULTIPARAM	3	0.00000E+000	Discharge Stop At &1	Voltage < Limit	V
DISCHARGESTOPAT2	MULTIPARAM	0	0.00000E+000	Discharge Stop At &2	None	N/A
AESBHCSELECTOR	TOGGLE	F	Save Both Half Cells
IRCOMP	TOGGLE	F	IR &Measure
EOC	QUANT	0	Open Circuit (V)
SEQUENCER	TOGGLE	TRUE	Run as Sequence
PSTATMODEL	IQUANT	53	Pstat Model
PSTATSECTION	LABEL	IFC5000-01520	Pstat Section
PSTATSERIALNO	LABEL	01520	Pstat Serial Number
CTRLMODE	IQUANT	0	Control Mode
ELECTROMETER	IQUANT	1	RE=0 or CS=1
IESTAB	IQUANT	0	I/E Stability
CASPEED	IQUANT	4	Control Amp Speed
CONVENTION	IQUANT	1	Current Convention
ICHRANGE	IQUANT	2	Ich Range
ICHRANGEMODE	TOGGLE	T	Ich Auto Range
ICHOFFSETENABLE	TOGGLE	F	Ich Offset Enable
ICHOFFSET	QUANT	0	Ich Offset (V)
ICHFILTER	IQUANT	1	Ich Filter
VCHRANGE	IQUANT	2	Vch Range
VCHRANGEMODE	TOGGLE	T	Vch Auto Range
VCHOFFSETENABLE	TOGGLE	F	Vch Offset Enable
VCHOFFSET	QUANT	0	Vch Offset (V)
VCHFILTER	IQUANT	1	Vch Filter
IERANGELOWERLIMIT	IQUANT	9	I/E Range Lower Limit
IERANGEMODE	TOGGLE	F	I/E AutoRange
IERANGE	IQUANT	9	I/E Range
ACHSELECT	IQUANT	1	Ach Select
ACHRANGE	IQUANT	2	Ach Range
ACHOFFSETENABLE	TOGGLE	F	Ach Offset Enable
ACHOFFSET	QUANT	0	Ach Offset (V)
ACHFILTER	IQUANT	1	Ach Filter
CABLEID	IQUANT	14	Cable ID
DCCALDATE	LABEL	5-7-2017	DC Calibration Date
ACCALDATE	LABEL	12/3/2015	AC Calibration Date
FRAMEWORKVERSION	QUANT	7.01	Framework Version
INSTRUMENTVERSION	LABEL	4.00	Instrument Version
CURVE	TABLE	86
	Pt	T	Vf	Im	Vu	Pwr	Sig	Ach	Temp	IERange	Over
	#	s	V	A	V	W	V	V	deg C	#	bits
	0	0.013333	8.46150E-001	-9.89906E-005	0.00000E+000	-8.37609E-005	-5.99601E-002	8.46493E-001	3.57860E+000	9	...........
	1	0.026667	8.31924E-001	-9.93156E-005	0.00000E+000	-8.26230E-005	-5.99601E-002	8.32267E-001	3.57860E+000	9	...........
	2	0.04	8.18505E-001	-9.85498E-005	0.00000E+000	-8.06636E-005	-5.99601E-002	8.18858E-001	3.57860E+000	9	...........
	3	0.053333	8.05668E-001	-9.89510E-005	0.00000E+000	-7.97216E-005	-5.99601E-002	8.06000E-001	3.57860E+000	9	...........
	4	0.066667	7.93227E-001	-9.82644E-005	0.00000E+000	-7.79460E-005	-5.99601E-002	7.93559E-001	3.57860E+000	9	...........
	5	0.08	7.81033E-001	-9.85634E-005	0.00000E+000	-7.69812E-005	-5.99601E-002	7.81347E-001	3.57860E+000	9	...........
	6	0.093333	7.69077E-001	-9.90406E-005	0.00000E+000	-7.61698E-005	-5.99601E-002	7.69374E-001	3.57860E+000	9	...........
	7	0.106667	7.57235E-001	-9.86363E-005	0.00000E+000	-7.46909E-005	-5.99601E-002	7.57520E-001	3.57860E+000	9	...........
	8	0.12	7.45532E-001	-9.88280E-005	0.00000E+000	-7.36794E-005	-5.99601E-002	7.45815E-001	3.57860E+000	9	...........
	9	0.133333	7.33905E-001	-9.85321E-005	0.00000E+000	-7.23132E-005	-5.99601E-002	7.34191E-001	3.57860E+000	9	...........
	10	0.146667	7.22371E-001	-9.83633E-005	0.00000E+000	-7.10548E-005	-5.99601E-002	7.22626E-001	3.57860E+000	9	...........
	11	0.16	7.10810E-001	-9.85019E-005	0.00000E+000	-7.00162E-005	-5.99601E-002	7.11114E-001	3.57860E+000	9	...........
	12	0.173333	6.99371E-001	-9.81487E-005	0.00000E+000	-6.86424E-005	-5.99601E-002	6.99642E-001	3.57860E+000	9	...........
	13	0.186667	6.87946E-001	-9.83769E-005	0.00000E+000	-6.76780E-005	-5.99601E-002	6.88214E-001	3.57860E+000	9	...........
	14	0.2	6.76556E-001	-9.87301E-005	0.00000E+000	-6.67965E-005	-5.99601E-002	6.76823E-001	3.57860E+000	9	...........
	15	0.213333	6.65175E-001	-9.83050E-005	0.00000E+000	-6.53900E-005	-5.99601E-002	6.65433E-001	3.57860E+000	9	...........
	16	0.226667	6.53816E-001	-9.83029E-005	0.00000E+000	-6.42720E-005	-5.99601E-002	6.54084E-001	3.57860E+000	9	...........
	17	0.24	6.42498E-001	-9.82123E-005	0.00000E+000	-6.31011E-005	-5.99601E-002	6.42744E-001	3.57860E+000	9	...........
	18	0.253333	6.31177E-001	-9.94979E-005	0.00000E+000	-6.28008E-005	-5.99601E-002	6.31429E-001	3.57860E+000	9	...........
	19	0.266667	6.19909E-001	-9.83290E-005	0.00000E+000	-6.09550E-005	-5.99601E-002	6.20144E-001	3.57860E+000	9	...........
	20	0.28	6.08598E-001	-9.88947E-005	0.00000E+000	-6.01871E-005	-5.99601E-002	6.08867E-001	3.57860E+000	9	...........
	21	0.293333	5.97390E-001	-9.83237E-005	0.00000E+000	-5.87376E-005	-5.99601E-002	5.97633E-001	3.57860E+000	9	...........
	22	0.306667	5.86167E-001	-9.86405E-005	0.00000E+000	-5.78198E-005	-5.99601E-002	5.86428E-001	3.57860E+000	9	...........
	23	0.32	5.75005E-001	-9.87738E-005	0.00000E+000	-5.67955E-005	-5.99601E-002	5.75242E-001	3.57860E+000	9	...........
	24	0.333333	5.63872E-001	-9.92437E-005	0.00000E+000	-5.59608E-005	-5.99601E-002	5.64097E-001	3.57860E+000	9	...........
	25	0.346667	5.52738E-001	-9.84206E-005	0.00000E+000	-5.44008E-005	-5.99601E-002	5.52976E-001	3.57860E+000	9	...........
	26	0.36	5.41677E-001	-9.93271E-005	0.00000E+000	-5.38032E-005	-5.99601E-002	5.41935E-001	3.57860E+000	9	...........
	27	0.373333	5.30644E-001	-1.00029E-004	0.00000E+000	-5.30799E-005	-5.99601E-002	5.30870E-001	3.57860E+000	9	...........
	28	0.386667	5.19692E-001	-9.89166E-005	0.00000E+000	-5.14062E-005	-5.99601E-002	5.19904E-001	3.57860E+000	9	...........
	29	0.4	5.08749E-001	-9.79184E-005	0.00000E+000	-4.98160E-005	-5.99601E-002	5.08996E-001	3.57860E+000	9	...........
	30	0.413333	4.97895E-001	-9.89447E-005	0.00000E+000	-4.92641E-005	-5.99601E-002	4.98146E-001	3.57860E+000	9	...........
	31	0.426667	4.87208E-001	-9.84498E-005	0.00000E+000	-4.79655E-005	-5.99601E-002	4.87382E-001	3.57860E+000	9	...........
	32	0.44	4.76725E-001	-9.90593E-005	0.00000E+000	-4.72241E-005	-5.99601E-002	4.76823E-001	3.57860E+000	9	...........
	33	0.453333	4.66056E-001	-9.83310E-005	0.00000E+000	-4.58278E-005	-5.99601E-002	4.66146E-001	3.57860E+000	9	...........
	34	0.466667	4.55441E-001	-9.84644E-005	0.00000E+000	-4.48448E-005	-5.99601E-002	4.55531E-001	3.57860E+000	9	...........
	35	0.48	4.44899E-001	-9.83998E-005	0.00000E+000	-4.37779E-005	-5.99601E-002	4.44986E-001	3.57860E+000	9	...........
	36	0.493333	4.34430E-001	-9.83029E-005	0.00000E+000	-4.27057E-005	-5.99601E-002	4.34510E-001	3.57860E+000	9	...........
	37	0.506667	4.24026E-001	-9.92969E-005	0.00000E+000	-4.21045E-005	-5.99601E-002	4.24109E-001	3.57860E+000	9	...........
	38	0.52	4.13694E-001	-9.86321E-005	0.00000E+000	-4.08035E-005	-5.99601E-002	4.13775E-001	3.57860E+000	9	...........
	39	0.533333	4.03439E-001	-9.90791E-005	0.00000E+000	-3.99724E-005	-5.99601E-002	4.03507E-001	3.57860E+000	9	...........
	40	0.546667	3.93248E-001	-1.00128E-004	0.00000E+000	-3.93753E-005	-5.99601E-002	3.93314E-001	3.57860E+000	9	...........
	41	0.56	3.83125E-001	-9.81800E-005	0.00000E+000	-3.76152E-005	-5.99601E-002	3.83192E-001	3.57860E+000	9	...........
	42	0.573333	3.73074E-001	-9.91437E-005	0.00000E+000	-3.69879E-005	-5.99601E-002	3.73135E-001	3.57860E+000	9	...........
	43	0.586667	3.63087E-001	-9.83665E-005	0.00000E+000	-3.57155E-005	-5.99601E-002	3.63153E-001	3.57860E+000	9	...........
	44	0.6	3.53174E-001	-9.84613E-005	0.00000E+000	-3.47740E-005	-5.99601E-002	3.53233E-001	3.57860E+000	9	...........
	45	0.613333	3.43309E-001	-9.88082E-005	0.00000E+000	-3.39218E-005	-5.99601E-002	3.43372E-001	3.57860E+000	9	...........
	46	0.626667	3.33510E-001	-9.83446E-005	0.00000E+000	-3.27989E-005	-5.99601E-002	3.33567E-001	3.57860E+000	9	...........
	47	0.64	3.23769E-001	-9.91239E-005	0.00000E+000	-3.20933E-005	-5.99601E-002	3.23826E-001	3.57860E+000	9	...........
	48	0.653333	3.14096E-001	-9.79122E-005	0.00000E+000	-3.07538E-005	-5.99601E-002	3.14153E-001	3.57860E+000	9	...........
	49	0.666667	3.04474E-001	-9.84873E-005	0.00000E+000	-2.99868E-005	-5.99601E-002	3.04526E-001	3.57860E+000	9	...........
	50	0.68	2.94902E-001	-9.90812E-005	0.00000E+000	-2.92192E-005	-5.99601E-002	2.94960E-001	3.57860E+000	9	...........
	51	0.693333	2.85391E-001	-9.99001E-005	0.00000E+000	-2.85106E-005	-5.99601E-002	2.85442E-001	3.57860E+000	9	...........
	52	0.706667	2.75936E-001	-1.00024E-004	0.00000E+000	-2.76003E-005	-5.99601E-002	2.75988E-001	3.57860E+000	9	...........
	53	0.72	2.66531E-001	-9.82612E-005	0.00000E+000	-2.61897E-005	-5.99601E-002	2.66579E-001	3.57860E+000	9	...........
	54	0.733333	2.57170E-001	-9.95209E-005	0.00000E+000	-2.55938E-005	-5.99601E-002	2.57220E-001	3.57860E+000	9	...........
	55	0.746667	2.47866E-001	-9.93135E-005	0.00000E+000	-2.46165E-005	-5.99601E-002	2.47913E-001	3.57860E+000	9	...........
	56	0.76	2.38617E-001	-9.87509E-005	0.00000E+000	-2.35637E-005	-5.99601E-002	2.38655E-001	3.57860E+000	9	...........
	57	0.773333	2.29419E-001	-9.84863E-005	0.00000E+000	-2.25946E-005	-5.99601E-002	2.29453E-001	3.57860E+000	9	...........
	58	0.786667	2.20267E-001	-9.90228E-005	0.00000E+000	-2.18115E-005	-5.99601E-002	2.20303E-001	3.57860E+000	9	...........
	59	0.8	2.11176E-001	-9.90927E-005	0.00000E+000	-2.09260E-005	-5.99601E-002	2.11211E-001	3.57860E+000	9	...........
	60	0.813333	2.02143E-001	-9.90624E-005	0.00000E+000	-2.00248E-005	-5.99601E-002	2.02169E-001	3.57860E+000	9	...........
	61	0.826667	1.93166E-001	-9.92833E-005	0.00000E+000	-1.91781E-005	-5.99601E-002	1.93191E-001	3.57860E+000	9	...........
	62	0.84	1.84249E-001	-9.97084E-005	0.00000E+000	-1.83711E-005	-5.99601E-002	1.84272E-001	3.57860E+000	9	...........
	63	0.853333	1.75395E-001	-9.87478E-005	0.00000E+000	-1.73199E-005	-5.99601E-002	1.75419E-001	3.57860E+000	9	...........
	64	0.866667	1.66606E-001	-9.86696E-005	0.00000E+000	-1.64389E-005	-5.99601E-002	1.66626E-001	3.57860E+000	9	...........
	65	0.88	1.57885E-001	-9.98689E-005	0.00000E+000	-1.57678E-005	-5.99601E-002	1.57904E-001	3.57860E+000	9	...........
	66	0.893333	1.49240E-001	-9.88301E-005	0.00000E+000	-1.47494E-005	-5.99601E-002	1.49250E-001	3.57860E+000	9	...........
	67	0.906667	1.40654E-001	-9.88853E-005	0.00000E+000	-1.39086E-005	-5.99601E-002	1.40665E-001	3.57860E+000	9	...........
	68	0.92	1.32153E-001	-9.81518E-005	0.00000E+000	-1.29710E-005	-5.99601E-002	1.32162E-001	3.57860E+000	9	...........
	69	0.933333	1.23721E-001	-9.90624E-005	0.00000E+000	-1.22561E-005	-5.99601E-002	1.23732E-001	3.57860E+000	9	...........
	70	0.946667	1.15367E-001	-9.91520E-005	0.00000E+000	-1.14389E-005	-5.99601E-002	1.15380E-001	3.57860E+000	9	...........
	71	0.96	1.07088E-001	-9.85425E-005	0.00000E+000	-1.05527E-005	-5.99601E-002	1.07096E-001	3.57860E+000	9	...........
	72	0.97333	9.88852E-002	-9.91760E-005	0.00000E+000	-9.80704E-006	-5.99601E-002	9.88960E-002	3.57910E+000	9	...........
	73	0.98667	9.07599E-002	-9.89728E-005	0.00000E+000	-8.98276E-006	-5.99601E-002	9.07677E-002	3.57910E+000	9	...........
	74	1	8.27122E-002	-9.91510E-005	0.00000E+000	-8.20100E-006	-5.99601E-002	8.27139E-002	3.57910E+000	9	...........
	75	1.01333	7.47391E-002	-9.81445E-005	0.00000E+000	-7.33523E-006	-5.99601E-002	7.47376E-002	3.57910E+000	9	...........
	76	1.02667	6.68315E-002	-9.79549E-005	0.00000E+000	-6.54647E-006	-5.99601E-002	6.68277E-002	3.57910E+000	9	...........
	77	1.04	5.89942E-002	-9.90176E-005	0.00000E+000	-5.84147E-006	-5.99601E-002	5.89906E-002	3.57910E+000	9	...........
	78	1.05333	5.12348E-002	-9.85290E-005	0.00000E+000	-5.04812E-006	-5.99601E-002	5.12248E-002	3.57910E+000	9	...........
	79	1.06667	4.35730E-002	-9.95000E-005	0.00000E+000	-4.33551E-006	-5.99601E-002	4.35665E-002	3.57910E+000	9	...........
	80	1.08	3.59486E-002	-9.91843E-005	0.00000E+000	-3.56554E-006	-5.99601E-002	3.59344E-002	3.57910E+000	9	...........
	81	1.09333	2.83955E-002	-9.83623E-005	0.00000E+000	-2.79304E-006	-5.99601E-002	2.83765E-002	3.57910E+000	9	...........
	82	1.10667	2.09035E-002	-9.86592E-005	0.00000E+000	-2.06232E-006	-5.99601E-002	2.08821E-002	3.57910E+000	9	...........
	83	1.12	1.34839E-002	-9.88530E-005	0.00000E+000	-1.33292E-006	-5.99601E-002	1.34594E-002	3.57910E+000	9	...........
	84	1.13333	6.13122E-003	-9.91541E-005	0.00000E+000	-6.07936E-007	-5.99601E-002	6.10028E-003	3.57910E+000	9	...........
	85	1.14	6.58141E-004	-9.93708E-005	0.00000E+000	-6.54000E-008	-5.99601E-002	6.26718E-004	3.57910E+000	9	...........
STARTTIMEOFFSET	QUANT	2119.461	Start Time Offset (s)
