EXPLAIN
TAG	PWR800_DISCHARGE
TITLE	LABEL	PWR Cyclic Charge Discharge (Cell) - Discharge Step	Test &Identifier
DATE	LABEL	13-7-2017	Date
TIME	LABEL	15:06:46	Time
NOTES	NOTES	2	&Notes...
	supercap test cell
	6M KOH
PSTAT	PSTAT	IFC5000-01520	Potentiostat
CAPACITY	QUANT	1.00000E-003	Capacity (A-hr)
CELLTYPE	SELECTOR	1	&Cell Type
WORKINGCONNECTION	SELECTOR	0	&Working Lead
MAXDISCHARGETIME	VARIABLEANDUNITS	1.00000E+002	s	1.00000E+002	second(s)	Max &Discharge Time
DISCHARGEMODE	MULTIPARAM	0	1.00000E-004	&Discharge Mode	Constant Current	Amp(s)
SAMPLETIME	QUANT	1.00000E-002	Sa&mple Period (s)
DISCHARGESTOPAT1	MULTIPARAM	3	0.00000E+000	Discharge Stop At &1	Voltage < Limit	V
DISCHARGESTOPAT2	MULTIPARAM	0	0.00000E+000	Discharge Stop At &2	None	N/A
AESBHCSELECTOR	TOGGLE	F	Save Both Half Cells
IRCOMP	TOGGLE	F	IR &Measure
EOC	QUANT	0	Open Circuit (V)
SEQUENCER	TOGGLE	TRUE	Run as Sequence
PSTATMODEL	IQUANT	53	Pstat Model
PSTATSECTION	LABEL	IFC5000-01520	Pstat Section
PSTATSERIALNO	LABEL	01520	Pstat Serial Number
CTRLMODE	IQUANT	0	Control Mode
ELECTROMETER	IQUANT	1	RE=0 or CS=1
IESTAB	IQUANT	0	I/E Stability
CASPEED	IQUANT	4	Control Amp Speed
CONVENTION	IQUANT	1	Current Convention
ICHRANGE	IQUANT	2	Ich Range
ICHRANGEMODE	TOGGLE	T	Ich Auto Range
ICHOFFSETENABLE	TOGGLE	F	Ich Offset Enable
ICHOFFSET	QUANT	0	Ich Offset (V)
ICHFILTER	IQUANT	1	Ich Filter
VCHRANGE	IQUANT	2	Vch Range
VCHRANGEMODE	TOGGLE	T	Vch Auto Range
VCHOFFSETENABLE	TOGGLE	F	Vch Offset Enable
VCHOFFSET	QUANT	0	Vch Offset (V)
VCHFILTER	IQUANT	1	Vch Filter
IERANGELOWERLIMIT	IQUANT	9	I/E Range Lower Limit
IERANGEMODE	TOGGLE	F	I/E AutoRange
IERANGE	IQUANT	9	I/E Range
ACHSELECT	IQUANT	1	Ach Select
ACHRANGE	IQUANT	2	Ach Range
ACHOFFSETENABLE	TOGGLE	F	Ach Offset Enable
ACHOFFSET	QUANT	0	Ach Offset (V)
ACHFILTER	IQUANT	1	Ach Filter
CABLEID	IQUANT	14	Cable ID
DCCALDATE	LABEL	5-7-2017	DC Calibration Date
ACCALDATE	LABEL	12/3/2015	AC Calibration Date
FRAMEWORKVERSION	QUANT	7.01	Framework Version
INSTRUMENTVERSION	LABEL	4.00	Instrument Version
CURVE	TABLE	93
	Pt	T	Vf	Im	Vu	Pwr	Sig	Ach	Temp	IERange	Over
	#	s	V	A	V	W	V	V	deg C	#	bits
	0	0.013333	8.56989E-001	-9.82664E-005	0.00000E+000	-8.42133E-005	-5.99601E-002	8.57331E-001	3.57960E+000	9	...........
	1	0.026667	8.44081E-001	-9.86842E-005	0.00000E+000	-8.32975E-005	-5.99601E-002	8.44418E-001	3.57960E+000	9	...........
	2	0.04	8.31946E-001	-9.81987E-005	0.00000E+000	-8.16961E-005	-5.99601E-002	8.32290E-001	3.57960E+000	9	...........
	3	0.053333	8.20391E-001	-9.77205E-005	0.00000E+000	-8.01690E-005	-5.99601E-002	8.20721E-001	3.57960E+000	9	...........
	4	0.066667	8.09225E-001	-9.96928E-005	0.00000E+000	-8.06739E-005	-5.99601E-002	8.09540E-001	3.57960E+000	9	...........
	5	0.08	7.98359E-001	-9.91573E-005	0.00000E+000	-7.91631E-005	-5.99601E-002	7.98662E-001	3.57960E+000	9	...........
	6	0.093333	7.87688E-001	-9.84613E-005	0.00000E+000	-7.75567E-005	-5.99601E-002	7.87997E-001	3.57960E+000	9	...........
	7	0.106667	7.77211E-001	-9.83217E-005	0.00000E+000	-7.64167E-005	-5.99601E-002	7.77515E-001	3.57960E+000	9	...........
	8	0.12	7.66844E-001	-9.91687E-005	0.00000E+000	-7.60469E-005	-5.99601E-002	7.67159E-001	3.57960E+000	9	...........
	9	0.133333	7.56595E-001	-9.91197E-005	0.00000E+000	-7.49935E-005	-5.99601E-002	7.56887E-001	3.57960E+000	9	...........
	10	0.146667	7.46422E-001	-9.90437E-005	0.00000E+000	-7.39284E-005	-5.99601E-002	7.46714E-001	3.57960E+000	9	...........
	11	0.16	7.36296E-001	-9.83769E-005	0.00000E+000	-7.24345E-005	-5.99601E-002	7.36579E-001	3.57960E+000	9	...........
	12	0.173333	7.26244E-001	-9.87447E-005	0.00000E+000	-7.17127E-005	-5.99601E-002	7.26541E-001	3.57960E+000	9	...........
	13	0.186667	7.16221E-001	-9.87238E-005	0.00000E+000	-7.07081E-005	-5.99601E-002	7.16520E-001	3.57960E+000	9	...........
	14	0.2	7.06215E-001	-9.86436E-005	0.00000E+000	-6.96636E-005	-5.99601E-002	7.06535E-001	3.57960E+000	9	...........
	15	0.213333	6.96258E-001	-9.88687E-005	0.00000E+000	-6.88380E-005	-5.99601E-002	6.96550E-001	3.57960E+000	9	...........
	16	0.226667	6.86306E-001	-9.87165E-005	0.00000E+000	-6.77498E-005	-5.99601E-002	6.86607E-001	3.57960E+000	9	...........
	17	0.24	6.76379E-001	-9.87374E-005	0.00000E+000	-6.67839E-005	-5.99601E-002	6.76673E-001	3.57960E+000	9	...........
	18	0.253333	6.66465E-001	-9.87384E-005	0.00000E+000	-6.58057E-005	-5.99601E-002	6.66710E-001	3.57960E+000	9	...........
	19	0.266667	6.56500E-001	-9.87395E-005	0.00000E+000	-6.48225E-005	-5.99601E-002	6.56773E-001	3.57960E+000	9	...........
	20	0.28	6.46575E-001	-9.82185E-005	0.00000E+000	-6.35057E-005	-5.99601E-002	6.46838E-001	3.57960E+000	9	...........
	21	0.293333	6.36628E-001	-9.95521E-005	0.00000E+000	-6.33777E-005	-5.99601E-002	6.36903E-001	3.57960E+000	9	...........
	22	0.306667	6.26728E-001	-9.85915E-005	0.00000E+000	-6.17901E-005	-5.99601E-002	6.26974E-001	3.57960E+000	9	...........
	23	0.32	6.16808E-001	-9.84529E-005	0.00000E+000	-6.07266E-005	-5.99601E-002	6.17047E-001	3.57960E+000	9	...........
	24	0.333333	6.06827E-001	-9.87176E-005	0.00000E+000	-5.99045E-005	-5.99601E-002	6.07122E-001	3.57960E+000	9	...........
	25	0.346667	5.96920E-001	-9.98428E-005	0.00000E+000	-5.95981E-005	-5.99601E-002	5.97216E-001	3.57960E+000	9	...........
	26	0.36	5.87025E-001	-9.86676E-005	0.00000E+000	-5.79203E-005	-5.99601E-002	5.87301E-001	3.57960E+000	9	...........
	27	0.373333	5.77123E-001	-9.90468E-005	0.00000E+000	-5.71622E-005	-5.99601E-002	5.77386E-001	3.57960E+000	9	...........
	28	0.386667	5.67242E-001	-9.92833E-005	0.00000E+000	-5.63177E-005	-5.99601E-002	5.67495E-001	3.57960E+000	9	...........
	29	0.4	5.57299E-001	-9.90072E-005	0.00000E+000	-5.51766E-005	-5.99601E-002	5.57596E-001	3.57960E+000	9	...........
	30	0.413333	5.47440E-001	-9.92437E-005	0.00000E+000	-5.43300E-005	-5.99601E-002	5.47716E-001	3.57960E+000	9	...........
	31	0.426667	5.37585E-001	-9.89749E-005	0.00000E+000	-5.32074E-005	-5.99601E-002	5.37839E-001	3.57960E+000	9	...........
	32	0.44	5.27720E-001	-9.75152E-005	0.00000E+000	-5.14608E-005	-5.99601E-002	5.27967E-001	3.57960E+000	9	...........
	33	0.453333	5.17909E-001	-9.83738E-005	0.00000E+000	-5.09487E-005	-5.99601E-002	5.18105E-001	3.57960E+000	9	...........
	34	0.466667	5.08050E-001	-9.86488E-005	0.00000E+000	-5.01186E-005	-5.99601E-002	5.08260E-001	3.57960E+000	9	...........
	35	0.48	4.98267E-001	-9.88072E-005	0.00000E+000	-4.92323E-005	-5.99601E-002	4.98478E-001	3.57960E+000	9	...........
	36	0.493333	4.88530E-001	-9.87915E-005	0.00000E+000	-4.82626E-005	-5.99601E-002	4.88710E-001	3.57960E+000	9	...........
	37	0.506667	4.79126E-001	-9.97688E-005	0.00000E+000	-4.78019E-005	-5.99601E-002	4.79224E-001	3.57960E+000	9	...........
	38	0.52	4.69401E-001	-9.86509E-005	0.00000E+000	-4.63068E-005	-5.99601E-002	4.69502E-001	3.57960E+000	9	...........
	39	0.533333	4.59713E-001	-9.88687E-005	0.00000E+000	-4.54512E-005	-5.99601E-002	4.59812E-001	3.57960E+000	9	...........
	40	0.546667	4.50053E-001	-9.89009E-005	0.00000E+000	-4.45107E-005	-5.99601E-002	4.50148E-001	3.57960E+000	9	...........
	41	0.56	4.40423E-001	-9.90885E-005	0.00000E+000	-4.36408E-005	-5.99601E-002	4.40518E-001	3.57960E+000	9	...........
	42	0.573333	4.30833E-001	-9.82071E-005	0.00000E+000	-4.23109E-005	-5.99601E-002	4.30923E-001	3.57960E+000	9	...........
	43	0.586667	4.21272E-001	-9.96292E-005	0.00000E+000	-4.19710E-005	-5.99601E-002	4.21358E-001	3.57903E+000	9	...........
	44	0.6	4.11749E-001	-9.85905E-005	0.00000E+000	-4.05945E-005	-5.99601E-002	4.11832E-001	3.57870E+000	9	...........
	45	0.613333	4.02256E-001	-9.85884E-005	0.00000E+000	-3.96578E-005	-5.99601E-002	4.02339E-001	3.57870E+000	9	...........
	46	0.626667	3.92799E-001	-9.91208E-005	0.00000E+000	-3.89346E-005	-5.99601E-002	3.92880E-001	3.57870E+000	9	...........
	47	0.64	3.83382E-001	-9.83279E-005	0.00000E+000	-3.76972E-005	-5.99601E-002	3.83458E-001	3.57870E+000	9	...........
	48	0.653333	3.74004E-001	-9.91364E-005	0.00000E+000	-3.70775E-005	-5.99601E-002	3.74079E-001	3.57870E+000	9	...........
	49	0.666667	3.64657E-001	-9.95719E-005	0.00000E+000	-3.63096E-005	-5.99601E-002	3.64732E-001	3.57870E+000	9	...........
	50	0.68	3.55353E-001	-9.88968E-005	0.00000E+000	-3.51433E-005	-5.99601E-002	3.55421E-001	3.57870E+000	9	...........
	51	0.693333	3.46077E-001	-9.92771E-005	0.00000E+000	-3.43576E-005	-5.99601E-002	3.46146E-001	3.57870E+000	9	...........
	52	0.706667	3.36842E-001	-9.90583E-005	0.00000E+000	-3.33670E-005	-5.99601E-002	3.36906E-001	3.57870E+000	9	...........
	53	0.72	3.27636E-001	-9.91614E-005	0.00000E+000	-3.24888E-005	-5.99601E-002	3.27702E-001	3.57870E+000	9	...........
	54	0.733333	3.18467E-001	-9.91916E-005	0.00000E+000	-3.15892E-005	-5.99601E-002	3.18532E-001	3.57870E+000	9	...........
	55	0.746667	3.09326E-001	-9.95792E-005	0.00000E+000	-3.08025E-005	-5.99601E-002	3.09394E-001	3.57870E+000	9	...........
	56	0.76	3.00230E-001	-9.76757E-005	0.00000E+000	-2.93251E-005	-5.99601E-002	3.00286E-001	3.57870E+000	9	...........
	57	0.773333	2.91161E-001	-9.94948E-005	0.00000E+000	-2.89690E-005	-5.99601E-002	2.91217E-001	3.57870E+000	9	...........
	58	0.786667	2.82119E-001	-9.81643E-005	0.00000E+000	-2.76940E-005	-5.99601E-002	2.82180E-001	3.57870E+000	9	...........
	59	0.8	2.73114E-001	-9.88895E-005	0.00000E+000	-2.70081E-005	-5.99601E-002	2.73170E-001	3.57870E+000	9	...........
	60	0.813333	2.64145E-001	-9.87509E-005	0.00000E+000	-2.60845E-005	-5.99601E-002	2.64197E-001	3.57870E+000	9	...........
	61	0.826667	2.55198E-001	-9.88468E-005	0.00000E+000	-2.52255E-005	-5.99601E-002	2.55244E-001	3.57870E+000	9	...........
	62	0.84	2.46282E-001	-9.81039E-005	0.00000E+000	-2.41612E-005	-5.99601E-002	2.46326E-001	3.57870E+000	9	...........
	63	0.853333	2.37403E-001	-9.92917E-005	0.00000E+000	-2.35721E-005	-5.99601E-002	2.37444E-001	3.57870E+000	9	...........
	64	0.866667	2.28544E-001	-9.82654E-005	0.00000E+000	-2.24580E-005	-5.99601E-002	2.28589E-001	3.57870E+000	9	...........
	65	0.88	2.19727E-001	-9.96532E-005	0.00000E+000	-2.18965E-005	-5.99601E-002	2.19758E-001	3.57870E+000	9	...........
	66	0.893333	2.10945E-001	-9.78393E-005	0.00000E+000	-2.06387E-005	-5.99601E-002	2.10979E-001	3.57870E+000	9	...........
	67	0.906667	2.02193E-001	-9.84904E-005	0.00000E+000	-1.99141E-005	-5.99601E-002	2.02225E-001	3.57870E+000	9	...........
	68	0.92	1.93471E-001	-9.81070E-005	0.00000E+000	-1.89809E-005	-5.99601E-002	1.93506E-001	3.57870E+000	9	...........
	69	0.933333	1.84789E-001	-9.92698E-005	0.00000E+000	-1.83440E-005	-5.99601E-002	1.84823E-001	3.57870E+000	9	...........
	70	0.946667	1.76145E-001	-9.95417E-005	0.00000E+000	-1.75338E-005	-5.99601E-002	1.76179E-001	3.57870E+000	9	...........
	71	0.96	1.67541E-001	-9.81372E-005	0.00000E+000	-1.64420E-005	-5.99601E-002	1.67574E-001	3.57870E+000	9	...........
	72	0.97333	1.58987E-001	-9.76663E-005	0.00000E+000	-1.55277E-005	-5.99601E-002	1.59011E-001	3.57870E+000	9	...........
	73	0.98667	1.50475E-001	-9.94563E-005	0.00000E+000	-1.49657E-005	-5.99601E-002	1.50497E-001	3.57870E+000	9	...........
	74	1	1.42011E-001	-9.87957E-005	0.00000E+000	-1.40301E-005	-5.99601E-002	1.42032E-001	3.57870E+000	9	...........
	75	1.01333	1.33602E-001	-9.79466E-005	0.00000E+000	-1.30859E-005	-5.99601E-002	1.33616E-001	3.57870E+000	9	...........
	76	1.02667	1.25239E-001	-9.94302E-005	0.00000E+000	-1.24526E-005	-5.99601E-002	1.25256E-001	3.57870E+000	9	...........
	77	1.04	1.16932E-001	-9.87051E-005	0.00000E+000	-1.15418E-005	-5.99601E-002	1.16951E-001	3.57870E+000	9	...........
	78	1.05333	1.08684E-001	-9.87895E-005	0.00000E+000	-1.07368E-005	-5.99601E-002	1.08702E-001	3.57870E+000	9	...........
	79	1.06667	1.00498E-001	-9.87999E-005	0.00000E+000	-9.92918E-006	-5.99601E-002	1.00513E-001	3.57870E+000	9	...........
	80	1.08	9.23724E-002	-9.91020E-005	0.00000E+000	-9.15430E-006	-5.99601E-002	9.23828E-002	3.57870E+000	9	...........
	81	1.09333	8.43033E-002	-9.96209E-005	0.00000E+000	-8.39837E-006	-5.99601E-002	8.43157E-002	3.57870E+000	9	...........
	82	1.10667	7.63091E-002	-9.86134E-005	0.00000E+000	-7.52510E-006	-5.99601E-002	7.63138E-002	3.57870E+000	9	...........
	83	1.12	6.83735E-002	-9.85457E-005	0.00000E+000	-6.73792E-006	-5.99601E-002	6.83727E-002	3.57870E+000	9	...........
	84	1.13333	6.04913E-002	-9.96782E-005	0.00000E+000	-6.02967E-006	-5.99601E-002	6.04913E-002	3.57870E+000	9	...........
	85	1.14667	5.26812E-002	-9.84571E-005	0.00000E+000	-5.18684E-006	-5.99601E-002	5.26755E-002	3.57870E+000	9	...........
	86	1.16	4.49620E-002	-9.90999E-005	0.00000E+000	-4.45573E-006	-5.99601E-002	4.49586E-002	3.57870E+000	9	...........
	87	1.17333	3.72784E-002	-9.86967E-005	0.00000E+000	-3.67926E-006	-5.99601E-002	3.72725E-002	3.57870E+000	9	...........
	88	1.18667	2.96484E-002	-9.93281E-005	0.00000E+000	-2.94492E-006	-5.99601E-002	2.96334E-002	3.57870E+000	9	...........
	89	1.2	2.20756E-002	-9.88009E-005	0.00000E+000	-2.18109E-006	-5.99601E-002	2.20569E-002	3.57870E+000	9	...........
	90	1.21333	1.45630E-002	-9.89280E-005	0.00000E+000	-1.44069E-006	-5.99601E-002	1.45428E-002	3.57870E+000	9	...........
	91	1.22667	7.11359E-003	-9.94657E-005	0.00000E+000	-7.07558E-007	-5.99601E-002	7.08229E-003	3.57870E+000	9	...........
	92	1.235	1.09491E-003	-9.73500E-005	0.00000E+000	-1.06590E-007	-5.99601E-002	1.06411E-003	3.57870E+000	9	...........
STARTTIMEOFFSET	QUANT	210.3849	Start Time Offset (s)
