EXPLAIN
TAG	PWR800_DISCHARGE
TITLE	LABEL	PWR Cyclic Charge Discharge (Cell) - Discharge Step	Test &Identifier
DATE	LABEL	13-7-2017	Date
TIME	LABEL	15:29:29	Time
NOTES	NOTES	2	&Notes...
	supercap test cell
	6M KOH
PSTAT	PSTAT	IFC5000-01520	Potentiostat
CAPACITY	QUANT	1.00000E-003	Capacity (A-hr)
CELLTYPE	SELECTOR	1	&Cell Type
WORKINGCONNECTION	SELECTOR	0	&Working Lead
MAXDISCHARGETIME	VARIABLEANDUNITS	1.00000E+002	s	1.00000E+002	second(s)	Max &Discharge Time
DISCHARGEMODE	MULTIPARAM	0	1.00000E-004	&Discharge Mode	Constant Current	Amp(s)
SAMPLETIME	QUANT	1.00000E-002	Sa&mple Period (s)
DISCHARGESTOPAT1	MULTIPARAM	3	0.00000E+000	Discharge Stop At &1	Voltage < Limit	V
DISCHARGESTOPAT2	MULTIPARAM	0	0.00000E+000	Discharge Stop At &2	None	N/A
AESBHCSELECTOR	TOGGLE	F	Save Both Half Cells
IRCOMP	TOGGLE	F	IR &Measure
EOC	QUANT	0	Open Circuit (V)
SEQUENCER	TOGGLE	TRUE	Run as Sequence
PSTATMODEL	IQUANT	53	Pstat Model
PSTATSECTION	LABEL	IFC5000-01520	Pstat Section
PSTATSERIALNO	LABEL	01520	Pstat Serial Number
CTRLMODE	IQUANT	0	Control Mode
ELECTROMETER	IQUANT	1	RE=0 or CS=1
IESTAB	IQUANT	0	I/E Stability
CASPEED	IQUANT	4	Control Amp Speed
CONVENTION	IQUANT	1	Current Convention
ICHRANGE	IQUANT	2	Ich Range
ICHRANGEMODE	TOGGLE	T	Ich Auto Range
ICHOFFSETENABLE	TOGGLE	F	Ich Offset Enable
ICHOFFSET	QUANT	0	Ich Offset (V)
ICHFILTER	IQUANT	1	Ich Filter
VCHRANGE	IQUANT	2	Vch Range
VCHRANGEMODE	TOGGLE	T	Vch Auto Range
VCHOFFSETENABLE	TOGGLE	F	Vch Offset Enable
VCHOFFSET	QUANT	0	Vch Offset (V)
VCHFILTER	IQUANT	1	Vch Filter
IERANGELOWERLIMIT	IQUANT	9	I/E Range Lower Limit
IERANGEMODE	TOGGLE	F	I/E AutoRange
IERANGE	IQUANT	9	I/E Range
ACHSELECT	IQUANT	1	Ach Select
ACHRANGE	IQUANT	2	Ach Range
ACHOFFSETENABLE	TOGGLE	F	Ach Offset Enable
ACHOFFSET	QUANT	0	Ach Offset (V)
ACHFILTER	IQUANT	1	Ach Filter
CABLEID	IQUANT	14	Cable ID
DCCALDATE	LABEL	5-7-2017	DC Calibration Date
ACCALDATE	LABEL	12/3/2015	AC Calibration Date
FRAMEWORKVERSION	QUANT	7.01	Framework Version
INSTRUMENTVERSION	LABEL	4.00	Instrument Version
CURVE	TABLE	88
	Pt	T	Vf	Im	Vu	Pwr	Sig	Ach	Temp	IERange	Over
	#	s	V	A	V	W	V	V	deg C	#	bits
	0	0.013333	8.48459E-001	-9.96021E-005	0.00000E+000	-8.45083E-005	-5.99601E-002	8.48766E-001	3.57900E+000	9	...........
	1	0.026667	8.34469E-001	-9.84196E-005	0.00000E+000	-8.21281E-005	-5.99601E-002	8.34777E-001	3.57900E+000	9	...........
	2	0.04	8.21369E-001	-9.80945E-005	0.00000E+000	-8.05718E-005	-5.99601E-002	8.21638E-001	3.57900E+000	9	...........
	3	0.053333	8.08827E-001	-9.87884E-005	0.00000E+000	-7.99027E-005	-5.99601E-002	8.09096E-001	3.57900E+000	9	...........
	4	0.066667	7.96675E-001	-9.91322E-005	0.00000E+000	-7.89761E-005	-5.99601E-002	7.96921E-001	3.57900E+000	9	...........
	5	0.08	7.84811E-001	-9.85321E-005	0.00000E+000	-7.73291E-005	-5.99601E-002	7.85050E-001	3.57900E+000	9	...........
	6	0.093333	7.73162E-001	-9.99282E-005	0.00000E+000	-7.72607E-005	-5.99601E-002	7.73409E-001	3.57900E+000	9	...........
	7	0.106667	7.61674E-001	-9.93771E-005	0.00000E+000	-7.56930E-005	-5.99601E-002	7.61942E-001	3.57900E+000	9	...........
	8	0.12	7.50342E-001	-9.92937E-005	0.00000E+000	-7.45043E-005	-5.99601E-002	7.50580E-001	3.57900E+000	9	...........
	9	0.133333	7.39068E-001	-9.95032E-005	0.00000E+000	-7.35396E-005	-5.99601E-002	7.39318E-001	3.57900E+000	9	...........
	10	0.146667	7.27903E-001	-9.95282E-005	0.00000E+000	-7.24468E-005	-5.99601E-002	7.28139E-001	3.57900E+000	9	...........
	11	0.16	7.16763E-001	-9.81164E-005	0.00000E+000	-7.03262E-005	-5.99601E-002	7.17023E-001	3.57900E+000	9	...........
	12	0.173333	7.05701E-001	-9.93448E-005	0.00000E+000	-7.01077E-005	-5.99601E-002	7.05936E-001	3.57900E+000	9	...........
	13	0.186667	6.94659E-001	-9.91229E-005	0.00000E+000	-6.88566E-005	-5.99601E-002	6.94908E-001	3.57900E+000	9	...........
	14	0.2	6.83650E-001	-9.93500E-005	0.00000E+000	-6.79207E-005	-5.99601E-002	6.83889E-001	3.57900E+000	9	...........
	15	0.213333	6.72664E-001	-9.83237E-005	0.00000E+000	-6.61388E-005	-5.99601E-002	6.72924E-001	3.57900E+000	9	...........
	16	0.226667	6.61678E-001	-9.86113E-005	0.00000E+000	-6.52490E-005	-5.99601E-002	6.61945E-001	3.57900E+000	9	...........
	17	0.24	6.50743E-001	-9.92917E-005	0.00000E+000	-6.46134E-005	-5.99601E-002	6.50986E-001	3.57900E+000	9	...........
	18	0.253333	6.39817E-001	-9.86061E-005	0.00000E+000	-6.30898E-005	-5.99601E-002	6.40052E-001	3.57900E+000	9	...........
	19	0.266667	6.28891E-001	-9.88509E-005	0.00000E+000	-6.21665E-005	-5.99601E-002	6.29134E-001	3.57900E+000	9	...........
	20	0.28	6.18007E-001	-9.98157E-005	0.00000E+000	-6.16868E-005	-5.99601E-002	6.18246E-001	3.57900E+000	9	...........
	21	0.293333	6.07081E-001	-9.86061E-005	0.00000E+000	-5.98619E-005	-5.99601E-002	6.07360E-001	3.57900E+000	9	...........
	22	0.306667	5.96237E-001	-9.95521E-005	0.00000E+000	-5.93566E-005	-5.99601E-002	5.96498E-001	3.57900E+000	9	...........
	23	0.32	5.85385E-001	-9.88978E-005	0.00000E+000	-5.78933E-005	-5.99601E-002	5.85658E-001	3.57900E+000	9	...........
	24	0.333333	5.74598E-001	-9.86301E-005	0.00000E+000	-5.66726E-005	-5.99601E-002	5.74832E-001	3.57900E+000	9	...........
	25	0.346667	5.63791E-001	-9.83550E-005	0.00000E+000	-5.54517E-005	-5.99601E-002	5.64042E-001	3.57900E+000	9	...........
	26	0.36	5.53022E-001	-9.90999E-005	0.00000E+000	-5.48045E-005	-5.99601E-002	5.53289E-001	3.57900E+000	9	...........
	27	0.373333	5.42334E-001	-9.88749E-005	0.00000E+000	-5.36233E-005	-5.99601E-002	5.42560E-001	3.57900E+000	9	...........
	28	0.386667	5.31612E-001	-9.92562E-005	0.00000E+000	-5.27658E-005	-5.99601E-002	5.31871E-001	3.57900E+000	9	...........
	29	0.4	5.21006E-001	-9.89322E-005	0.00000E+000	-5.15443E-005	-5.99601E-002	5.21199E-001	3.57900E+000	9	...........
	30	0.413333	5.10375E-001	-9.86749E-005	0.00000E+000	-5.03612E-005	-5.99601E-002	5.10600E-001	3.57900E+000	9	...........
	31	0.426667	4.99804E-001	-9.86676E-005	0.00000E+000	-4.93144E-005	-5.99601E-002	5.00033E-001	3.57900E+000	9	...........
	32	0.44	4.89285E-001	-9.93354E-005	0.00000E+000	-4.86033E-005	-5.99601E-002	4.89541E-001	3.57900E+000	9	...........
	33	0.453333	4.79196E-001	-9.87186E-005	0.00000E+000	-4.73056E-005	-5.99601E-002	4.79298E-001	3.57900E+000	9	...........
	34	0.466667	4.68789E-001	-9.90947E-005	0.00000E+000	-4.64545E-005	-5.99601E-002	4.68884E-001	3.57900E+000	9	...........
	35	0.48	4.58438E-001	-9.82539E-005	0.00000E+000	-4.50434E-005	-5.99601E-002	4.58535E-001	3.57900E+000	9	...........
	36	0.493333	4.48142E-001	-9.96646E-005	0.00000E+000	-4.46639E-005	-5.99601E-002	4.48237E-001	3.57900E+000	9	...........
	37	0.506667	4.37905E-001	-1.00388E-004	0.00000E+000	-4.39602E-005	-5.99601E-002	4.37996E-001	3.57900E+000	9	...........
	38	0.52	4.27730E-001	-9.89385E-005	0.00000E+000	-4.23190E-005	-5.99601E-002	4.27820E-001	3.57900E+000	9	...........
	39	0.533333	4.17616E-001	-9.78674E-005	0.00000E+000	-4.08710E-005	-5.99601E-002	4.17703E-001	3.57900E+000	9	...........
	40	0.546667	4.07568E-001	-9.91427E-005	0.00000E+000	-4.04074E-005	-5.99601E-002	4.07647E-001	3.57900E+000	9	...........
	41	0.56	3.97571E-001	-9.89291E-005	0.00000E+000	-3.93313E-005	-5.99601E-002	3.97651E-001	3.57900E+000	9	...........
	42	0.573333	3.87637E-001	-9.90093E-005	0.00000E+000	-3.83797E-005	-5.99601E-002	3.87718E-001	3.57900E+000	9	...........
	43	0.586667	3.77774E-001	-9.89739E-005	0.00000E+000	-3.73898E-005	-5.99601E-002	3.77844E-001	3.57900E+000	9	...........
	44	0.6	3.67956E-001	-9.82831E-005	0.00000E+000	-3.61639E-005	-5.99601E-002	3.68031E-001	3.57900E+000	9	...........
	45	0.613333	3.58201E-001	-9.98063E-005	0.00000E+000	-3.57507E-005	-5.99601E-002	3.58274E-001	3.57900E+000	9	...........
	46	0.626667	3.48498E-001	-9.89551E-005	0.00000E+000	-3.44856E-005	-5.99601E-002	3.48571E-001	3.57900E+000	9	...........
	47	0.64	3.38857E-001	-9.91968E-005	0.00000E+000	-3.36135E-005	-5.99601E-002	3.38926E-001	3.57900E+000	9	...........
	48	0.653333	3.29264E-001	-9.88697E-005	0.00000E+000	-3.25543E-005	-5.99601E-002	3.29332E-001	3.57900E+000	9	...........
	49	0.666667	3.19731E-001	-9.92469E-005	0.00000E+000	-3.17323E-005	-5.99601E-002	3.19795E-001	3.57900E+000	9	...........
	50	0.68	3.10245E-001	-9.93583E-005	0.00000E+000	-3.08255E-005	-5.99601E-002	3.10306E-001	3.57900E+000	9	...........
	51	0.693333	3.00811E-001	-9.90239E-005	0.00000E+000	-2.97875E-005	-5.99601E-002	3.00869E-001	3.57900E+000	9	...........
	52	0.706667	2.91424E-001	-9.86894E-005	0.00000E+000	-2.87604E-005	-5.99601E-002	2.91485E-001	3.57900E+000	9	...........
	53	0.72	2.82089E-001	-9.85467E-005	0.00000E+000	-2.77989E-005	-5.99601E-002	2.82146E-001	3.57968E+000	9	...........
	54	0.733333	2.72789E-001	-9.81768E-005	0.00000E+000	-2.67816E-005	-5.99601E-002	2.72846E-001	3.57990E+000	9	...........
	55	0.746667	2.63538E-001	-9.93385E-005	0.00000E+000	-2.61795E-005	-5.99601E-002	2.63591E-001	3.57990E+000	9	...........
	56	0.76	2.54338E-001	-9.93625E-005	0.00000E+000	-2.52717E-005	-5.99601E-002	2.54391E-001	3.57990E+000	9	...........
	57	0.773333	2.45185E-001	-9.99001E-005	0.00000E+000	-2.44940E-005	-5.99601E-002	2.45228E-001	3.57990E+000	9	...........
	58	0.786667	2.36078E-001	-9.87863E-005	0.00000E+000	-2.33213E-005	-5.99601E-002	2.36120E-001	3.57990E+000	9	...........
	59	0.8	2.27016E-001	-9.92125E-005	0.00000E+000	-2.25228E-005	-5.99601E-002	2.27056E-001	3.57990E+000	9	...........
	60	0.813333	2.18004E-001	-9.89218E-005	0.00000E+000	-2.15653E-005	-5.99601E-002	2.18038E-001	3.57990E+000	9	...........
	61	0.826667	2.09030E-001	-9.92927E-005	0.00000E+000	-2.07551E-005	-5.99601E-002	2.09065E-001	3.57990E+000	9	...........
	62	0.84	2.00111E-001	-9.84415E-005	0.00000E+000	-1.96992E-005	-5.99601E-002	2.00142E-001	3.57990E+000	9	...........
	63	0.853333	1.91244E-001	-9.86957E-005	0.00000E+000	-1.88750E-005	-5.99601E-002	1.91277E-001	3.57990E+000	9	...........
	64	0.866667	1.82430E-001	-9.95876E-005	0.00000E+000	-1.81677E-005	-5.99601E-002	1.82458E-001	3.57990E+000	9	...........
	65	0.88	1.73672E-001	-9.96782E-005	0.00000E+000	-1.73114E-005	-5.99601E-002	1.73699E-001	3.57990E+000	9	...........
	66	0.893333	1.64970E-001	-9.93521E-005	0.00000E+000	-1.63901E-005	-5.99601E-002	1.65000E-001	3.57990E+000	9	...........
	67	0.906667	1.56341E-001	-9.86665E-005	0.00000E+000	-1.54256E-005	-5.99601E-002	1.56361E-001	3.57990E+000	9	...........
	68	0.92	1.47763E-001	-9.92146E-005	0.00000E+000	-1.46603E-005	-5.99601E-002	1.47786E-001	3.57990E+000	9	...........
	69	0.933333	1.39259E-001	-9.86134E-005	0.00000E+000	-1.37328E-005	-5.99601E-002	1.39275E-001	3.57990E+000	9	...........
	70	0.946667	1.30820E-001	-9.89968E-005	0.00000E+000	-1.29508E-005	-5.99601E-002	1.30831E-001	3.57990E+000	9	...........
	71	0.96	1.22449E-001	-9.94365E-005	0.00000E+000	-1.21759E-005	-5.99601E-002	1.22462E-001	3.57990E+000	9	...........
	72	0.97333	1.14151E-001	-9.98532E-005	0.00000E+000	-1.13984E-005	-5.99601E-002	1.14166E-001	3.57990E+000	9	...........
	73	0.98667	1.05924E-001	-9.91573E-005	0.00000E+000	-1.05031E-005	-5.99601E-002	1.05931E-001	3.57990E+000	9	...........
	74	1	9.77718E-002	-9.84498E-005	0.00000E+000	-9.62562E-006	-5.99601E-002	9.77813E-002	3.57990E+000	9	...........
	75	1.01333	8.96913E-002	-9.87530E-005	0.00000E+000	-8.85728E-006	-5.99601E-002	8.96972E-002	3.57990E+000	9	...........
	76	1.02667	8.16866E-002	-9.85384E-005	0.00000E+000	-8.04927E-006	-5.99601E-002	8.16875E-002	3.57990E+000	9	...........
	77	1.04	7.37508E-002	-9.94261E-005	0.00000E+000	-7.33275E-006	-5.99601E-002	7.37449E-002	3.57990E+000	9	...........
	78	1.05333	6.58842E-002	-9.93271E-005	0.00000E+000	-6.54409E-006	-5.99601E-002	6.58785E-002	3.57990E+000	9	...........
	79	1.06667	5.80796E-002	-9.93625E-005	0.00000E+000	-5.77093E-006	-5.99601E-002	5.80805E-002	3.57990E+000	9	...........
	80	1.08	5.03562E-002	-9.94990E-005	0.00000E+000	-5.01039E-006	-5.99601E-002	5.03558E-002	3.57990E+000	9	...........
	81	1.09333	4.27278E-002	-9.96594E-005	0.00000E+000	-4.25823E-006	-5.99601E-002	4.27244E-002	3.57990E+000	9	...........
	82	1.10667	3.51384E-002	-9.85540E-005	0.00000E+000	-3.46303E-006	-5.99601E-002	3.51255E-002	3.57990E+000	9	...........
	83	1.12	2.76122E-002	-9.89468E-005	0.00000E+000	-2.73214E-006	-5.99601E-002	2.75947E-002	3.57990E+000	9	...........
	84	1.13333	2.01490E-002	-9.94302E-005	0.00000E+000	-2.00342E-006	-5.99601E-002	2.01314E-002	3.57990E+000	9	...........
	85	1.14667	1.27530E-002	-9.96511E-005	0.00000E+000	-1.27085E-006	-5.99601E-002	1.27275E-002	3.57990E+000	9	...........
	86	1.16	5.42050E-003	-9.94761E-005	0.00000E+000	-5.39210E-007	-5.99601E-002	5.38910E-003	3.57990E+000	9	...........
	87	1.165	4.14389E-004	-9.84852E-005	0.00000E+000	-4.08112E-008	-5.99601E-002	3.85228E-004	3.57990E+000	9	...........
STARTTIMEOFFSET	QUANT	1243.431	Start Time Offset (s)
