EXPLAIN
TAG	PWR800_DISCHARGE
TITLE	LABEL	PWR Cyclic Charge Discharge (Cell) - Discharge Step	Test &Identifier
DATE	LABEL	13-7-2017	Date
TIME	LABEL	15:18:30	Time
NOTES	NOTES	2	&Notes...
	supercap test cell
	6M KOH
PSTAT	PSTAT	IFC5000-01520	Potentiostat
CAPACITY	QUANT	1.00000E-003	Capacity (A-hr)
CELLTYPE	SELECTOR	1	&Cell Type
WORKINGCONNECTION	SELECTOR	0	&Working Lead
MAXDISCHARGETIME	VARIABLEANDUNITS	1.00000E+002	s	1.00000E+002	second(s)	Max &Discharge Time
DISCHARGEMODE	MULTIPARAM	0	1.00000E-004	&Discharge Mode	Constant Current	Amp(s)
SAMPLETIME	QUANT	1.00000E-002	Sa&mple Period (s)
DISCHARGESTOPAT1	MULTIPARAM	3	0.00000E+000	Discharge Stop At &1	Voltage < Limit	V
DISCHARGESTOPAT2	MULTIPARAM	0	0.00000E+000	Discharge Stop At &2	None	N/A
AESBHCSELECTOR	TOGGLE	F	Save Both Half Cells
IRCOMP	TOGGLE	F	IR &Measure
EOC	QUANT	0	Open Circuit (V)
SEQUENCER	TOGGLE	TRUE	Run as Sequence
PSTATMODEL	IQUANT	53	Pstat Model
PSTATSECTION	LABEL	IFC5000-01520	Pstat Section
PSTATSERIALNO	LABEL	01520	Pstat Serial Number
CTRLMODE	IQUANT	0	Control Mode
ELECTROMETER	IQUANT	1	RE=0 or CS=1
IESTAB	IQUANT	0	I/E Stability
CASPEED	IQUANT	4	Control Amp Speed
CONVENTION	IQUANT	1	Current Convention
ICHRANGE	IQUANT	2	Ich Range
ICHRANGEMODE	TOGGLE	T	Ich Auto Range
ICHOFFSETENABLE	TOGGLE	F	Ich Offset Enable
ICHOFFSET	QUANT	0	Ich Offset (V)
ICHFILTER	IQUANT	1	Ich Filter
VCHRANGE	IQUANT	2	Vch Range
VCHRANGEMODE	TOGGLE	T	Vch Auto Range
VCHOFFSETENABLE	TOGGLE	F	Vch Offset Enable
VCHOFFSET	QUANT	0	Vch Offset (V)
VCHFILTER	IQUANT	1	Vch Filter
IERANGELOWERLIMIT	IQUANT	9	I/E Range Lower Limit
IERANGEMODE	TOGGLE	F	I/E AutoRange
IERANGE	IQUANT	9	I/E Range
ACHSELECT	IQUANT	1	Ach Select
ACHRANGE	IQUANT	2	Ach Range
ACHOFFSETENABLE	TOGGLE	F	Ach Offset Enable
ACHOFFSET	QUANT	0	Ach Offset (V)
ACHFILTER	IQUANT	1	Ach Filter
CABLEID	IQUANT	14	Cable ID
DCCALDATE	LABEL	5-7-2017	DC Calibration Date
ACCALDATE	LABEL	12/3/2015	AC Calibration Date
FRAMEWORKVERSION	QUANT	7.01	Framework Version
INSTRUMENTVERSION	LABEL	4.00	Instrument Version
CURVE	TABLE	90
	Pt	T	Vf	Im	Vu	Pwr	Sig	Ach	Temp	IERange	Over
	#	s	V	A	V	W	V	V	deg C	#	bits
	0	0.013333	8.51012E-001	-9.90218E-005	0.00000E+000	-8.42688E-005	-5.99601E-002	8.51354E-001	3.58010E+000	9	...........
	1	0.026667	8.37391E-001	-9.90624E-005	0.00000E+000	-8.29540E-005	-5.99601E-002	8.37725E-001	3.58010E+000	9	...........
	2	0.04	8.24636E-001	-9.99116E-005	0.00000E+000	-8.23907E-005	-5.99601E-002	8.24943E-001	3.58010E+000	9	...........
	3	0.053333	8.12404E-001	-9.92021E-005	0.00000E+000	-8.05922E-005	-5.99601E-002	8.12708E-001	3.58010E+000	9	...........
	4	0.066667	8.00629E-001	-9.84008E-005	0.00000E+000	-7.87825E-005	-5.99601E-002	8.00945E-001	3.58010E+000	9	...........
	5	0.08	7.89108E-001	-9.85061E-005	0.00000E+000	-7.77319E-005	-5.99601E-002	7.89414E-001	3.58010E+000	9	...........
	6	0.093333	7.77824E-001	-9.87863E-005	0.00000E+000	-7.68384E-005	-5.99601E-002	7.78087E-001	3.58010E+000	9	...........
	7	0.106667	7.66690E-001	-9.89499E-005	0.00000E+000	-7.58639E-005	-5.99601E-002	7.66929E-001	3.58010E+000	9	...........
	8	0.12	7.55687E-001	-9.85905E-005	0.00000E+000	-7.45035E-005	-5.99601E-002	7.55907E-001	3.58010E+000	9	...........
	9	0.133333	7.44777E-001	-9.82727E-005	0.00000E+000	-7.31912E-005	-5.99601E-002	7.45020E-001	3.58010E+000	9	...........
	10	0.146667	7.33941E-001	-9.90437E-005	0.00000E+000	-7.26923E-005	-5.99601E-002	7.34201E-001	3.58010E+000	9	...........
	11	0.16	7.23199E-001	-9.84061E-005	0.00000E+000	-7.11671E-005	-5.99601E-002	7.23444E-001	3.58010E+000	9	...........
	12	0.173333	7.12422E-001	-9.85363E-005	0.00000E+000	-7.01994E-005	-5.99601E-002	7.12726E-001	3.58010E+000	9	...........
	13	0.186667	7.01767E-001	-9.89218E-005	0.00000E+000	-6.94200E-005	-5.99601E-002	7.02052E-001	3.58010E+000	9	...........
	14	0.2	6.91098E-001	-9.84081E-005	0.00000E+000	-6.80097E-005	-5.99601E-002	6.91364E-001	3.58010E+000	9	...........
	15	0.213333	6.80448E-001	-9.96740E-005	0.00000E+000	-6.78230E-005	-5.99601E-002	6.80729E-001	3.58010E+000	9	...........
	16	0.226667	6.69858E-001	-9.85155E-005	0.00000E+000	-6.59913E-005	-5.99601E-002	6.70104E-001	3.58010E+000	9	...........
	17	0.24	6.59218E-001	-9.91395E-005	0.00000E+000	-6.53545E-005	-5.99601E-002	6.59512E-001	3.58010E+000	9	...........
	18	0.253333	6.48647E-001	-9.79580E-005	0.00000E+000	-6.35402E-005	-5.99601E-002	6.48918E-001	3.58010E+000	9	...........
	19	0.266667	6.38058E-001	-9.87040E-005	0.00000E+000	-6.29789E-005	-5.99601E-002	6.38326E-001	3.58010E+000	9	...........
	20	0.28	6.27488E-001	-9.92333E-005	0.00000E+000	-6.22677E-005	-5.99601E-002	6.27727E-001	3.57969E+000	9	...........
	21	0.293333	6.16926E-001	-9.94854E-005	0.00000E+000	-6.13751E-005	-5.99601E-002	6.17169E-001	3.57900E+000	9	...........
	22	0.306667	6.06347E-001	-9.96980E-005	0.00000E+000	-6.04516E-005	-5.99601E-002	6.06615E-001	3.57900E+000	9	...........
	23	0.32	5.95830E-001	-9.87374E-005	0.00000E+000	-5.88307E-005	-5.99601E-002	5.96105E-001	3.57900E+000	9	...........
	24	0.333333	5.85290E-001	-9.88499E-005	0.00000E+000	-5.78559E-005	-5.99601E-002	5.85548E-001	3.57900E+000	9	...........
	25	0.346667	5.74810E-001	-9.85446E-005	0.00000E+000	-5.66444E-005	-5.99601E-002	5.75076E-001	3.57900E+000	9	...........
	26	0.36	5.64330E-001	-9.94740E-005	0.00000E+000	-5.61362E-005	-5.99601E-002	5.64602E-001	3.57900E+000	9	...........
	27	0.373333	5.53845E-001	-9.77267E-005	0.00000E+000	-5.41255E-005	-5.99601E-002	5.54126E-001	3.57900E+000	9	...........
	28	0.386667	5.43436E-001	-9.93229E-005	0.00000E+000	-5.39757E-005	-5.99601E-002	5.43681E-001	3.57900E+000	9	...........
	29	0.4	5.33013E-001	-9.89999E-005	0.00000E+000	-5.27683E-005	-5.99601E-002	5.33262E-001	3.57900E+000	9	...........
	30	0.413333	5.22652E-001	-9.92448E-005	0.00000E+000	-5.18705E-005	-5.99601E-002	5.22889E-001	3.57900E+000	9	...........
	31	0.426667	5.12303E-001	-9.89207E-005	0.00000E+000	-5.06774E-005	-5.99601E-002	5.12539E-001	3.57900E+000	9	...........
	32	0.44	5.01961E-001	-9.88551E-005	0.00000E+000	-4.96214E-005	-5.99601E-002	5.02259E-001	3.57900E+000	9	...........
	33	0.453333	4.91731E-001	-9.90229E-005	0.00000E+000	-4.86926E-005	-5.99601E-002	4.91998E-001	3.57900E+000	9	...........
	34	0.466667	4.81787E-001	-9.87384E-005	0.00000E+000	-4.75709E-005	-5.99601E-002	4.81924E-001	3.57900E+000	9	...........
	35	0.48	4.71695E-001	-1.00007E-004	0.00000E+000	-4.71730E-005	-5.99601E-002	4.71797E-001	3.57900E+000	9	...........
	36	0.493333	4.61570E-001	-9.87082E-005	0.00000E+000	-4.55608E-005	-5.99601E-002	4.61666E-001	3.57900E+000	9	...........
	37	0.506667	4.51490E-001	-9.81091E-005	0.00000E+000	-4.42953E-005	-5.99601E-002	4.51584E-001	3.57900E+000	9	...........
	38	0.52	4.41461E-001	-9.93625E-005	0.00000E+000	-4.38646E-005	-5.99601E-002	4.41547E-001	3.57900E+000	9	...........
	39	0.533333	4.31485E-001	-9.87801E-005	0.00000E+000	-4.26221E-005	-5.99601E-002	4.31574E-001	3.57900E+000	9	...........
	40	0.546667	4.21557E-001	-9.93583E-005	0.00000E+000	-4.18852E-005	-5.99601E-002	4.21642E-001	3.57900E+000	9	...........
	41	0.56	4.11680E-001	-9.85425E-005	0.00000E+000	-4.05679E-005	-5.99601E-002	4.11767E-001	3.57900E+000	9	...........
	42	0.573333	4.01871E-001	-9.83269E-005	0.00000E+000	-3.95147E-005	-5.99601E-002	4.01945E-001	3.57900E+000	9	...........
	43	0.586667	3.92098E-001	-9.95625E-005	0.00000E+000	-3.90383E-005	-5.99601E-002	3.92177E-001	3.57900E+000	9	...........
	44	0.6	3.82389E-001	-9.78789E-005	0.00000E+000	-3.74278E-005	-5.99601E-002	3.82466E-001	3.57900E+000	9	...........
	45	0.613333	3.72728E-001	-9.91416E-005	0.00000E+000	-3.69529E-005	-5.99601E-002	3.72797E-001	3.57900E+000	9	...........
	46	0.626667	3.63120E-001	-9.93469E-005	0.00000E+000	-3.60749E-005	-5.99601E-002	3.63195E-001	3.57900E+000	9	...........
	47	0.64	3.53563E-001	-9.87718E-005	0.00000E+000	-3.49220E-005	-5.99601E-002	3.53635E-001	3.57900E+000	9	...........
	48	0.653333	3.44053E-001	-9.93938E-005	0.00000E+000	-3.41967E-005	-5.99601E-002	3.44125E-001	3.57900E+000	9	...........
	49	0.666667	3.34597E-001	-9.80278E-005	0.00000E+000	-3.27998E-005	-5.99601E-002	3.34662E-001	3.57900E+000	9	...........
	50	0.68	3.25194E-001	-1.00136E-004	0.00000E+000	-3.25635E-005	-5.99601E-002	3.25261E-001	3.57900E+000	9	...........
	51	0.693333	3.15835E-001	-9.86592E-005	0.00000E+000	-3.11600E-005	-5.99601E-002	3.15895E-001	3.57900E+000	9	...........
	52	0.706667	3.06520E-001	-9.88364E-005	0.00000E+000	-3.02954E-005	-5.99601E-002	3.06578E-001	3.57900E+000	9	...........
	53	0.72	2.97249E-001	-9.95834E-005	0.00000E+000	-2.96011E-005	-5.99601E-002	2.97299E-001	3.57900E+000	9	...........
	54	0.733333	2.88019E-001	-9.85998E-005	0.00000E+000	-2.83986E-005	-5.99601E-002	2.88078E-001	3.57900E+000	9	...........
	55	0.746667	2.78843E-001	-9.90697E-005	0.00000E+000	-2.76249E-005	-5.99601E-002	2.78895E-001	3.57900E+000	9	...........
	56	0.76	2.69699E-001	-9.89114E-005	0.00000E+000	-2.66763E-005	-5.99601E-002	2.69753E-001	3.57900E+000	9	...........
	57	0.773333	2.60603E-001	-9.90124E-005	0.00000E+000	-2.58029E-005	-5.99601E-002	2.60654E-001	3.57900E+000	9	...........
	58	0.786667	2.51539E-001	-9.84759E-005	0.00000E+000	-2.47706E-005	-5.99601E-002	2.51591E-001	3.57900E+000	9	...........
	59	0.8	2.42525E-001	-9.87874E-005	0.00000E+000	-2.39584E-005	-5.99601E-002	2.42570E-001	3.57900E+000	9	...........
	60	0.813333	2.33551E-001	-9.89322E-005	0.00000E+000	-2.31057E-005	-5.99601E-002	2.33588E-001	3.57900E+000	9	...........
	61	0.826667	2.24613E-001	-9.88947E-005	0.00000E+000	-2.22131E-005	-5.99601E-002	2.24651E-001	3.57900E+000	9	...........
	62	0.84	2.15722E-001	-9.93177E-005	0.00000E+000	-2.14250E-005	-5.99601E-002	2.15754E-001	3.57900E+000	9	...........
	63	0.853333	2.06874E-001	-9.88405E-005	0.00000E+000	-2.04475E-005	-5.99601E-002	2.06901E-001	3.57900E+000	9	...........
	64	0.866667	1.98067E-001	-9.87447E-005	0.00000E+000	-1.95581E-005	-5.99601E-002	1.98099E-001	3.57900E+000	9	...........
	65	0.88	1.89309E-001	-9.86655E-005	0.00000E+000	-1.86782E-005	-5.99601E-002	1.89340E-001	3.57900E+000	9	...........
	66	0.893333	1.80599E-001	-9.96167E-005	0.00000E+000	-1.79906E-005	-5.99601E-002	1.80629E-001	3.57900E+000	9	...........
	67	0.906667	1.71939E-001	-9.85582E-005	0.00000E+000	-1.69460E-005	-5.99601E-002	1.71970E-001	3.57900E+000	9	...........
	68	0.92	1.63334E-001	-9.95948E-005	0.00000E+000	-1.62672E-005	-5.99601E-002	1.63356E-001	3.57900E+000	9	...........
	69	0.933333	1.54789E-001	-9.94063E-005	0.00000E+000	-1.53869E-005	-5.99601E-002	1.54807E-001	3.57900E+000	9	...........
	70	0.946667	1.46295E-001	-1.00019E-004	0.00000E+000	-1.46322E-005	-5.99601E-002	1.46313E-001	3.57900E+000	9	...........
	71	0.96	1.37864E-001	-9.90718E-005	0.00000E+000	-1.36585E-005	-5.99601E-002	1.37879E-001	3.57900E+000	9	...........
	72	0.97333	1.29494E-001	-9.85029E-005	0.00000E+000	-1.27555E-005	-5.99601E-002	1.29507E-001	3.57900E+000	9	...........
	73	0.98667	1.21191E-001	-9.88207E-005	0.00000E+000	-1.19762E-005	-5.99601E-002	1.21204E-001	3.57900E+000	9	...........
	74	1	1.12953E-001	-9.87405E-005	0.00000E+000	-1.11530E-005	-5.99601E-002	1.12967E-001	3.57900E+000	9	...........
	75	1.01333	1.04785E-001	-9.85748E-005	0.00000E+000	-1.03292E-005	-5.99601E-002	1.04796E-001	3.57900E+000	9	...........
	76	1.02667	9.66910E-002	-9.90947E-005	0.00000E+000	-9.58157E-006	-5.99601E-002	9.66906E-002	3.57900E+000	9	...........
	77	1.04	8.86531E-002	-9.89093E-005	0.00000E+000	-8.76861E-006	-5.99601E-002	8.86591E-002	3.57900E+000	9	...........
	78	1.05333	8.06943E-002	-9.92333E-005	0.00000E+000	-8.00757E-006	-5.99601E-002	8.06957E-002	3.57900E+000	9	...........
	79	1.06667	7.27958E-002	-9.91437E-005	0.00000E+000	-7.21724E-006	-5.99601E-002	7.27930E-002	3.57900E+000	9	...........
	80	1.08	6.49669E-002	-9.82623E-005	0.00000E+000	-6.38379E-006	-5.99601E-002	6.49594E-002	3.57900E+000	9	...........
	81	1.09333	5.71995E-002	-9.87697E-005	0.00000E+000	-5.64958E-006	-5.99601E-002	5.71982E-002	3.57900E+000	9	...........
	82	1.10667	4.95212E-002	-9.92354E-005	0.00000E+000	-4.91426E-006	-5.99601E-002	4.95103E-002	3.57900E+000	9	...........
	83	1.12	4.19186E-002	-9.94125E-005	0.00000E+000	-4.16724E-006	-5.99601E-002	4.19095E-002	3.57900E+000	9	...........
	84	1.13333	3.43508E-002	-9.93042E-005	0.00000E+000	-3.41117E-006	-5.99601E-002	3.43382E-002	3.57900E+000	9	...........
	85	1.14667	2.68472E-002	-9.85926E-005	0.00000E+000	-2.64693E-006	-5.99601E-002	2.68279E-002	3.57900E+000	9	...........
	86	1.16	1.94141E-002	-9.88489E-005	0.00000E+000	-1.91906E-006	-5.99601E-002	1.93856E-002	3.57900E+000	9	...........
	87	1.17333	1.20360E-002	-9.91510E-005	0.00000E+000	-1.19338E-006	-5.99601E-002	1.20056E-002	3.57900E+000	9	...........
	88	1.18667	4.71285E-003	-9.89093E-005	0.00000E+000	-4.66144E-007	-5.99601E-002	4.68688E-003	3.57900E+000	9	...........
	89	1.19	1.74208E-004	-9.64640E-005	0.00000E+000	-1.68048E-008	-5.99601E-002	1.37557E-004	3.57900E+000	9	...........
STARTTIMEOFFSET	QUANT	746.1927	Start Time Offset (s)
