EXPLAIN
TAG	CV
TITLE	LABEL	Cyclic Voltammetry	Test Identifier
DATE	LABEL	18-7-2017	Date
TIME	LABEL	14:03:23	Time
NOTES	NOTES	1	Notes...
	0.6m
PSTAT	PSTAT	IFC5000-01520	Potentiostat
VINIT	POTEN	0.00000E+000	F	Initial E (V)
VLIMIT1	POTEN	-8.00000E-001	F	Scan Limit 1 (V)
VLIMIT2	POTEN	8.00000E-001	F	Scan Limit 2 (V)
VFINAL	POTEN	0.00000E+000	F	Final E (V)
SCANRATE	QUANT	3.99999E+002	A Real Number
STEPSIZE	QUANT	1.00000E+001	Step Size (mV)
CYCLES	IQUANT	3	Cycles (#)
IMODE	SELECTOR	0	I/E Range Mode
IRANGE	QUANT	2.50000E+002	Max Current (mA)
AREA	QUANT	3.84800E-001	A Real Number
EQDELAY	QUANT	1.00000E+000	Equil. Time (s)
IRCOMP	SELECTOR	0	IRComp
PFCOR	QUANT	2.50000E+002	PF Corr. (ohm)
SAMPLINGMODE	SELECTOR	0	Sampling Mode
EOC	QUANT	0	Open Circuit (V)
SEQUENCER	TOGGLE	TRUE	Run as Sequence
PSTATMODEL	IQUANT	53	Pstat Model
PSTATSECTION	LABEL	IFC5000-01520	Pstat Section
PSTATSERIALNO	LABEL	01520	Pstat Serial Number
CTRLMODE	IQUANT	1	Control Mode
ELECTROMETER	IQUANT	0	RE=0 or CS=1
IESTAB	IQUANT	2	I/E Stability
CASPEED	IQUANT	4	Control Amp Speed
CONVENTION	IQUANT	1	Current Convention
ICHRANGE	IQUANT	2	Ich Range
ICHRANGEMODE	TOGGLE	F	Ich Auto Range
ICHOFFSETENABLE	TOGGLE	F	Ich Offset Enable
ICHOFFSET	QUANT	0	Ich Offset (V)
ICHFILTER	IQUANT	3	Ich Filter
VCHRANGE	IQUANT	2	Vch Range
VCHRANGEMODE	TOGGLE	F	Vch Auto Range
VCHOFFSETENABLE	TOGGLE	F	Vch Offset Enable
VCHOFFSET	QUANT	0	Vch Offset (V)
VCHFILTER	IQUANT	3	Vch Filter
IERANGELOWERLIMIT	IQUANT	7	I/E Range Lower Limit
IERANGEMODE	TOGGLE	T	I/E AutoRange
IERANGE	IQUANT	11	I/E Range
ACHSELECT	IQUANT	1	Ach Select
ACHRANGE	IQUANT	2	Ach Range
ACHOFFSETENABLE	TOGGLE	F	Ach Offset Enable
ACHOFFSET	QUANT	0	Ach Offset (V)
ACHFILTER	IQUANT	1	Ach Filter
CABLEID	IQUANT	14	Cable ID
DCCALDATE	LABEL	5-7-2017	DC Calibration Date
ACCALDATE	LABEL	12/3/2015	AC Calibration Date
FRAMEWORKVERSION	QUANT	7.01	Framework Version
INSTRUMENTVERSION	LABEL	4.00	Instrument Version
CURVE1	TABLE
	Pt	T	Vf	Im	Vu	Sig	Ach	IERange	Over
	#	s	V vs. Ref.	A	V	V	V	#	bits
	0	0.025	-1.65120E-004	-1.58839E-003	0.00000E+000	0.00000E+000	-3.33723E-004	11	...........
	1	0.05	-1.01651E-002	-1.68945E-003	0.00000E+000	-9.99874E-003	-1.03374E-002	10	...........
	2	0.075	-2.03651E-002	-1.81460E-003	0.00000E+000	-1.99975E-002	-2.03411E-002	9	...........
	3	0.1	-3.03651E-002	-1.93713E-003	0.00000E+000	-2.99962E-002	-3.01447E-002	9	...........
	4	0.125	-4.01651E-002	-2.05699E-003	0.00000E+000	-3.99949E-002	-4.03485E-002	9	...........
	5	0.15	-5.01651E-002	-2.17384E-003	0.00000E+000	-4.99937E-002	-5.03522E-002	9	...........
	6	0.175	-6.03651E-002	-2.28787E-003	0.00000E+000	-5.99924E-002	-6.03559E-002	9	...........
	7	0.2	-7.01651E-002	-2.40006E-003	0.00000E+000	-6.99912E-002	-7.01595E-002	9	...........
	8	0.225	-8.01651E-002	-2.51041E-003	0.00000E+000	-7.99899E-002	-8.01632E-002	9	...........
	9	0.25	-9.01651E-002	-2.61860E-003	0.00000E+000	-8.99886E-002	-9.03670E-002	9	...........
	10	0.275	-9.99651E-002	-2.72496E-003	0.00000E+000	-9.99874E-002	-1.00371E-001	9	...........
	11	0.3	-1.10165E-001	-2.82881E-003	0.00000E+000	-1.09986E-001	-1.10174E-001	9	...........
	12	0.325	-1.20165E-001	-2.93284E-003	0.00000E+000	-1.19985E-001	-1.20378E-001	9	...........
	13	0.35	-1.30165E-001	-3.03402E-003	0.00000E+000	-1.29984E-001	-1.30382E-001	9	...........
	14	0.375	-1.39965E-001	-3.13171E-003	0.00000E+000	-1.39982E-001	-1.39985E-001	9	...........
	15	0.4	-1.50165E-001	-3.23123E-003	0.00000E+000	-1.49981E-001	-1.50189E-001	9	...........
	16	0.425	-1.60365E-001	-3.32742E-003	0.00000E+000	-1.59980E-001	-1.60193E-001	9	...........
	17	0.45	-1.70165E-001	-3.42261E-003	0.00000E+000	-1.69979E-001	-1.69996E-001	9	...........
	18	0.475	-1.80165E-001	-3.51629E-003	0.00000E+000	-1.79977E-001	-1.80200E-001	9	...........
	19	0.5	-1.90165E-001	-3.60898E-003	0.00000E+000	-1.89976E-001	-1.90204E-001	9	...........
	20	0.525	-2.00165E-001	-3.69966E-003	0.00000E+000	-1.99975E-001	-2.00008E-001	9	...........
	21	0.55	-2.10165E-001	-3.79052E-003	0.00000E+000	-2.10023E-001	-2.10211E-001	9	...........
	22	0.575	-2.20165E-001	-3.87870E-003	0.00000E+000	-2.20022E-001	-2.20215E-001	9	...........
	23	0.6	-2.30165E-001	-3.96522E-003	0.00000E+000	-2.30021E-001	-2.30219E-001	9	...........
	24	0.625	-2.40165E-001	-4.05090E-003	0.00000E+000	-2.40020E-001	-2.40222E-001	9	...........
	25	0.65	-2.50165E-001	-4.13626E-003	0.00000E+000	-2.50018E-001	-2.50026E-001	9	...........
	26	0.675	-2.60165E-001	-4.21977E-003	0.00000E+000	-2.60017E-001	-2.60030E-001	9	...........
	27	0.7	-2.70165E-001	-4.30212E-003	0.00000E+000	-2.70016E-001	-2.70233E-001	9	...........
	28	0.725	-2.80365E-001	-4.38314E-003	0.00000E+000	-2.80015E-001	-2.80037E-001	9	...........
	29	0.75	-2.89965E-001	-4.46316E-003	0.00000E+000	-2.90013E-001	-2.90041E-001	9	...........
	30	0.775	-3.00165E-001	-4.54159E-003	0.00000E+000	-3.00012E-001	-3.00045E-001	10	...........
	31	0.8	-3.09965E-001	-4.61836E-003	0.00000E+000	-3.10011E-001	-3.10048E-001	10	...........
	32	0.825	-3.19965E-001	-4.69513E-003	0.00000E+000	-3.20010E-001	-3.20052E-001	10	...........
	33	0.85	-3.29965E-001	-4.77523E-003	0.00000E+000	-3.30008E-001	-3.30056E-001	10	...........
	34	0.875	-3.39965E-001	-4.84867E-003	0.00000E+000	-3.40007E-001	-3.40059E-001	10	...........
	35	0.9	-3.50165E-001	-4.92043E-003	0.00000E+000	-3.50006E-001	-3.49863E-001	10	...........
	36	0.925	-3.59965E-001	-4.99553E-003	0.00000E+000	-3.60005E-001	-3.60067E-001	10	...........
	37	0.95	-3.69965E-001	-5.06562E-003	0.00000E+000	-3.70003E-001	-3.70070E-001	10	...........
	38	0.975	-3.79965E-001	-5.13738E-003	0.00000E+000	-3.80002E-001	-3.79874E-001	10	...........
	39	1	-3.89765E-001	-5.20581E-003	0.00000E+000	-3.90001E-001	-3.90078E-001	10	...........
	40	1.025	-3.99965E-001	-5.27423E-003	0.00000E+000	-3.99999E-001	-4.00081E-001	10	...........
	41	1.05	-4.09965E-001	-5.34099E-003	0.00000E+000	-4.09998E-001	-4.09885E-001	10	...........
	42	1.075	-4.19965E-001	-5.41108E-003	0.00000E+000	-4.19997E-001	-4.20089E-001	10	...........
	43	1.1	-4.29965E-001	-5.47951E-003	0.00000E+000	-4.29996E-001	-4.30093E-001	10	...........
	44	1.125	-4.39965E-001	-5.54293E-003	0.00000E+000	-4.39994E-001	-4.39696E-001	10	...........
	45	1.15	-4.49765E-001	-5.60968E-003	0.00000E+000	-4.49993E-001	-4.49900E-001	10	...........
	46	1.175	-4.59965E-001	-5.67477E-003	0.00000E+000	-4.59992E-001	-4.59904E-001	10	...........
	47	1.2	-4.69965E-001	-5.73652E-003	0.00000E+000	-4.69991E-001	-4.69707E-001	10	...........
	48	1.225	-4.79965E-001	-5.79660E-003	0.00000E+000	-4.79989E-001	-4.80111E-001	10	...........
	49	1.25	-4.89965E-001	-5.86001E-003	0.00000E+000	-4.89988E-001	-4.89915E-001	10	...........
	50	1.275	-4.99965E-001	-5.92009E-003	0.00000E+000	-4.99987E-001	-4.99918E-001	10	...........
	51	1.3	-5.09965E-001	-5.98017E-003	0.00000E+000	-5.09986E-001	-5.09722E-001	10	...........
	52	1.325	-5.19965E-001	-6.04192E-003	0.00000E+000	-5.19984E-001	-5.19926E-001	10	...........
	53	1.35	-5.29965E-001	-6.09867E-003	0.00000E+000	-5.29983E-001	-5.29729E-001	10	...........
	54	1.375	-5.39965E-001	-6.15875E-003	0.00000E+000	-5.39982E-001	-5.39933E-001	10	...........
	55	1.4	-5.49765E-001	-6.21883E-003	0.00000E+000	-5.49981E-001	-5.49737E-001	10	...........
	56	1.425	-5.59765E-001	-6.27724E-003	0.00000E+000	-5.59979E-001	-5.59741E-001	10	...........
	57	1.45	-5.69765E-001	-6.33064E-003	0.00000E+000	-5.69978E-001	-5.69744E-001	10	...........
	58	1.475	-5.79765E-001	-6.38738E-003	0.00000E+000	-5.79977E-001	-5.79748E-001	10	...........
	59	1.5	-5.89765E-001	-6.44246E-003	0.00000E+000	-5.89975E-001	-5.89952E-001	10	...........
	60	1.525	-5.99765E-001	-6.49753E-003	0.00000E+000	-5.99974E-001	-5.99755E-001	10	...........
	61	1.55	-6.09965E-001	-6.55260E-003	0.00000E+000	-6.10023E-001	-6.09759E-001	10	...........
	62	1.575	-6.19765E-001	-6.60434E-003	0.00000E+000	-6.20022E-001	-6.19963E-001	10	...........
	63	1.6	-6.29965E-001	-6.65774E-003	0.00000E+000	-6.30020E-001	-6.29966E-001	10	...........
	64	1.625	-6.39765E-001	-6.71115E-003	0.00000E+000	-6.40019E-001	-6.39770E-001	10	...........
	65	1.65	-6.49765E-001	-6.76455E-003	0.00000E+000	-6.50018E-001	-6.49774E-001	10	...........
	66	1.675	-6.59765E-001	-6.81462E-003	0.00000E+000	-6.60017E-001	-6.59777E-001	10	...........
	67	1.7	-6.69765E-001	-6.86802E-003	0.00000E+000	-6.70015E-001	-6.69781E-001	10	...........
	68	1.725	-6.79765E-001	-6.91976E-003	0.00000E+000	-6.80014E-001	-6.79785E-001	10	...........
	69	1.75	-6.89965E-001	-6.96816E-003	0.00000E+000	-6.90013E-001	-6.89789E-001	10	...........
	70	1.775	-6.99765E-001	-7.01822E-003	0.00000E+000	-7.00012E-001	-6.99792E-001	10	...........
	71	1.8	-7.09765E-001	-7.06495E-003	0.00000E+000	-7.10010E-001	-7.09596E-001	10	...........
	72	1.825	-7.19965E-001	-7.11335E-003	0.00000E+000	-7.20009E-001	-7.19800E-001	10	...........
	73	1.85	-7.29565E-001	-7.16008E-003	0.00000E+000	-7.30008E-001	-7.29803E-001	10	...........
	74	1.875	-7.39765E-001	-7.21182E-003	0.00000E+000	-7.40007E-001	-7.39807E-001	10	...........
	75	1.9	-7.49765E-001	-7.25354E-003	0.00000E+000	-7.50005E-001	-7.49611E-001	10	...........
	76	1.925	-7.59565E-001	-7.30194E-003	0.00000E+000	-7.60004E-001	-7.59614E-001	10	...........
	77	1.95	-7.69765E-001	-7.35200E-003	0.00000E+000	-7.70003E-001	-7.69618E-001	10	...........
	78	1.975	-7.79765E-001	-7.39206E-003	0.00000E+000	-7.80001E-001	-7.79422E-001	10	...........
	79	2	-7.89765E-001	-7.44045E-003	0.00000E+000	-7.90000E-001	-7.89825E-001	10	...........
	80	2.025	-7.99565E-001	-7.48218E-003	0.00000E+000	-7.99999E-001	-8.00029E-001	10	...........
	81	2.05	-7.89565E-001	-6.98151E-003	0.00000E+000	-7.90000E-001	-7.89625E-001	10	...........
	82	2.075	-7.79765E-001	-6.52590E-003	0.00000E+000	-7.80001E-001	-7.79822E-001	10	...........
	83	2.1	-7.69565E-001	-6.10200E-003	0.00000E+000	-7.70003E-001	-7.69818E-001	10	...........
	84	2.125	-7.59765E-001	-5.70648E-003	0.00000E+000	-7.60004E-001	-7.59814E-001	10	...........
	85	2.15	-7.49565E-001	-5.33932E-003	0.00000E+000	-7.50005E-001	-7.49611E-001	10	...........
	86	2.175	-7.39765E-001	-4.98885E-003	0.00000E+000	-7.40007E-001	-7.39607E-001	10	...........
	87	2.2	-7.29565E-001	-4.66008E-003	0.00000E+000	-7.30008E-001	-7.29803E-001	10	...........
	88	2.225	-7.19765E-001	-4.34466E-003	0.00000E+000	-7.20009E-001	-7.19800E-001	10	...........
	89	2.25	-7.09565E-001	-4.04593E-003	0.00000E+000	-7.10010E-001	-7.09396E-001	10	...........
	90	2.275	-6.99765E-001	-3.76101E-003	0.00000E+000	-7.00012E-001	-6.99592E-001	9	...........
	91	2.3	-6.89765E-001	-3.49212E-003	0.00000E+000	-6.90013E-001	-6.89789E-001	9	...........
	92	2.325	-6.79765E-001	-3.23290E-003	0.00000E+000	-6.80014E-001	-6.79385E-001	9	...........
	93	2.35	-6.69765E-001	-2.98601E-003	0.00000E+000	-6.70015E-001	-6.69981E-001	9	...........
	94	2.375	-6.59965E-001	-2.74930E-003	0.00000E+000	-6.60017E-001	-6.59777E-001	9	...........
	95	2.4	-6.49765E-001	-2.52092E-003	0.00000E+000	-6.50018E-001	-6.49774E-001	9	...........
	96	2.425	-6.39765E-001	-2.30337E-003	0.00000E+000	-6.40019E-001	-6.39970E-001	9	...........
	97	2.45	-6.29765E-001	-2.09433E-003	0.00000E+000	-6.30020E-001	-6.29966E-001	9	...........
	98	2.475	-6.19765E-001	-1.89112E-003	0.00000E+000	-6.20022E-001	-6.19763E-001	9	...........
	99	2.5	-6.09965E-001	-1.69641E-003	0.00000E+000	-6.10023E-001	-6.09759E-001	9	...........
	100	2.525	-5.99965E-001	-1.50704E-003	0.00000E+000	-5.99974E-001	-5.99755E-001	9	...........
	101	2.55	-5.89765E-001	-1.32433E-003	0.00000E+000	-5.89975E-001	-5.89952E-001	9	...........
	102	2.575	-5.79765E-001	-1.14763E-003	0.00000E+000	-5.79977E-001	-5.79748E-001	9	...........
	103	2.6	-5.69765E-001	-9.76592E-004	0.00000E+000	-5.69978E-001	-5.69744E-001	9	...........
	104	2.625	-5.59965E-001	-8.10557E-004	0.00000E+000	-5.59979E-001	-5.59941E-001	9	...........
	105	2.65	-5.49965E-001	-6.49523E-004	0.00000E+000	-5.49981E-001	-5.49737E-001	9	...........
	106	2.675	-5.39765E-001	-4.92657E-004	0.00000E+000	-5.39982E-001	-5.39933E-001	9	...........
	107	2.7	-5.29965E-001	-3.40292E-004	0.00000E+000	-5.29983E-001	-5.29930E-001	9	...........
	108	2.725	-5.19765E-001	-1.91844E-004	0.00000E+000	-5.19984E-001	-5.19726E-001	8	...........
	109	2.75	-5.09765E-001	-4.78189E-005	0.00000E+000	-5.09986E-001	-5.09722E-001	8	...........
	110	2.775	-4.99965E-001	9.40357E-005	0.00000E+000	-4.99987E-001	-4.99918E-001	8	...........
	111	2.8	-4.89965E-001	2.31433E-004	0.00000E+000	-4.89988E-001	-4.89915E-001	8	...........
	112	2.825	-4.79965E-001	3.65591E-004	0.00000E+000	-4.79989E-001	-4.79911E-001	8	...........
	113	2.85	-4.69965E-001	4.97796E-004	0.00000E+000	-4.69991E-001	-4.69907E-001	8	...........
	114	2.875	-4.59965E-001	6.26745E-004	0.00000E+000	-4.59992E-001	-4.60104E-001	9	...........
	115	2.9	-4.49965E-001	7.52771E-004	0.00000E+000	-4.49993E-001	-4.50100E-001	9	...........
	116	2.925	-4.39965E-001	8.76297E-004	0.00000E+000	-4.39994E-001	-4.39896E-001	9	...........
	117	2.95	-4.29965E-001	9.96656E-004	0.00000E+000	-4.29996E-001	-4.29893E-001	9	...........
	118	2.975	-4.19965E-001	1.11568E-003	0.00000E+000	-4.19997E-001	-4.19889E-001	9	...........
	119	3	-4.10165E-001	1.23137E-003	0.00000E+000	-4.09998E-001	-4.09885E-001	9	...........
	120	3.025	-3.99965E-001	1.34540E-003	0.00000E+000	-3.99999E-001	-4.00081E-001	9	...........
	121	3.05	-3.89965E-001	1.45625E-003	0.00000E+000	-3.90001E-001	-3.89878E-001	9	...........
	122	3.075	-3.79965E-001	1.56611E-003	0.00000E+000	-3.80002E-001	-3.80274E-001	9	...........
	123	3.1	-3.70165E-001	1.67463E-003	0.00000E+000	-3.70003E-001	-3.69870E-001	9	...........
	124	3.125	-3.60165E-001	1.77982E-003	0.00000E+000	-3.60005E-001	-3.60067E-001	9	...........
	125	3.15	-3.49965E-001	1.88401E-003	0.00000E+000	-3.50006E-001	-3.50063E-001	9	...........
	126	3.175	-3.39965E-001	1.98670E-003	0.00000E+000	-3.40007E-001	-3.40259E-001	9	...........
	127	3.2	-3.29965E-001	2.08672E-003	0.00000E+000	-3.30008E-001	-3.30056E-001	9	...........
	128	3.225	-3.19965E-001	2.18541E-003	0.00000E+000	-3.20010E-001	-3.20052E-001	9	...........
	129	3.25	-3.10165E-001	2.28193E-003	0.00000E+000	-3.10011E-001	-3.10248E-001	9	...........
	130	3.275	-3.00165E-001	2.37645E-003	0.00000E+000	-3.00012E-001	-3.00045E-001	9	...........
	131	3.3	-2.90165E-001	2.47063E-003	0.00000E+000	-2.90013E-001	-2.90041E-001	9	...........
	132	3.325	-2.80165E-001	2.56365E-003	0.00000E+000	-2.80015E-001	-2.80037E-001	9	...........
	133	3.35	-2.70165E-001	2.65417E-003	0.00000E+000	-2.70016E-001	-2.70233E-001	9	...........
	134	3.375	-2.60165E-001	2.74302E-003	0.00000E+000	-2.60017E-001	-2.60030E-001	9	...........
	135	3.4	-2.50165E-001	2.83037E-003	0.00000E+000	-2.50018E-001	-2.50226E-001	9	...........
	136	3.425	-2.39965E-001	2.91689E-003	0.00000E+000	-2.40020E-001	-2.40222E-001	9	...........
	137	3.45	-2.29965E-001	3.00208E-003	0.00000E+000	-2.30021E-001	-2.30219E-001	9	...........
	138	3.475	-2.20165E-001	3.08593E-003	0.00000E+000	-2.20022E-001	-2.20215E-001	9	...........
	139	3.5	-2.10165E-001	3.16778E-003	0.00000E+000	-2.10023E-001	-2.10211E-001	9	...........
	140	3.525	-2.00165E-001	3.24963E-003	0.00000E+000	-1.99975E-001	-2.00208E-001	9	...........
	141	3.55	-1.90165E-001	3.32948E-003	0.00000E+000	-1.89976E-001	-1.90204E-001	9	...........
	142	3.575	-1.80165E-001	3.40650E-003	0.00000E+000	-1.79977E-001	-1.80200E-001	9	...........
	143	3.6	-1.70165E-001	3.48451E-003	0.00000E+000	-1.69979E-001	-1.70197E-001	9	...........
	144	3.625	-1.60165E-001	3.56286E-003	0.00000E+000	-1.59980E-001	-1.60193E-001	9	...........
	145	3.65	-1.49965E-001	3.63671E-003	0.00000E+000	-1.49981E-001	-1.50189E-001	9	...........
	146	3.675	-1.40165E-001	3.71139E-003	0.00000E+000	-1.39982E-001	-1.40385E-001	9	...........
	147	3.7	-1.30165E-001	3.78508E-003	0.00000E+000	-1.29984E-001	-1.30182E-001	9	...........
	148	3.725	-1.20165E-001	3.85742E-003	0.00000E+000	-1.19985E-001	-1.20178E-001	9	...........
	149	3.75	-1.09965E-001	3.92761E-003	0.00000E+000	-1.09986E-001	-1.10174E-001	9	...........
	150	3.775	-1.00165E-001	3.99829E-003	0.00000E+000	-9.99874E-002	-1.00371E-001	9	...........
	151	3.8	-9.01651E-002	4.06797E-003	0.00000E+000	-8.99886E-002	-9.03670E-002	9	...........
	152	3.825	-8.03651E-002	4.13698E-003	0.00000E+000	-7.99899E-002	-8.03633E-002	9	...........
	153	3.85	-7.03651E-002	4.20466E-003	0.00000E+000	-6.99912E-002	-7.01595E-002	9	...........
	154	3.875	-6.03651E-002	4.27068E-003	0.00000E+000	-5.99924E-002	-6.03559E-002	9	...........
	155	3.9	-5.01651E-002	4.33602E-003	0.00000E+000	-4.99937E-002	-5.01521E-002	9	...........
	156	3.925	-4.01651E-002	4.40137E-003	0.00000E+000	-3.99949E-002	-4.03485E-002	9	...........
	157	3.95	-3.01651E-002	4.46639E-003	0.00000E+000	-2.99962E-002	-3.01447E-002	9	...........
	158	3.975	-2.03651E-002	4.52383E-003	0.00000E+000	-1.99975E-002	-2.03411E-002	10	...........
	159	4	-1.03651E-002	4.59059E-003	0.00000E+000	-9.99874E-003	-1.03374E-002	10	...........
	160	4.025	-1.65120E-004	4.65067E-003	0.00000E+000	0.00000E+000	-3.33723E-004	10	...........
	161	4.05	9.83488E-003	4.71242E-003	0.00000E+000	9.99874E-003	9.66997E-003	10	...........
	162	4.075	1.96349E-002	4.77250E-003	0.00000E+000	1.99975E-002	1.94736E-002	10	...........
	163	4.1	2.98349E-002	4.82757E-003	0.00000E+000	2.99962E-002	2.96774E-002	10	...........
	164	4.125	3.98349E-002	4.88932E-003	0.00000E+000	3.99949E-002	3.96811E-002	10	...........
	165	4.15	4.98349E-002	4.94606E-003	0.00000E+000	4.99937E-002	4.96848E-002	10	...........
	166	4.175	5.98349E-002	5.00280E-003	0.00000E+000	5.99924E-002	5.96885E-002	10	...........
	167	4.2	6.96349E-002	5.05788E-003	0.00000E+000	6.99912E-002	6.94921E-002	10	...........
	168	4.225	7.96349E-002	5.11462E-003	0.00000E+000	7.99899E-002	7.94958E-002	10	...........
	169	4.25	8.96349E-002	5.16802E-003	0.00000E+000	8.99886E-002	8.96996E-002	10	...........
	170	4.275	9.98349E-002	5.22477E-003	0.00000E+000	9.99874E-002	9.95032E-002	10	...........
	171	4.3	1.09635E-001	5.27483E-003	0.00000E+000	1.09986E-001	1.09507E-001	10	...........
	172	4.325	1.19635E-001	5.33157E-003	0.00000E+000	1.19985E-001	1.19511E-001	10	...........
	173	4.35	1.29635E-001	5.37997E-003	0.00000E+000	1.29984E-001	1.29514E-001	10	...........
	174	4.375	1.39835E-001	5.43171E-003	0.00000E+000	1.39982E-001	1.39518E-001	10	...........
	175	4.4	1.49635E-001	5.48011E-003	0.00000E+000	1.49981E-001	1.49722E-001	10	...........
	176	4.425	1.59435E-001	5.53184E-003	0.00000E+000	1.59980E-001	1.59325E-001	10	...........
	177	4.45	1.69635E-001	5.58191E-003	0.00000E+000	1.69979E-001	1.69529E-001	10	...........
	178	4.475	1.79435E-001	5.63031E-003	0.00000E+000	1.79977E-001	1.79333E-001	10	...........
	179	4.5	1.89635E-001	5.67704E-003	0.00000E+000	1.89976E-001	1.89336E-001	10	...........
	180	4.525	1.99635E-001	5.72376E-003	0.00000E+000	1.99975E-001	1.99540E-001	10	...........
	181	4.55	2.09635E-001	5.77216E-003	0.00000E+000	2.10023E-001	2.09744E-001	10	...........
	182	4.575	2.19635E-001	5.81722E-003	0.00000E+000	2.20022E-001	2.19347E-001	10	...........
	183	4.6	2.29835E-001	5.86228E-003	0.00000E+000	2.30021E-001	2.29351E-001	10	...........
	184	4.625	2.39635E-001	5.90734E-003	0.00000E+000	2.40020E-001	2.39555E-001	10	...........
	185	4.65	2.49635E-001	5.95073E-003	0.00000E+000	2.50018E-001	2.49359E-001	10	...........
	186	4.675	2.59435E-001	5.98912E-003	0.00000E+000	2.60017E-001	2.59562E-001	10	...........
	187	4.7	2.69635E-001	6.03418E-003	0.00000E+000	2.70016E-001	2.69566E-001	10	...........
	188	4.725	2.79635E-001	6.07423E-003	0.00000E+000	2.80015E-001	2.79570E-001	10	...........
	189	4.75	2.89635E-001	6.11429E-003	0.00000E+000	2.90013E-001	2.89373E-001	10	...........
	190	4.775	2.99635E-001	6.15434E-003	0.00000E+000	3.00012E-001	2.99377E-001	10	...........
	191	4.8	3.09435E-001	6.19272E-003	0.00000E+000	3.10011E-001	3.09381E-001	10	...........
	192	4.825	3.19635E-001	6.23111E-003	0.00000E+000	3.20010E-001	3.19585E-001	10	...........
	193	4.85	3.29435E-001	6.26782E-003	0.00000E+000	3.30008E-001	3.29588E-001	10	...........
	194	4.875	3.39435E-001	6.30454E-003	0.00000E+000	3.40007E-001	3.39592E-001	10	...........
	195	4.9	3.49435E-001	6.33792E-003	0.00000E+000	3.50006E-001	3.49396E-001	10	...........
	196	4.925	3.59435E-001	6.36963E-003	0.00000E+000	3.60005E-001	3.59399E-001	10	...........
	197	4.95	3.69235E-001	6.40634E-003	0.00000E+000	3.70003E-001	3.69403E-001	10	...........
	198	4.975	3.79635E-001	6.43972E-003	0.00000E+000	3.80002E-001	3.79407E-001	10	...........
	199	5	3.89635E-001	6.46976E-003	0.00000E+000	3.90001E-001	3.89410E-001	10	...........
	200	5.025	3.99235E-001	6.50147E-003	0.00000E+000	3.99999E-001	3.99214E-001	10	...........
	201	5.05	4.09635E-001	6.53318E-003	0.00000E+000	4.09998E-001	4.09218E-001	10	...........
	202	5.075	4.19435E-001	6.56155E-003	0.00000E+000	4.19997E-001	4.19221E-001	10	...........
	203	5.1	4.29435E-001	6.59159E-003	0.00000E+000	4.29996E-001	4.29225E-001	10	...........
	204	5.125	4.39435E-001	6.61829E-003	0.00000E+000	4.39994E-001	4.39229E-001	10	...........
	205	5.15	4.49435E-001	6.64332E-003	0.00000E+000	4.49993E-001	4.49232E-001	10	...........
	206	5.175	4.59435E-001	6.67003E-003	0.00000E+000	4.59992E-001	4.59236E-001	10	...........
	207	5.2	4.69435E-001	6.69673E-003	0.00000E+000	4.69991E-001	4.69240E-001	10	...........
	208	5.225	4.79235E-001	6.72009E-003	0.00000E+000	4.79989E-001	4.79444E-001	10	...........
	209	5.25	4.89435E-001	6.74346E-003	0.00000E+000	4.89988E-001	4.89247E-001	10	...........
	210	5.275	4.99435E-001	6.76515E-003	0.00000E+000	4.99987E-001	4.99251E-001	10	...........
	211	5.3	5.09635E-001	6.78852E-003	0.00000E+000	5.09986E-001	5.09255E-001	10	...........
	212	5.325	5.19435E-001	6.80854E-003	0.00000E+000	5.19984E-001	5.19058E-001	10	...........
	213	5.35	5.29435E-001	6.82857E-003	0.00000E+000	5.29983E-001	5.29462E-001	10	...........
	214	5.375	5.39435E-001	6.84359E-003	0.00000E+000	5.39982E-001	5.39266E-001	10	...........
	215	5.4	5.49235E-001	6.86362E-003	0.00000E+000	5.49981E-001	5.49269E-001	10	...........
	216	5.425	5.59435E-001	6.88198E-003	0.00000E+000	5.59979E-001	5.59073E-001	10	...........
	217	5.45	5.69435E-001	6.89700E-003	0.00000E+000	5.69978E-001	5.69277E-001	10	...........
	218	5.475	5.79235E-001	6.91202E-003	0.00000E+000	5.79977E-001	5.79080E-001	10	...........
	219	5.5	5.89435E-001	6.92370E-003	0.00000E+000	5.89975E-001	5.89284E-001	10	...........
	220	5.525	5.99435E-001	6.94039E-003	0.00000E+000	5.99974E-001	5.99088E-001	10	...........
	221	5.55	6.09435E-001	6.95040E-003	0.00000E+000	6.10023E-001	6.09092E-001	10	...........
	222	5.575	6.19435E-001	6.96375E-003	0.00000E+000	6.20022E-001	6.19095E-001	10	...........
	223	5.6	6.29235E-001	6.97376E-003	0.00000E+000	6.30020E-001	6.29299E-001	10	...........
	224	5.625	6.39435E-001	6.98211E-003	0.00000E+000	6.40019E-001	6.39303E-001	10	...........
	225	5.65	6.49035E-001	6.99212E-003	0.00000E+000	6.50018E-001	6.49106E-001	10	...........
	226	5.675	6.59435E-001	7.00047E-003	0.00000E+000	6.60017E-001	6.59110E-001	10	...........
	227	5.7	6.69435E-001	7.00547E-003	0.00000E+000	6.70015E-001	6.69114E-001	10	...........
	228	5.725	6.79435E-001	7.01215E-003	0.00000E+000	6.80014E-001	6.79117E-001	10	...........
	229	5.75	6.89235E-001	7.01883E-003	0.00000E+000	6.90013E-001	6.89121E-001	10	...........
	230	5.775	6.99035E-001	7.02049E-003	0.00000E+000	7.00012E-001	6.99325E-001	10	...........
	231	5.8	7.09235E-001	7.02383E-003	0.00000E+000	7.10010E-001	7.09129E-001	10	...........
	232	5.825	7.19435E-001	7.02717E-003	0.00000E+000	7.20009E-001	7.19132E-001	10	...........
	233	5.85	7.29235E-001	7.02884E-003	0.00000E+000	7.30008E-001	7.28936E-001	10	...........
	234	5.875	7.39235E-001	7.03051E-003	0.00000E+000	7.40007E-001	7.39140E-001	10	...........
	235	5.9	7.49035E-001	7.03384E-003	0.00000E+000	7.50005E-001	7.49343E-001	10	...........
	236	5.925	7.59235E-001	7.03218E-003	0.00000E+000	7.60004E-001	7.59147E-001	10	...........
	237	5.95	7.69435E-001	7.03051E-003	0.00000E+000	7.70003E-001	7.69151E-001	10	...........
	238	5.975	7.79235E-001	7.02884E-003	0.00000E+000	7.80001E-001	7.78954E-001	10	...........
	239	6	7.89235E-001	7.02884E-003	0.00000E+000	7.90000E-001	7.89158E-001	10	...........
	240	6.025	7.99235E-001	7.02383E-003	0.00000E+000	7.99999E-001	7.99162E-001	10	...........
CURVE2	TABLE
	Pt	T	Vf	Im	Vu	Sig	Ach	IERange	Over
	#	s	V vs. Ref.	A	V	V	V	#	bits
	241	6.05	7.89235E-001	6.55487E-003	0.00000E+000	7.90000E-001	7.88958E-001	10	...........
	242	6.075	7.79235E-001	6.12263E-003	0.00000E+000	7.80001E-001	7.78954E-001	10	...........
	243	6.1	7.69235E-001	5.72543E-003	0.00000E+000	7.70003E-001	7.69151E-001	10	...........
	244	6.125	7.59035E-001	5.35327E-003	0.00000E+000	7.60004E-001	7.58947E-001	10	...........
	245	6.15	7.49235E-001	5.00280E-003	0.00000E+000	7.50005E-001	7.49143E-001	10	...........
	246	6.175	7.39235E-001	4.67236E-003	0.00000E+000	7.40007E-001	7.39140E-001	10	...........
	247	6.2	7.29235E-001	4.36028E-003	0.00000E+000	7.30008E-001	7.29136E-001	10	...........
	248	6.225	7.19435E-001	4.06322E-003	0.00000E+000	7.20009E-001	7.19332E-001	10	...........
	249	6.25	7.09235E-001	3.78451E-003	0.00000E+000	7.10010E-001	7.08928E-001	10	...........
	250	6.275	6.99235E-001	3.52002E-003	0.00000E+000	7.00012E-001	6.99125E-001	9	...........
	251	6.3	6.89235E-001	3.26413E-003	0.00000E+000	6.90013E-001	6.89121E-001	9	...........
	252	6.325	6.79235E-001	3.02208E-003	0.00000E+000	6.80014E-001	6.79318E-001	9	...........
	253	6.35	6.69435E-001	2.78820E-003	0.00000E+000	6.70015E-001	6.69314E-001	9	...........
	254	6.375	6.59235E-001	2.56749E-003	0.00000E+000	6.60017E-001	6.59110E-001	9	...........
	255	6.4	6.49435E-001	2.35344E-003	0.00000E+000	6.50018E-001	6.49306E-001	9	...........
	256	6.425	6.39435E-001	2.14923E-003	0.00000E+000	6.40019E-001	6.39103E-001	9	...........
	257	6.45	6.29235E-001	1.95336E-003	0.00000E+000	6.30020E-001	6.29099E-001	9	...........
	258	6.475	6.19235E-001	1.76332E-003	0.00000E+000	6.20022E-001	6.19295E-001	9	...........
	259	6.5	6.09235E-001	1.58078E-003	0.00000E+000	6.10023E-001	6.09092E-001	9	...........
	260	6.525	5.99635E-001	1.40491E-003	0.00000E+000	6.00024E-001	5.99288E-001	9	...........
	261	6.55	5.89435E-001	1.23421E-003	0.00000E+000	5.89975E-001	5.89084E-001	9	...........
	262	6.575	5.79435E-001	1.07000E-003	0.00000E+000	5.79977E-001	5.79280E-001	9	...........
	263	6.6	5.69235E-001	9.10805E-004	0.00000E+000	5.69978E-001	5.69277E-001	9	...........
	264	6.625	5.59435E-001	7.56105E-004	0.00000E+000	5.59979E-001	5.59273E-001	9	...........
	265	6.65	5.49435E-001	6.06741E-004	0.00000E+000	5.49981E-001	5.49469E-001	9	...........
	266	6.675	5.39435E-001	4.61043E-004	0.00000E+000	5.39982E-001	5.39266E-001	9	...........
	267	6.7	5.29435E-001	3.19514E-004	0.00000E+000	5.29983E-001	5.29262E-001	9	...........
	268	6.725	5.19435E-001	1.81416E-004	0.00000E+000	5.19984E-001	5.19458E-001	8	...........
	269	6.75	5.09235E-001	4.71404E-005	0.00000E+000	5.09986E-001	5.09255E-001	8	...........
	270	6.775	4.99435E-001	-8.31782E-005	0.00000E+000	4.99987E-001	4.99251E-001	8	...........
	271	6.8	4.89235E-001	-2.10759E-004	0.00000E+000	4.89988E-001	4.89247E-001	8	...........
	272	6.825	4.79235E-001	-3.35168E-004	0.00000E+000	4.79989E-001	4.79244E-001	8	...........
	273	6.85	4.69435E-001	-4.57055E-004	0.00000E+000	4.69991E-001	4.69240E-001	8	...........
	274	6.875	4.59435E-001	-5.76174E-004	0.00000E+000	4.59992E-001	4.59636E-001	9	...........
	275	6.9	4.49435E-001	-6.92532E-004	0.00000E+000	4.49993E-001	4.49232E-001	9	...........
	276	6.925	4.39435E-001	-8.06556E-004	0.00000E+000	4.39994E-001	4.39229E-001	9	...........
	277	6.95	4.29235E-001	-9.17746E-004	0.00000E+000	4.29996E-001	4.29425E-001	9	...........
	278	6.975	4.19435E-001	-1.02777E-003	0.00000E+000	4.19997E-001	4.19421E-001	9	...........
	279	7	4.09635E-001	-1.13463E-003	0.00000E+000	4.09998E-001	4.09418E-001	9	...........
	280	7.025	3.99635E-001	-1.23965E-003	0.00000E+000	3.99999E-001	3.99414E-001	9	...........
	281	7.05	3.89635E-001	-1.34300E-003	0.00000E+000	3.90001E-001	3.89610E-001	9	...........
	282	7.075	3.79635E-001	-1.44386E-003	0.00000E+000	3.80002E-001	3.79207E-001	9	...........
	283	7.1	3.69435E-001	-1.54354E-003	0.00000E+000	3.70003E-001	3.69403E-001	9	...........
	284	7.125	3.59435E-001	-1.64090E-003	0.00000E+000	3.60005E-001	3.59199E-001	9	...........
	285	7.15	3.49435E-001	-1.73658E-003	0.00000E+000	3.50006E-001	3.49396E-001	9	...........
	286	7.175	3.39435E-001	-1.83110E-003	0.00000E+000	3.40007E-001	3.39592E-001	9	...........
	287	7.2	3.29635E-001	-1.92412E-003	0.00000E+000	3.30008E-001	3.29388E-001	9	...........
	288	7.225	3.19635E-001	-2.01464E-003	0.00000E+000	3.20010E-001	3.19384E-001	9	...........
	289	7.25	3.09635E-001	-2.10483E-003	0.00000E+000	3.10011E-001	3.09381E-001	9	...........
	290	7.275	2.99635E-001	-2.19235E-003	0.00000E+000	3.00012E-001	2.99377E-001	9	...........
	291	7.3	2.89835E-001	-2.27920E-003	0.00000E+000	2.90013E-001	2.89373E-001	9	...........
	292	7.325	2.79435E-001	-2.36522E-003	0.00000E+000	2.80015E-001	2.79370E-001	9	...........
	293	7.35	2.69435E-001	-2.44990E-003	0.00000E+000	2.70016E-001	2.69566E-001	9	...........
	294	7.375	2.59635E-001	-2.53242E-003	0.00000E+000	2.60017E-001	2.59562E-001	9	...........
	295	7.4	2.49435E-001	-2.61477E-003	0.00000E+000	2.50018E-001	2.49559E-001	9	...........
	296	7.425	2.39635E-001	-2.69445E-003	0.00000E+000	2.40020E-001	2.39555E-001	9	...........
	297	7.45	2.29835E-001	-2.77447E-003	0.00000E+000	2.30021E-001	2.29351E-001	9	...........
	298	7.475	2.19635E-001	-2.85165E-003	0.00000E+000	2.20022E-001	2.19548E-001	9	...........
	299	7.5	2.09635E-001	-2.92950E-003	0.00000E+000	2.10023E-001	2.09544E-001	9	...........
	300	7.525	1.99635E-001	-3.00585E-003	0.00000E+000	2.00025E-001	1.99540E-001	9	...........
	301	7.55	1.89835E-001	-3.07987E-003	0.00000E+000	1.90026E-001	1.89536E-001	9	...........
	302	7.575	1.79435E-001	-3.15455E-003	0.00000E+000	1.79977E-001	1.79333E-001	9	...........
	303	7.6	1.69435E-001	-3.22690E-003	0.00000E+000	1.69979E-001	1.69529E-001	9	...........
	304	7.625	1.59635E-001	-3.29991E-003	0.00000E+000	1.59980E-001	1.59525E-001	9	...........
	305	7.65	1.49435E-001	-3.37126E-003	0.00000E+000	1.49981E-001	1.49322E-001	9	...........
	306	7.675	1.39635E-001	-3.44128E-003	0.00000E+000	1.39982E-001	1.39518E-001	9	...........
	307	7.7	1.29635E-001	-3.51129E-003	0.00000E+000	1.29984E-001	1.29714E-001	9	...........
	308	7.725	1.19635E-001	-3.57897E-003	0.00000E+000	1.19985E-001	1.19511E-001	9	...........
	309	7.75	1.09635E-001	-3.64715E-003	0.00000E+000	1.09986E-001	1.09707E-001	9	...........
	310	7.775	9.96349E-002	-3.71383E-003	0.00000E+000	9.99874E-002	9.97033E-002	9	...........
	311	7.8	8.98349E-002	-3.77935E-003	0.00000E+000	8.99886E-002	8.96996E-002	9	...........
	312	7.825	7.96349E-002	-3.84636E-003	0.00000E+000	7.99899E-002	7.96959E-002	9	...........
	313	7.85	6.96349E-002	-3.91071E-003	0.00000E+000	6.99912E-002	6.96922E-002	9	...........
	314	7.875	5.98349E-002	-3.97455E-003	0.00000E+000	5.99924E-002	5.96885E-002	9	...........
	315	7.9	4.96349E-002	-4.03874E-003	0.00000E+000	4.99937E-002	4.96848E-002	9	...........
	316	7.925	3.98349E-002	-4.10025E-003	0.00000E+000	3.99949E-002	3.96811E-002	9	...........
	317	7.95	2.96349E-002	-4.16309E-003	0.00000E+000	2.99962E-002	2.96774E-002	9	...........
	318	7.975	1.98349E-002	-4.22377E-003	0.00000E+000	1.99975E-002	1.96737E-002	9	...........
	319	8	9.83488E-003	-4.28462E-003	0.00000E+000	9.99874E-003	9.66997E-003	9	...........
	320	8.025	-1.65120E-004	-4.34547E-003	0.00000E+000	0.00000E+000	-3.33723E-004	9	...........
	321	8.05	-1.01651E-002	-4.40398E-003	0.00000E+000	-9.99874E-003	-1.01373E-002	9	...........
	322	8.075	-2.03651E-002	-4.46299E-003	0.00000E+000	-1.99975E-002	-2.01410E-002	9	...........
	323	8.1	-3.03651E-002	-4.52323E-003	0.00000E+000	-2.99962E-002	-3.03448E-002	10	...........
	324	8.125	-4.01651E-002	-4.57997E-003	0.00000E+000	-3.99949E-002	-4.03485E-002	10	...........
	325	8.15	-5.01651E-002	-4.63505E-003	0.00000E+000	-4.99937E-002	-5.01521E-002	10	...........
	326	8.175	-6.01651E-002	-4.69346E-003	0.00000E+000	-5.99924E-002	-6.03559E-002	10	...........
	327	8.2	-7.01651E-002	-4.74853E-003	0.00000E+000	-6.99912E-002	-6.99595E-002	10	...........
	328	8.225	-8.01651E-002	-4.80361E-003	0.00000E+000	-7.99899E-002	-8.03633E-002	10	...........
	329	8.25	-9.01651E-002	-4.85701E-003	0.00000E+000	-8.99886E-002	-9.03670E-002	10	...........
	330	8.275	-1.00165E-001	-4.91208E-003	0.00000E+000	-9.99874E-002	-1.00171E-001	10	...........
	331	8.3	-1.10165E-001	-4.96549E-003	0.00000E+000	-1.09986E-001	-1.10374E-001	10	...........
	332	8.325	-1.20165E-001	-5.01889E-003	0.00000E+000	-1.19985E-001	-1.20178E-001	10	...........
	333	8.35	-1.30165E-001	-5.07397E-003	0.00000E+000	-1.29984E-001	-1.30182E-001	10	...........
	334	8.375	-1.40165E-001	-5.12403E-003	0.00000E+000	-1.39982E-001	-1.40185E-001	10	...........
	335	8.4	-1.50365E-001	-5.17577E-003	0.00000E+000	-1.49981E-001	-1.50189E-001	10	...........
	336	8.425	-1.60165E-001	-5.22917E-003	0.00000E+000	-1.59980E-001	-1.60193E-001	10	...........
	337	8.45	-1.69965E-001	-5.28091E-003	0.00000E+000	-1.69979E-001	-1.70197E-001	10	...........
	338	8.475	-1.80165E-001	-5.32931E-003	0.00000E+000	-1.79977E-001	-1.80000E-001	10	...........
	339	8.5	-1.90165E-001	-5.37770E-003	0.00000E+000	-1.89976E-001	-1.90004E-001	10	...........
	340	8.525	-2.00165E-001	-5.42777E-003	0.00000E+000	-1.99975E-001	-2.00208E-001	10	...........
	341	8.55	-2.10165E-001	-5.47283E-003	0.00000E+000	-2.09973E-001	-2.10211E-001	10	...........
	342	8.575	-2.19965E-001	-5.52457E-003	0.00000E+000	-2.20022E-001	-2.20015E-001	10	...........
	343	8.6	-2.30165E-001	-5.57630E-003	0.00000E+000	-2.30021E-001	-2.30019E-001	10	...........
	344	8.625	-2.40165E-001	-5.61969E-003	0.00000E+000	-2.40020E-001	-2.40222E-001	10	...........
	345	8.65	-2.50165E-001	-5.66809E-003	0.00000E+000	-2.50018E-001	-2.50026E-001	10	...........
	346	8.675	-2.60165E-001	-5.71482E-003	0.00000E+000	-2.60017E-001	-2.60030E-001	10	...........
	347	8.7	-2.70165E-001	-5.75654E-003	0.00000E+000	-2.70016E-001	-2.70033E-001	10	...........
	348	8.725	-2.80365E-001	-5.80494E-003	0.00000E+000	-2.80015E-001	-2.80237E-001	10	...........
	349	8.75	-2.90165E-001	-5.85000E-003	0.00000E+000	-2.90013E-001	-2.90241E-001	10	...........
	350	8.775	-2.99965E-001	-5.89506E-003	0.00000E+000	-3.00012E-001	-3.00245E-001	10	...........
	351	8.8	-3.10165E-001	-5.93845E-003	0.00000E+000	-3.10011E-001	-3.10248E-001	10	...........
	352	8.825	-3.19965E-001	-5.98351E-003	0.00000E+000	-3.20010E-001	-3.20252E-001	10	...........
	353	8.85	-3.29965E-001	-6.02857E-003	0.00000E+000	-3.30008E-001	-3.30056E-001	10	...........
	354	8.875	-3.39965E-001	-6.07196E-003	0.00000E+000	-3.40007E-001	-3.40059E-001	10	...........
	355	8.9	-3.49965E-001	-6.11369E-003	0.00000E+000	-3.50006E-001	-3.49863E-001	10	...........
	356	8.925	-3.60165E-001	-6.15541E-003	0.00000E+000	-3.60005E-001	-3.60067E-001	10	...........
	357	8.95	-3.69965E-001	-6.19880E-003	0.00000E+000	-3.70003E-001	-3.69870E-001	10	...........
	358	8.975	-3.79965E-001	-6.23885E-003	0.00000E+000	-3.80002E-001	-3.80074E-001	10	...........
	359	9	-3.90165E-001	-6.28057E-003	0.00000E+000	-3.90001E-001	-3.89878E-001	10	...........
	360	9.025	-3.99965E-001	-6.32397E-003	0.00000E+000	-3.99999E-001	-4.00081E-001	10	...........
	361	9.05	-4.09965E-001	-6.36235E-003	0.00000E+000	-4.09998E-001	-4.09885E-001	10	...........
	362	9.075	-4.19965E-001	-6.40407E-003	0.00000E+000	-4.19997E-001	-4.19889E-001	10	...........
	363	9.1	-4.30165E-001	-6.44413E-003	0.00000E+000	-4.29996E-001	-4.29893E-001	10	...........
	364	9.125	-4.39965E-001	-6.48251E-003	0.00000E+000	-4.39994E-001	-4.40096E-001	10	...........
	365	9.15	-4.49765E-001	-6.52757E-003	0.00000E+000	-4.49993E-001	-4.49900E-001	10	...........
	366	9.175	-4.59965E-001	-6.56429E-003	0.00000E+000	-4.59992E-001	-4.60104E-001	10	...........
	367	9.2	-4.69765E-001	-6.60434E-003	0.00000E+000	-4.69991E-001	-4.70107E-001	10	...........
	368	9.225	-4.79965E-001	-6.64439E-003	0.00000E+000	-4.79989E-001	-4.79911E-001	10	...........
	369	9.25	-4.89965E-001	-6.68278E-003	0.00000E+000	-4.89988E-001	-4.89715E-001	10	...........
	370	9.275	-4.99965E-001	-6.72283E-003	0.00000E+000	-4.99987E-001	-4.99718E-001	10	...........
	371	9.3	-5.09765E-001	-6.75955E-003	0.00000E+000	-5.09986E-001	-5.09922E-001	10	...........
	372	9.325	-5.19965E-001	-6.79626E-003	0.00000E+000	-5.19984E-001	-5.19926E-001	10	...........
	373	9.35	-5.29965E-001	-6.83298E-003	0.00000E+000	-5.29983E-001	-5.29930E-001	10	...........
	374	9.375	-5.39965E-001	-6.87303E-003	0.00000E+000	-5.39982E-001	-5.39733E-001	10	...........
	375	9.4	-5.49565E-001	-6.91142E-003	0.00000E+000	-5.49981E-001	-5.49937E-001	10	...........
	376	9.425	-5.59965E-001	-6.94980E-003	0.00000E+000	-5.59979E-001	-5.59741E-001	10	...........
	377	9.45	-5.69765E-001	-6.98318E-003	0.00000E+000	-5.69978E-001	-5.69944E-001	10	...........
	378	9.475	-5.79765E-001	-7.01989E-003	0.00000E+000	-5.79977E-001	-5.79948E-001	10	...........
	379	9.5	-5.89765E-001	-7.05661E-003	0.00000E+000	-5.89975E-001	-5.89752E-001	10	...........
	380	9.525	-5.99965E-001	-7.09333E-003	0.00000E+000	-5.99974E-001	-5.99955E-001	10	...........
	381	9.55	-6.09965E-001	-7.12837E-003	0.00000E+000	-6.09973E-001	-6.09759E-001	10	...........
	382	9.575	-6.19765E-001	-7.17009E-003	0.00000E+000	-6.20022E-001	-6.19763E-001	10	...........
	383	9.6	-6.29765E-001	-7.20013E-003	0.00000E+000	-6.30020E-001	-6.29966E-001	10	...........
	384	9.625	-6.39765E-001	-7.23852E-003	0.00000E+000	-6.40019E-001	-6.39770E-001	10	...........
	385	9.65	-6.49965E-001	-7.27023E-003	0.00000E+000	-6.50018E-001	-6.49774E-001	10	...........
	386	9.675	-6.59765E-001	-7.31195E-003	0.00000E+000	-6.60017E-001	-6.59777E-001	10	...........
	387	9.7	-6.69765E-001	-7.34533E-003	0.00000E+000	-6.70015E-001	-6.69581E-001	10	...........
	388	9.725	-6.79965E-001	-7.37704E-003	0.00000E+000	-6.80014E-001	-6.79585E-001	10	...........
	389	9.75	-6.89765E-001	-7.40875E-003	0.00000E+000	-6.90013E-001	-6.89789E-001	10	...........
	390	9.775	-6.99765E-001	-7.44880E-003	0.00000E+000	-7.00012E-001	-6.99592E-001	10	...........
	391	9.8	-7.09565E-001	-7.48051E-003	0.00000E+000	-7.10010E-001	-7.09796E-001	10	...........
	392	9.825	-7.19765E-001	-7.51055E-003	0.00000E+000	-7.20009E-001	-7.19800E-001	10	...........
	393	9.85	-7.29765E-001	-7.54559E-003	0.00000E+000	-7.30008E-001	-7.29803E-001	10	...........
	394	9.875	-7.39765E-001	-7.58064E-003	0.00000E+000	-7.40007E-001	-7.39807E-001	10	...........
	395	9.9	-7.49765E-001	-7.61402E-003	0.00000E+000	-7.50005E-001	-7.49811E-001	10	...........
	396	9.925	-7.59765E-001	-7.64406E-003	0.00000E+000	-7.60004E-001	-7.59814E-001	10	...........
	397	9.95	-7.69765E-001	-7.68078E-003	0.00000E+000	-7.70003E-001	-7.69818E-001	10	...........
	398	9.975	-7.79565E-001	-7.71248E-003	0.00000E+000	-7.80001E-001	-7.79622E-001	10	...........
	399	10	-7.89765E-001	-7.74252E-003	0.00000E+000	-7.90000E-001	-7.89625E-001	10	...........
	400	10.025	-7.99565E-001	-7.78091E-003	0.00000E+000	-7.99999E-001	-7.99629E-001	10	...........
	401	10.05	-7.89765E-001	-7.26021E-003	0.00000E+000	-7.90000E-001	-7.89825E-001	10	...........
	402	10.075	-7.79765E-001	-6.78792E-003	0.00000E+000	-7.80001E-001	-7.79422E-001	10	...........
	403	10.1	-7.69765E-001	-6.34733E-003	0.00000E+000	-7.70003E-001	-7.69818E-001	10	...........
	404	10.125	-7.59765E-001	-5.93678E-003	0.00000E+000	-7.60004E-001	-7.60015E-001	10	...........
	405	10.15	-7.49765E-001	-5.55294E-003	0.00000E+000	-7.50005E-001	-7.49811E-001	10	...........
	406	10.175	-7.39565E-001	-5.18912E-003	0.00000E+000	-7.40007E-001	-7.39607E-001	10	...........
	407	10.2	-7.29765E-001	-4.85033E-003	0.00000E+000	-7.30008E-001	-7.29803E-001	10	...........
	408	10.225	-7.19765E-001	-4.52991E-003	0.00000E+000	-7.20009E-001	-7.19800E-001	10	...........
	409	10.25	-7.09765E-001	-4.22116E-003	0.00000E+000	-7.10010E-001	-7.09596E-001	10	...........
	410	10.275	-6.99765E-001	-3.92577E-003	0.00000E+000	-7.00012E-001	-6.99792E-001	10	...........
	411	10.3	-6.89565E-001	-3.64832E-003	0.00000E+000	-6.90013E-001	-6.89789E-001	9	...........
	412	10.325	-6.79965E-001	-3.38160E-003	0.00000E+000	-6.80014E-001	-6.79785E-001	9	...........
	413	10.35	-6.69765E-001	-3.12854E-003	0.00000E+000	-6.70015E-001	-6.69781E-001	9	...........
	414	10.375	-6.59565E-001	-2.88416E-003	0.00000E+000	-6.60017E-001	-6.59577E-001	9	...........
	415	10.4	-6.49765E-001	-2.65111E-003	0.00000E+000	-6.50018E-001	-6.49774E-001	9	...........
	416	10.425	-6.39765E-001	-2.42773E-003	0.00000E+000	-6.40019E-001	-6.39770E-001	9	...........
	417	10.45	-6.29765E-001	-2.21302E-003	0.00000E+000	-6.30020E-001	-6.29766E-001	9	...........
	418	10.475	-6.19765E-001	-2.00597E-003	0.00000E+000	-6.20022E-001	-6.19963E-001	9	...........
	419	10.5	-6.09765E-001	-1.80627E-003	0.00000E+000	-6.09973E-001	-6.09759E-001	9	...........
	420	10.525	-5.99765E-001	-1.61339E-003	0.00000E+000	-5.99974E-001	-5.99755E-001	9	...........
	421	10.55	-5.89765E-001	-1.42752E-003	0.00000E+000	-5.89975E-001	-5.89952E-001	9	...........
	422	10.575	-5.79765E-001	-1.24732E-003	0.00000E+000	-5.79977E-001	-5.79748E-001	9	...........
	423	10.6	-5.69965E-001	-1.07261E-003	0.00000E+000	-5.69978E-001	-5.69944E-001	9	...........
	424	10.625	-5.59765E-001	-9.04077E-004	0.00000E+000	-5.59979E-001	-5.59741E-001	9	...........
	425	10.65	-5.49965E-001	-7.40209E-004	0.00000E+000	-5.49981E-001	-5.49737E-001	9	...........
	426	10.675	-5.39965E-001	-5.80675E-004	0.00000E+000	-5.39982E-001	-5.39933E-001	9	...........
	427	10.7	-5.29765E-001	-4.25643E-004	0.00000E+000	-5.29983E-001	-5.29930E-001	9	...........
	428	10.725	-5.19965E-001	-2.75111E-004	0.00000E+000	-5.19984E-001	-5.19926E-001	9	...........
	429	10.75	-5.09765E-001	-1.28588E-004	0.00000E+000	-5.09986E-001	-5.09722E-001	8	...........
	430	10.775	-4.99965E-001	1.47527E-005	0.00000E+000	-4.99987E-001	-4.99918E-001	8	...........
	431	10.8	-4.89965E-001	5.47114E-005	0.00000E+000	-4.89988E-001	-4.89715E-001	7	....ih..i..
	432	10.825	-4.79965E-001	2.90833E-004	0.00000E+000	-4.79989E-001	-4.79911E-001	8	...........
	433	10.85	-4.69965E-001	4.23889E-004	0.00000E+000	-4.69991E-001	-4.69707E-001	8	...........
	434	10.875	-4.59965E-001	5.46879E-004	0.00000E+000	-4.59992E-001	-4.59904E-001	8	....ih..i..
	435	10.9	-4.49965E-001	6.82257E-004	0.00000E+000	-4.49993E-001	-4.50100E-001	9	...........
	436	10.925	-4.39965E-001	8.07283E-004	0.00000E+000	-4.39994E-001	-4.40096E-001	9	...........
	437	10.95	-4.29965E-001	9.29642E-004	0.00000E+000	-4.29996E-001	-4.30093E-001	9	...........
	438	10.975	-4.19965E-001	1.04967E-003	0.00000E+000	-4.19997E-001	-4.20089E-001	9	...........
	439	11	-4.09965E-001	1.16653E-003	0.00000E+000	-4.09998E-001	-4.10285E-001	9	...........
	440	11.025	-3.99765E-001	1.28172E-003	0.00000E+000	-3.99999E-001	-4.00081E-001	9	...........
	441	11.05	-3.89965E-001	1.39457E-003	0.00000E+000	-3.90001E-001	-3.90078E-001	9	...........
	442	11.075	-3.79965E-001	1.50560E-003	0.00000E+000	-3.80002E-001	-3.79874E-001	9	...........
	443	11.1	-3.69765E-001	1.61429E-003	0.00000E+000	-3.70003E-001	-3.70070E-001	9	...........
	444	11.125	-3.59965E-001	1.72047E-003	0.00000E+000	-3.60005E-001	-3.60067E-001	9	...........
	445	11.15	-3.49965E-001	1.82550E-003	0.00000E+000	-3.50006E-001	-3.50263E-001	9	...........
	446	11.175	-3.39965E-001	1.92818E-003	0.00000E+000	-3.40007E-001	-3.40059E-001	9	...........
	447	11.2	-3.29965E-001	2.02854E-003	0.00000E+000	-3.30008E-001	-3.30056E-001	9	...........
	448	11.225	-3.20165E-001	2.12923E-003	0.00000E+000	-3.20010E-001	-3.20252E-001	9	...........
	449	11.25	-3.10165E-001	2.22641E-003	0.00000E+000	-3.10011E-001	-3.10248E-001	9	...........
	450	11.275	-3.00165E-001	2.32310E-003	0.00000E+000	-3.00012E-001	-3.00245E-001	9	...........
	451	11.3	-2.90165E-001	2.41762E-003	0.00000E+000	-2.90013E-001	-2.90241E-001	9	...........
	452	11.325	-2.80165E-001	2.50997E-003	0.00000E+000	-2.80015E-001	-2.79837E-001	9	...........
	453	11.35	-2.70165E-001	2.60199E-003	0.00000E+000	-2.70016E-001	-2.70033E-001	9	...........
	454	11.375	-2.59965E-001	2.69135E-003	0.00000E+000	-2.60017E-001	-2.60030E-001	9	...........
	455	11.4	-2.49965E-001	2.78053E-003	0.00000E+000	-2.50018E-001	-2.50026E-001	9	...........
	456	11.425	-2.40165E-001	2.86722E-003	0.00000E+000	-2.40020E-001	-2.40222E-001	9	...........
	457	11.45	-2.29965E-001	2.95423E-003	0.00000E+000	-2.30021E-001	-2.30219E-001	9	...........
	458	11.475	-2.20365E-001	3.03825E-003	0.00000E+000	-2.20022E-001	-2.20215E-001	9	...........
	459	11.5	-2.10165E-001	3.12210E-003	0.00000E+000	-2.09973E-001	-2.10011E-001	9	...........
	460	11.525	-2.00365E-001	3.20362E-003	0.00000E+000	-1.99975E-001	-2.00208E-001	9	...........
	461	11.55	-1.89965E-001	3.28430E-003	0.00000E+000	-1.89976E-001	-1.90204E-001	9	...........
	462	11.575	-1.79965E-001	3.36365E-003	0.00000E+000	-1.79977E-001	-1.80200E-001	9	...........
	463	11.6	-1.70165E-001	3.44200E-003	0.00000E+000	-1.69979E-001	-1.70197E-001	9	...........
	464	11.625	-1.60165E-001	3.52019E-003	0.00000E+000	-1.59980E-001	-1.60193E-001	9	...........
	465	11.65	-1.50165E-001	3.59470E-003	0.00000E+000	-1.49981E-001	-1.50189E-001	9	...........
	466	11.675	-1.40165E-001	3.67005E-003	0.00000E+000	-1.39982E-001	-1.39985E-001	9	...........
	467	11.7	-1.30165E-001	3.74340E-003	0.00000E+000	-1.29984E-001	-1.30182E-001	9	...........
	468	11.725	-1.20165E-001	3.81592E-003	0.00000E+000	-1.19985E-001	-1.20378E-001	9	...........
	469	11.75	-1.10165E-001	3.88793E-003	0.00000E+000	-1.09986E-001	-1.10174E-001	9	...........
	470	11.775	-1.00165E-001	3.95895E-003	0.00000E+000	-9.99874E-002	-1.00171E-001	9	...........
	471	11.8	-9.01651E-002	4.02813E-003	0.00000E+000	-8.99886E-002	-9.03670E-002	9	...........
	472	11.825	-8.01651E-002	4.09597E-003	0.00000E+000	-7.99899E-002	-8.01632E-002	9	...........
	473	11.85	-7.03651E-002	4.16499E-003	0.00000E+000	-6.99912E-002	-7.01595E-002	9	...........
	474	11.875	-6.01651E-002	4.23150E-003	0.00000E+000	-5.99924E-002	-6.01558E-002	9	...........
	475	11.9	-5.03651E-002	4.29702E-003	0.00000E+000	-4.99937E-002	-5.03522E-002	9	...........
	476	11.925	-4.01651E-002	4.36320E-003	0.00000E+000	-3.99949E-002	-4.01484E-002	9	...........
	477	11.95	-3.01651E-002	4.42838E-003	0.00000E+000	-2.99962E-002	-3.03448E-002	9	...........
	478	11.975	-2.01651E-002	4.49172E-003	0.00000E+000	-1.99975E-002	-2.03411E-002	9	...........
	479	12	-1.01651E-002	4.55220E-003	0.00000E+000	-9.99874E-003	-1.03374E-002	10	...........
	480	12.025	-3.65120E-004	4.61228E-003	0.00000E+000	0.00000E+000	-3.33723E-004	10	...........
	481	12.05	9.83488E-003	4.67236E-003	0.00000E+000	9.99874E-003	9.66997E-003	10	...........
	482	12.075	1.98349E-002	4.73411E-003	0.00000E+000	1.99975E-002	1.96737E-002	10	...........
	483	12.1	2.96349E-002	4.79252E-003	0.00000E+000	2.99962E-002	2.96774E-002	10	...........
	484	12.125	3.96349E-002	4.85427E-003	0.00000E+000	3.99949E-002	3.94810E-002	10	...........
	485	12.15	4.96349E-002	4.91101E-003	0.00000E+000	4.99937E-002	4.94847E-002	10	...........
	486	12.175	5.96349E-002	4.96609E-003	0.00000E+000	5.99924E-002	5.96885E-002	10	...........
	487	12.2	6.98349E-002	5.02450E-003	0.00000E+000	6.99912E-002	6.94921E-002	10	...........
	488	12.225	7.96349E-002	5.07790E-003	0.00000E+000	7.99899E-002	7.96959E-002	10	...........
	489	12.25	8.98349E-002	5.13465E-003	0.00000E+000	8.99886E-002	8.94995E-002	10	...........
	490	12.275	9.96349E-002	5.18805E-003	0.00000E+000	9.99874E-002	9.95032E-002	10	...........
	491	12.3	1.09835E-001	5.23979E-003	0.00000E+000	1.09986E-001	1.09707E-001	10	...........
	492	12.325	1.19635E-001	5.29319E-003	0.00000E+000	1.19985E-001	1.19511E-001	10	...........
	493	12.35	1.29635E-001	5.34660E-003	0.00000E+000	1.29984E-001	1.29514E-001	10	...........
	494	12.375	1.39835E-001	5.39666E-003	0.00000E+000	1.39982E-001	1.39518E-001	10	...........
	495	12.4	1.49435E-001	5.44840E-003	0.00000E+000	1.49981E-001	1.49522E-001	10	...........
	496	12.425	1.59635E-001	5.49846E-003	0.00000E+000	1.59980E-001	1.59725E-001	10	...........
	497	12.45	1.69635E-001	5.54853E-003	0.00000E+000	1.69979E-001	1.69729E-001	10	...........
	498	12.475	1.79635E-001	5.59693E-003	0.00000E+000	1.79977E-001	1.79333E-001	10	...........
	499	12.5	1.89435E-001	5.64366E-003	0.00000E+000	1.90026E-001	1.89336E-001	10	...........
	500	12.525	1.99635E-001	5.69039E-003	0.00000E+000	2.00025E-001	1.99540E-001	10	...........
	501	12.55	2.09635E-001	5.73712E-003	0.00000E+000	2.10023E-001	2.09744E-001	10	...........
	502	12.575	2.19835E-001	5.78218E-003	0.00000E+000	2.20022E-001	2.19347E-001	10	...........
	503	12.6	2.29435E-001	5.82724E-003	0.00000E+000	2.30021E-001	2.29351E-001	10	...........
	504	12.625	2.39435E-001	5.87063E-003	0.00000E+000	2.40020E-001	2.39555E-001	10	...........
	505	12.65	2.49635E-001	5.91569E-003	0.00000E+000	2.50018E-001	2.49559E-001	10	...........
	506	12.675	2.59635E-001	5.95741E-003	0.00000E+000	2.60017E-001	2.59562E-001	10	...........
	507	12.7	2.69635E-001	5.99913E-003	0.00000E+000	2.70016E-001	2.69566E-001	10	...........
	508	12.725	2.79635E-001	6.04252E-003	0.00000E+000	2.80015E-001	2.79370E-001	10	...........
	509	12.75	2.89635E-001	6.08258E-003	0.00000E+000	2.90013E-001	2.89373E-001	10	...........
	510	12.775	2.99635E-001	6.12096E-003	0.00000E+000	3.00012E-001	2.99377E-001	10	...........
	511	12.8	3.09635E-001	6.15935E-003	0.00000E+000	3.10011E-001	3.09381E-001	10	...........
	512	12.825	3.19435E-001	6.19940E-003	0.00000E+000	3.20010E-001	3.19585E-001	10	...........
	513	12.85	3.29635E-001	6.23611E-003	0.00000E+000	3.30008E-001	3.29388E-001	10	...........
	514	12.875	3.39635E-001	6.27283E-003	0.00000E+000	3.40007E-001	3.39592E-001	10	...........
	515	12.9	3.49435E-001	6.30621E-003	0.00000E+000	3.50006E-001	3.49396E-001	10	...........
	516	12.925	3.59435E-001	6.34125E-003	0.00000E+000	3.60005E-001	3.59399E-001	10	...........
	517	12.95	3.69435E-001	6.37463E-003	0.00000E+000	3.70003E-001	3.69603E-001	10	...........
	518	12.975	3.79635E-001	6.40801E-003	0.00000E+000	3.80002E-001	3.79407E-001	10	...........
	519	13	3.89435E-001	6.44139E-003	0.00000E+000	3.90001E-001	3.89210E-001	10	...........
	520	13.025	3.99635E-001	6.46809E-003	0.00000E+000	3.99999E-001	3.99214E-001	10	...........
	521	13.05	4.09435E-001	6.50314E-003	0.00000E+000	4.09998E-001	4.09618E-001	10	...........
	522	13.075	4.19435E-001	6.52984E-003	0.00000E+000	4.19997E-001	4.19421E-001	10	...........
	523	13.1	4.29235E-001	6.55821E-003	0.00000E+000	4.29996E-001	4.29425E-001	10	...........
	524	13.125	4.39435E-001	6.58992E-003	0.00000E+000	4.39994E-001	4.39429E-001	10	...........
	525	13.15	4.49435E-001	6.61495E-003	0.00000E+000	4.49993E-001	4.49232E-001	10	...........
	526	13.175	4.59635E-001	6.63665E-003	0.00000E+000	4.59992E-001	4.59636E-001	10	...........
	527	13.2	4.69235E-001	6.66502E-003	0.00000E+000	4.69991E-001	4.69440E-001	10	...........
	528	13.225	4.79235E-001	6.69005E-003	0.00000E+000	4.79989E-001	4.79244E-001	10	...........
	529	13.25	4.89435E-001	6.71008E-003	0.00000E+000	4.89988E-001	4.89247E-001	10	...........
	530	13.275	4.99435E-001	6.73178E-003	0.00000E+000	4.99987E-001	4.99251E-001	10	...........
	531	13.3	5.09435E-001	6.75347E-003	0.00000E+000	5.09986E-001	5.09455E-001	10	...........
	532	13.325	5.19235E-001	6.77684E-003	0.00000E+000	5.19984E-001	5.19058E-001	10	...........
	533	13.35	5.29435E-001	6.79519E-003	0.00000E+000	5.29983E-001	5.29062E-001	10	...........
	534	13.375	5.39435E-001	6.81355E-003	0.00000E+000	5.39982E-001	5.39266E-001	10	...........
	535	13.4	5.49235E-001	6.83191E-003	0.00000E+000	5.49981E-001	5.49269E-001	10	...........
	536	13.425	5.59435E-001	6.84860E-003	0.00000E+000	5.59979E-001	5.59073E-001	10	...........
	537	13.45	5.69235E-001	6.86529E-003	0.00000E+000	5.69978E-001	5.69277E-001	10	...........
	538	13.475	5.79235E-001	6.87864E-003	0.00000E+000	5.79977E-001	5.79280E-001	10	...........
	539	13.5	5.89435E-001	6.89533E-003	0.00000E+000	5.89975E-001	5.89084E-001	10	...........
	540	13.525	5.99435E-001	6.90701E-003	0.00000E+000	6.00024E-001	5.99288E-001	10	...........
	541	13.55	6.09435E-001	6.91869E-003	0.00000E+000	6.10023E-001	6.09092E-001	10	...........
	542	13.575	6.19435E-001	6.93037E-003	0.00000E+000	6.20022E-001	6.19295E-001	10	...........
	543	13.6	6.29435E-001	6.94372E-003	0.00000E+000	6.30020E-001	6.29299E-001	10	...........
	544	13.625	6.39435E-001	6.95207E-003	0.00000E+000	6.40019E-001	6.39303E-001	10	...........
	545	13.65	6.49435E-001	6.96041E-003	0.00000E+000	6.50018E-001	6.49106E-001	10	...........
	546	13.675	6.59235E-001	6.96876E-003	0.00000E+000	6.60017E-001	6.59110E-001	10	...........
	547	13.7	6.69435E-001	6.97543E-003	0.00000E+000	6.70015E-001	6.69114E-001	10	...........
	548	13.725	6.79235E-001	6.98044E-003	0.00000E+000	6.80014E-001	6.79117E-001	10	...........
	549	13.75	6.89235E-001	6.98878E-003	0.00000E+000	6.90013E-001	6.89121E-001	10	...........
	550	13.775	6.99235E-001	6.99212E-003	0.00000E+000	7.00012E-001	6.98925E-001	10	...........
	551	13.8	7.09235E-001	6.99713E-003	0.00000E+000	7.10010E-001	7.09329E-001	10	...........
	552	13.825	7.19435E-001	6.99880E-003	0.00000E+000	7.20009E-001	7.19132E-001	10	...........
	553	13.85	7.29235E-001	7.00047E-003	0.00000E+000	7.30008E-001	7.29136E-001	10	...........
	554	13.875	7.39435E-001	7.00214E-003	0.00000E+000	7.40007E-001	7.38940E-001	10	...........
	555	13.9	7.49235E-001	7.00380E-003	0.00000E+000	7.50005E-001	7.49143E-001	10	...........
	556	13.925	7.59235E-001	7.00380E-003	0.00000E+000	7.60004E-001	7.59147E-001	10	...........
	557	13.95	7.69235E-001	7.00547E-003	0.00000E+000	7.70003E-001	7.68951E-001	10	...........
	558	13.975	7.79235E-001	7.00214E-003	0.00000E+000	7.80001E-001	7.79154E-001	10	...........
	559	14	7.89235E-001	7.00047E-003	0.00000E+000	7.90000E-001	7.89158E-001	10	...........
	560	14.025	7.99235E-001	7.00214E-003	0.00000E+000	7.99999E-001	7.98962E-001	10	...........
CURVE3	TABLE
	Pt	T	Vf	Im	Vu	Sig	Ach	IERange	Over
	#	s	V vs. Ref.	A	V	V	V	#	bits
	561	14.05	7.89235E-001	6.52817E-003	0.00000E+000	7.90000E-001	7.89158E-001	10	...........
	562	14.075	7.79235E-001	6.10093E-003	0.00000E+000	7.80001E-001	7.78954E-001	10	...........
	563	14.1	7.69235E-001	5.70040E-003	0.00000E+000	7.70003E-001	7.69151E-001	10	...........
	564	14.125	7.59235E-001	5.32657E-003	0.00000E+000	7.60004E-001	7.58947E-001	10	...........
	565	14.15	7.49235E-001	4.97777E-003	0.00000E+000	7.50005E-001	7.49143E-001	10	...........
	566	14.175	7.39435E-001	4.64566E-003	0.00000E+000	7.40007E-001	7.39140E-001	10	...........
	567	14.2	7.29435E-001	4.33692E-003	0.00000E+000	7.30008E-001	7.28936E-001	10	...........
	568	14.225	7.19435E-001	4.04319E-003	0.00000E+000	7.20009E-001	7.19132E-001	10	...........
	569	14.25	7.09435E-001	3.76115E-003	0.00000E+000	7.10010E-001	7.09129E-001	10	...........
	570	14.275	6.99435E-001	3.49835E-003	0.00000E+000	7.00012E-001	6.99125E-001	9	...........
	571	14.3	6.89435E-001	3.24546E-003	0.00000E+000	6.90013E-001	6.89121E-001	9	...........
	572	14.325	6.79235E-001	3.00274E-003	0.00000E+000	6.80014E-001	6.79117E-001	9	...........
	573	14.35	6.69235E-001	2.77053E-003	0.00000E+000	6.70015E-001	6.69114E-001	9	...........
	574	14.375	6.59435E-001	2.54982E-003	0.00000E+000	6.60017E-001	6.59310E-001	9	...........
	575	14.4	6.49435E-001	2.33794E-003	0.00000E+000	6.50018E-001	6.49106E-001	9	...........
	576	14.425	6.39235E-001	2.13256E-003	0.00000E+000	6.40019E-001	6.39303E-001	9	...........
	577	14.45	6.29435E-001	1.93669E-003	0.00000E+000	6.30020E-001	6.29299E-001	9	...........
	578	14.475	6.19435E-001	1.74815E-003	0.00000E+000	6.20022E-001	6.19295E-001	9	...........
	579	14.5	6.09435E-001	1.56628E-003	0.00000E+000	6.10023E-001	6.09092E-001	9	...........
	580	14.525	5.99435E-001	1.39024E-003	0.00000E+000	6.00024E-001	5.99288E-001	9	...........
	581	14.55	5.89235E-001	1.21954E-003	0.00000E+000	5.89975E-001	5.89084E-001	9	...........
	582	14.575	5.79435E-001	1.05567E-003	0.00000E+000	5.79977E-001	5.79280E-001	9	...........
	583	14.6	5.69435E-001	8.96802E-004	0.00000E+000	5.69978E-001	5.69077E-001	9	...........
	584	14.625	5.59235E-001	7.42603E-004	0.00000E+000	5.59979E-001	5.59073E-001	9	...........
	585	14.65	5.49435E-001	5.93071E-004	0.00000E+000	5.49981E-001	5.49069E-001	9	...........
	586	14.675	5.39435E-001	4.48374E-004	0.00000E+000	5.39982E-001	5.39066E-001	9	...........
	587	14.7	5.29435E-001	3.07178E-004	0.00000E+000	5.29983E-001	5.29062E-001	9	...........
	588	14.725	5.19235E-001	1.69446E-004	0.00000E+000	5.19984E-001	5.19258E-001	8	...........
	589	14.75	5.09435E-001	3.51703E-005	0.00000E+000	5.09986E-001	5.09055E-001	8	...........
	590	14.775	4.99235E-001	-5.47442E-005	0.00000E+000	4.99987E-001	4.99251E-001	7	....ih..i..
	591	14.8	4.89235E-001	-2.22128E-004	0.00000E+000	4.89988E-001	4.89447E-001	8	...........
	592	14.825	4.79435E-001	-3.46336E-004	0.00000E+000	4.79989E-001	4.79244E-001	8	...........
	593	14.85	4.69435E-001	-4.67823E-004	0.00000E+000	4.69991E-001	4.69440E-001	8	...........
	594	14.875	4.59435E-001	-5.86177E-004	0.00000E+000	4.59992E-001	4.59236E-001	9	...........
	595	14.9	4.49635E-001	-7.02034E-004	0.00000E+000	4.49993E-001	4.49232E-001	9	...........
	596	14.925	4.39435E-001	-8.16058E-004	0.00000E+000	4.39994E-001	4.39429E-001	9	...........
	597	14.95	4.29435E-001	-9.27415E-004	0.00000E+000	4.29996E-001	4.29225E-001	9	...........
	598	14.975	4.19235E-001	-1.03660E-003	0.00000E+000	4.19997E-001	4.19421E-001	9	...........
	599	15	4.09435E-001	-1.14363E-003	0.00000E+000	4.09998E-001	4.09418E-001	9	...........
	600	15.025	3.99635E-001	-1.24848E-003	0.00000E+000	3.99999E-001	3.99214E-001	9	...........
	601	15.05	3.89635E-001	-1.35084E-003	0.00000E+000	3.90001E-001	3.89210E-001	9	...........
	602	15.075	3.79435E-001	-1.45169E-003	0.00000E+000	3.80002E-001	3.79207E-001	9	...........
	603	15.1	3.69435E-001	-1.55121E-003	0.00000E+000	3.70003E-001	3.69403E-001	9	...........
	604	15.125	3.59635E-001	-1.64857E-003	0.00000E+000	3.60005E-001	3.59199E-001	9	...........
	605	15.15	3.49435E-001	-1.74442E-003	0.00000E+000	3.50006E-001	3.49396E-001	9	...........
	606	15.175	3.39635E-001	-1.83777E-003	0.00000E+000	3.40007E-001	3.39392E-001	9	...........
	607	15.2	3.29635E-001	-1.93013E-003	0.00000E+000	3.30008E-001	3.29388E-001	9	...........
	608	15.225	3.19435E-001	-2.02131E-003	0.00000E+000	3.20010E-001	3.19384E-001	9	...........
	609	15.25	3.09635E-001	-2.11066E-003	0.00000E+000	3.10011E-001	3.09381E-001	9	...........
	610	15.275	2.99635E-001	-2.19802E-003	0.00000E+000	3.00012E-001	2.99377E-001	9	...........
	611	15.3	2.89635E-001	-2.28470E-003	0.00000E+000	2.90013E-001	2.89373E-001	9	...........
	612	15.325	2.79635E-001	-2.37022E-003	0.00000E+000	2.80015E-001	2.79370E-001	9	...........
	613	15.35	2.69635E-001	-2.45474E-003	0.00000E+000	2.70016E-001	2.69366E-001	9	...........
	614	15.375	2.59835E-001	-2.53692E-003	0.00000E+000	2.60017E-001	2.59562E-001	9	...........
	615	15.4	2.49435E-001	-2.61794E-003	0.00000E+000	2.50018E-001	2.49559E-001	9	...........
	616	15.425	2.39635E-001	-2.69779E-003	0.00000E+000	2.40020E-001	2.39555E-001	9	...........
	617	15.45	2.29635E-001	-2.77780E-003	0.00000E+000	2.30021E-001	2.29351E-001	9	...........
	618	15.475	2.19435E-001	-2.85499E-003	0.00000E+000	2.20022E-001	2.19347E-001	9	...........
	619	15.5	2.09635E-001	-2.93250E-003	0.00000E+000	2.10023E-001	2.09344E-001	9	...........
	620	15.525	1.99635E-001	-3.00635E-003	0.00000E+000	2.00025E-001	1.99540E-001	9	...........
	621	15.55	1.89635E-001	-3.08270E-003	0.00000E+000	1.90026E-001	1.89336E-001	9	...........
	622	15.575	1.79635E-001	-3.15655E-003	0.00000E+000	1.79977E-001	1.79533E-001	9	...........
	623	15.6	1.69635E-001	-3.22957E-003	0.00000E+000	1.69979E-001	1.69529E-001	9	...........
	624	15.625	1.59635E-001	-3.30091E-003	0.00000E+000	1.59980E-001	1.59725E-001	9	...........
	625	15.65	1.49435E-001	-3.37143E-003	0.00000E+000	1.49981E-001	1.49722E-001	9	...........
	626	15.675	1.39635E-001	-3.44178E-003	0.00000E+000	1.39982E-001	1.39518E-001	9	...........
	627	15.7	1.29835E-001	-3.51279E-003	0.00000E+000	1.29984E-001	1.29514E-001	9	...........
	628	15.725	1.19835E-001	-3.57897E-003	0.00000E+000	1.19985E-001	1.19511E-001	9	...........
	629	15.75	1.09635E-001	-3.64782E-003	0.00000E+000	1.09986E-001	1.09507E-001	9	...........
	630	15.775	9.96349E-002	-3.71433E-003	0.00000E+000	9.99874E-002	9.95032E-002	9	...........
	631	15.8	8.96349E-002	-3.78018E-003	0.00000E+000	8.99886E-002	8.96996E-002	9	...........
	632	15.825	7.96349E-002	-3.84386E-003	0.00000E+000	7.99899E-002	7.94958E-002	9	...........
	633	15.85	6.96349E-002	-3.90854E-003	0.00000E+000	6.99912E-002	6.96922E-002	9	...........
	634	15.875	5.98349E-002	-3.97272E-003	0.00000E+000	5.99924E-002	5.96885E-002	9	...........
	635	15.9	4.98349E-002	-4.03690E-003	0.00000E+000	4.99937E-002	4.96848E-002	9	...........
	636	15.925	3.98349E-002	-4.09841E-003	0.00000E+000	3.99949E-002	3.96811E-002	9	...........
	637	15.95	2.96349E-002	-4.15943E-003	0.00000E+000	2.99962E-002	2.96774E-002	9	...........
	638	15.975	1.98349E-002	-4.22111E-003	0.00000E+000	1.99975E-002	1.98737E-002	9	...........
	639	16	9.83488E-003	-4.28162E-003	0.00000E+000	9.99874E-003	9.46990E-003	9	...........
	640	16.025	-1.65120E-004	-4.34047E-003	0.00000E+000	0.00000E+000	-3.33723E-004	9	...........
	641	16.05	-1.01651E-002	-4.39948E-003	0.00000E+000	-9.99874E-003	-1.03374E-002	9	...........
	642	16.075	-2.01651E-002	-4.45882E-003	0.00000E+000	-1.99975E-002	-2.03411E-002	9	...........
	643	16.1	-3.03651E-002	-4.51989E-003	0.00000E+000	-2.99962E-002	-3.03448E-002	10	...........
	644	16.125	-4.03651E-002	-4.57330E-003	0.00000E+000	-3.99949E-002	-4.03485E-002	10	...........
	645	16.15	-5.01651E-002	-4.63004E-003	0.00000E+000	-4.99937E-002	-5.03522E-002	10	...........
	646	16.175	-6.01651E-002	-4.68678E-003	0.00000E+000	-5.99924E-002	-6.01558E-002	10	...........
	647	16.2	-7.01651E-002	-4.74353E-003	0.00000E+000	-6.99912E-002	-7.03596E-002	10	...........
	648	16.225	-8.03651E-002	-4.79860E-003	0.00000E+000	-7.99899E-002	-8.01632E-002	10	...........
	649	16.25	-9.01651E-002	-4.85367E-003	0.00000E+000	-8.99886E-002	-9.03670E-002	10	...........
	650	16.275	-1.00165E-001	-4.90708E-003	0.00000E+000	-9.99874E-002	-1.00171E-001	10	...........
	651	16.3	-1.10165E-001	-4.96048E-003	0.00000E+000	-1.09986E-001	-1.10174E-001	10	...........
	652	16.325	-1.20165E-001	-5.01389E-003	0.00000E+000	-1.19985E-001	-1.20178E-001	10	...........
	653	16.35	-1.29965E-001	-5.06562E-003	0.00000E+000	-1.29984E-001	-1.29782E-001	10	...........
	654	16.375	-1.39965E-001	-5.11736E-003	0.00000E+000	-1.39982E-001	-1.39985E-001	10	...........
	655	16.4	-1.49965E-001	-5.16909E-003	0.00000E+000	-1.49981E-001	-1.50189E-001	10	...........
	656	16.425	-1.60365E-001	-5.22083E-003	0.00000E+000	-1.59980E-001	-1.59993E-001	10	...........
	657	16.45	-1.70165E-001	-5.26923E-003	0.00000E+000	-1.69979E-001	-1.69996E-001	10	...........
	658	16.475	-1.80165E-001	-5.32096E-003	0.00000E+000	-1.79977E-001	-1.80000E-001	10	...........
	659	16.5	-1.90165E-001	-5.37103E-003	0.00000E+000	-1.89976E-001	-1.90204E-001	10	...........
	660	16.525	-2.00165E-001	-5.41776E-003	0.00000E+000	-1.99975E-001	-2.00008E-001	10	...........
	661	16.55	-2.09965E-001	-5.46782E-003	0.00000E+000	-2.09973E-001	-2.10011E-001	10	...........
	662	16.575	-2.20165E-001	-5.51622E-003	0.00000E+000	-2.20022E-001	-2.20215E-001	10	...........
	663	16.6	-2.30165E-001	-5.56629E-003	0.00000E+000	-2.30021E-001	-2.30219E-001	10	...........
	664	16.625	-2.40165E-001	-5.61302E-003	0.00000E+000	-2.40020E-001	-2.40022E-001	10	...........
	665	16.65	-2.50165E-001	-5.65808E-003	0.00000E+000	-2.50018E-001	-2.50226E-001	10	...........
	666	16.675	-2.59965E-001	-5.70648E-003	0.00000E+000	-2.60017E-001	-2.60230E-001	10	...........
	667	16.7	-2.69965E-001	-5.74987E-003	0.00000E+000	-2.70016E-001	-2.70033E-001	10	...........
	668	16.725	-2.79965E-001	-5.79493E-003	0.00000E+000	-2.80015E-001	-2.80237E-001	10	...........
	669	16.75	-2.90165E-001	-5.84333E-003	0.00000E+000	-2.90013E-001	-2.90041E-001	10	...........
	670	16.775	-3.00165E-001	-5.88838E-003	0.00000E+000	-3.00012E-001	-3.00245E-001	10	...........
	671	16.8	-3.09965E-001	-5.93011E-003	0.00000E+000	-3.10011E-001	-3.10048E-001	10	...........
	672	16.825	-3.19965E-001	-5.97350E-003	0.00000E+000	-3.20010E-001	-3.20252E-001	10	...........
	673	16.85	-3.29965E-001	-6.01522E-003	0.00000E+000	-3.30008E-001	-3.30256E-001	10	...........
	674	16.875	-3.39965E-001	-6.06028E-003	0.00000E+000	-3.40007E-001	-3.40059E-001	10	...........
	675	16.9	-3.50165E-001	-6.09867E-003	0.00000E+000	-3.50006E-001	-3.50063E-001	10	...........
	676	16.925	-3.60165E-001	-6.14039E-003	0.00000E+000	-3.60005E-001	-3.60067E-001	10	...........
	677	16.95	-3.69965E-001	-6.18378E-003	0.00000E+000	-3.70003E-001	-3.70270E-001	10	...........
	678	16.975	-3.79965E-001	-6.22884E-003	0.00000E+000	-3.80002E-001	-3.79874E-001	10	...........
	679	17	-3.89965E-001	-6.26556E-003	0.00000E+000	-3.90001E-001	-3.90078E-001	10	...........
	680	17.025	-3.99965E-001	-6.30895E-003	0.00000E+000	-3.99999E-001	-4.00081E-001	10	...........
	681	17.05	-4.09765E-001	-6.34900E-003	0.00000E+000	-4.09998E-001	-4.10085E-001	10	...........
	682	17.075	-4.19765E-001	-6.38905E-003	0.00000E+000	-4.19997E-001	-4.20089E-001	10	...........
	683	17.1	-4.29965E-001	-6.43411E-003	0.00000E+000	-4.29996E-001	-4.30093E-001	10	...........
	684	17.125	-4.40165E-001	-6.46916E-003	0.00000E+000	-4.39994E-001	-4.40096E-001	10	...........
	685	17.15	-4.50165E-001	-6.51088E-003	0.00000E+000	-4.49993E-001	-4.49900E-001	10	...........
	686	17.175	-4.59965E-001	-6.55094E-003	0.00000E+000	-4.59992E-001	-4.59904E-001	10	...........
	687	17.2	-4.69965E-001	-6.59099E-003	0.00000E+000	-4.69991E-001	-4.69707E-001	10	...........
	688	17.225	-4.79965E-001	-6.62770E-003	0.00000E+000	-4.79989E-001	-4.79711E-001	10	...........
	689	17.25	-4.89965E-001	-6.66442E-003	0.00000E+000	-4.89988E-001	-4.89915E-001	10	...........
	690	17.275	-4.99765E-001	-6.70614E-003	0.00000E+000	-4.99987E-001	-4.99718E-001	10	...........
	691	17.3	-5.10165E-001	-6.74453E-003	0.00000E+000	-5.09986E-001	-5.09722E-001	10	...........
	692	17.325	-5.19965E-001	-6.77790E-003	0.00000E+000	-5.19984E-001	-5.19726E-001	10	...........
	693	17.35	-5.29965E-001	-6.81629E-003	0.00000E+000	-5.29983E-001	-5.29930E-001	10	...........
	694	17.375	-5.39765E-001	-6.85467E-003	0.00000E+000	-5.39982E-001	-5.39733E-001	10	...........
	695	17.4	-5.49765E-001	-6.89139E-003	0.00000E+000	-5.49981E-001	-5.49737E-001	10	...........
	696	17.425	-5.59765E-001	-6.92810E-003	0.00000E+000	-5.59979E-001	-5.59741E-001	10	...........
	697	17.45	-5.69765E-001	-6.96649E-003	0.00000E+000	-5.69978E-001	-5.69744E-001	10	...........
	698	17.475	-5.79765E-001	-6.99987E-003	0.00000E+000	-5.79977E-001	-5.79748E-001	10	...........
	699	17.5	-5.89765E-001	-7.03825E-003	0.00000E+000	-5.89975E-001	-5.89952E-001	10	...........
	700	17.525	-5.99765E-001	-7.07497E-003	0.00000E+000	-5.99974E-001	-5.99755E-001	10	...........
	701	17.55	-6.09965E-001	-7.11168E-003	0.00000E+000	-6.09973E-001	-6.09559E-001	10	...........
	702	17.575	-6.19965E-001	-7.15007E-003	0.00000E+000	-6.20022E-001	-6.19763E-001	10	...........
	703	17.6	-6.29765E-001	-7.18345E-003	0.00000E+000	-6.30020E-001	-6.29966E-001	10	...........
	704	17.625	-6.39965E-001	-7.21682E-003	0.00000E+000	-6.40019E-001	-6.39770E-001	10	...........
	705	17.65	-6.49965E-001	-7.25354E-003	0.00000E+000	-6.50018E-001	-6.49774E-001	10	...........
	706	17.675	-6.59965E-001	-7.28859E-003	0.00000E+000	-6.60017E-001	-6.59577E-001	10	...........
	707	17.7	-6.69965E-001	-7.32363E-003	0.00000E+000	-6.70015E-001	-6.69781E-001	10	...........
	708	17.725	-6.79765E-001	-7.35701E-003	0.00000E+000	-6.80014E-001	-6.79785E-001	10	...........
	709	17.75	-6.89765E-001	-7.39039E-003	0.00000E+000	-6.90013E-001	-6.89789E-001	10	...........
	710	17.775	-6.99765E-001	-7.42377E-003	0.00000E+000	-7.00012E-001	-6.99792E-001	10	...........
	711	17.8	-7.09965E-001	-7.45714E-003	0.00000E+000	-7.10010E-001	-7.09796E-001	10	...........
	712	17.825	-7.19765E-001	-7.49219E-003	0.00000E+000	-7.20009E-001	-7.19800E-001	10	...........
	713	17.85	-7.29765E-001	-7.53057E-003	0.00000E+000	-7.30008E-001	-7.29803E-001	10	...........
	714	17.875	-7.39965E-001	-7.56061E-003	0.00000E+000	-7.40007E-001	-7.39807E-001	10	...........
	715	17.9	-7.49765E-001	-7.59399E-003	0.00000E+000	-7.50005E-001	-7.49611E-001	10	...........
	716	17.925	-7.59765E-001	-7.62737E-003	0.00000E+000	-7.60004E-001	-7.59814E-001	10	...........
	717	17.95	-7.69765E-001	-7.65908E-003	0.00000E+000	-7.70003E-001	-7.69818E-001	10	...........
	718	17.975	-7.79565E-001	-7.69413E-003	0.00000E+000	-7.80001E-001	-7.79622E-001	10	...........
	719	18	-7.89765E-001	-7.72584E-003	0.00000E+000	-7.90000E-001	-7.89625E-001	10	...........
	720	18.025	-7.99765E-001	-7.76088E-003	0.00000E+000	-7.99999E-001	-7.99629E-001	10	...........
	721	18.05	-7.89765E-001	-7.23685E-003	0.00000E+000	-7.90000E-001	-7.89625E-001	10	...........
	722	18.075	-7.79565E-001	-6.76622E-003	0.00000E+000	-7.80001E-001	-7.79822E-001	10	...........
	723	18.1	-7.69765E-001	-6.33064E-003	0.00000E+000	-7.70003E-001	-7.69818E-001	10	...........
	724	18.125	-7.59765E-001	-5.92343E-003	0.00000E+000	-7.60004E-001	-7.59614E-001	10	...........
	725	18.15	-7.49765E-001	-5.53792E-003	0.00000E+000	-7.50005E-001	-7.49811E-001	10	...........
	726	18.175	-7.39765E-001	-5.17744E-003	0.00000E+000	-7.40007E-001	-7.39607E-001	10	...........
	727	18.2	-7.29765E-001	-4.83698E-003	0.00000E+000	-7.30008E-001	-7.29603E-001	10	...........
	728	18.225	-7.19765E-001	-4.51322E-003	0.00000E+000	-7.20009E-001	-7.19800E-001	10	...........
	729	18.25	-7.09965E-001	-4.20781E-003	0.00000E+000	-7.10010E-001	-7.09596E-001	10	...........
	730	18.275	-6.99765E-001	-3.91409E-003	0.00000E+000	-7.00012E-001	-6.99592E-001	10	...........
	731	18.3	-6.89765E-001	-3.63598E-003	0.00000E+000	-6.90013E-001	-6.89989E-001	9	...........
	732	18.325	-6.79965E-001	-3.36926E-003	0.00000E+000	-6.80014E-001	-6.79785E-001	9	...........
	733	18.35	-6.69765E-001	-3.11671E-003	0.00000E+000	-6.70015E-001	-6.69781E-001	9	...........
	734	18.375	-6.59765E-001	-2.87332E-003	0.00000E+000	-6.60017E-001	-6.59777E-001	9	...........
	735	18.4	-6.49765E-001	-2.64044E-003	0.00000E+000	-6.50018E-001	-6.49974E-001	9	...........
	736	18.425	-6.39765E-001	-2.41823E-003	0.00000E+000	-6.40019E-001	-6.39770E-001	9	...........
	737	18.45	-6.29765E-001	-2.20302E-003	0.00000E+000	-6.30020E-001	-6.29766E-001	9	...........
	738	18.475	-6.19765E-001	-1.99481E-003	0.00000E+000	-6.20022E-001	-6.19763E-001	9	...........
	739	18.5	-6.09965E-001	-1.79610E-003	0.00000E+000	-6.09973E-001	-6.09959E-001	9	...........
	740	18.525	-5.99765E-001	-1.60339E-003	0.00000E+000	-5.99974E-001	-5.99755E-001	9	...........
	741	18.55	-5.89765E-001	-1.41768E-003	0.00000E+000	-5.89975E-001	-5.89952E-001	9	...........
	742	18.575	-5.79765E-001	-1.23781E-003	0.00000E+000	-5.79977E-001	-5.79748E-001	9	...........
	743	18.6	-5.69965E-001	-1.06328E-003	0.00000E+000	-5.69978E-001	-5.69744E-001	9	...........
	744	18.625	-5.59765E-001	-8.95075E-004	0.00000E+000	-5.59979E-001	-5.59741E-001	9	...........
	745	18.65	-5.49965E-001	-7.31374E-004	0.00000E+000	-5.49981E-001	-5.49737E-001	9	...........
	746	18.675	-5.39965E-001	-5.72340E-004	0.00000E+000	-5.39982E-001	-5.39733E-001	9	...........
	747	18.7	-5.29965E-001	-4.17975E-004	0.00000E+000	-5.29983E-001	-5.29930E-001	9	...........
	748	18.725	-5.19765E-001	-2.66776E-004	0.00000E+000	-5.19984E-001	-5.19926E-001	9	...........
	749	18.75	-5.09965E-001	-1.20207E-004	0.00000E+000	-5.09986E-001	-5.10122E-001	8	...........
	750	18.775	-4.99965E-001	2.28664E-005	0.00000E+000	-4.99987E-001	-5.00118E-001	8	...........
	751	18.8	-4.89965E-001	5.47114E-005	0.00000E+000	-4.89988E-001	-4.89915E-001	7	....ih..i..
	752	18.825	-4.79965E-001	2.98379E-004	0.00000E+000	-4.79989E-001	-4.79711E-001	8	...........
	753	18.85	-4.69965E-001	4.31552E-004	0.00000E+000	-4.69991E-001	-4.69907E-001	8	...........
	754	18.875	-4.59965E-001	5.46879E-004	0.00000E+000	-4.59992E-001	-4.59904E-001	8	....ih..i..
	755	18.9	-4.49965E-001	6.88758E-004	0.00000E+000	-4.49993E-001	-4.50100E-001	9	...........
	756	18.925	-4.39965E-001	8.14451E-004	0.00000E+000	-4.39994E-001	-4.39896E-001	9	...........
	757	18.95	-4.30165E-001	9.36143E-004	0.00000E+000	-4.29996E-001	-4.29893E-001	9	...........
	758	18.975	-4.19965E-001	1.05567E-003	0.00000E+000	-4.19997E-001	-4.20089E-001	9	...........
	759	19	-4.09965E-001	1.17236E-003	0.00000E+000	-4.09998E-001	-4.10085E-001	9	...........
	760	19.025	-3.99965E-001	1.28655E-003	0.00000E+000	-3.99999E-001	-3.99881E-001	9	...........
	761	19.05	-3.89965E-001	1.40007E-003	0.00000E+000	-3.90001E-001	-3.90078E-001	9	...........
	762	19.075	-3.80165E-001	1.51010E-003	0.00000E+000	-3.80002E-001	-3.79874E-001	9	...........
	763	19.1	-3.69965E-001	1.61945E-003	0.00000E+000	-3.70003E-001	-3.70070E-001	9	...........
	764	19.125	-3.60165E-001	1.72498E-003	0.00000E+000	-3.60005E-001	-3.60067E-001	9	...........
	765	19.15	-3.49965E-001	1.82983E-003	0.00000E+000	-3.50006E-001	-3.50063E-001	9	...........
	766	19.175	-3.39965E-001	1.93269E-003	0.00000E+000	-3.40007E-001	-3.40059E-001	9	...........
	767	19.2	-3.29765E-001	2.03387E-003	0.00000E+000	-3.30008E-001	-3.29856E-001	9	...........
	768	19.225	-3.19965E-001	2.13323E-003	0.00000E+000	-3.20010E-001	-3.20052E-001	9	...........
	769	19.25	-3.09965E-001	2.23125E-003	0.00000E+000	-3.10011E-001	-3.10248E-001	9	...........
	770	19.275	-3.00165E-001	2.32677E-003	0.00000E+000	-3.00012E-001	-3.00045E-001	9	...........
	771	19.3	-2.90165E-001	2.42012E-003	0.00000E+000	-2.90013E-001	-2.90241E-001	9	...........
	772	19.325	-2.79965E-001	2.51347E-003	0.00000E+000	-2.80015E-001	-2.80237E-001	9	...........
	773	19.35	-2.69965E-001	2.60499E-003	0.00000E+000	-2.70016E-001	-2.70033E-001	9	...........
	774	19.375	-2.59965E-001	2.69401E-003	0.00000E+000	-2.60017E-001	-2.60030E-001	9	...........
	775	19.4	-2.50165E-001	2.78336E-003	0.00000E+000	-2.50018E-001	-2.50226E-001	9	...........
	776	19.425	-2.40165E-001	2.87038E-003	0.00000E+000	-2.40020E-001	-2.40022E-001	9	...........
	777	19.45	-2.29965E-001	2.95573E-003	0.00000E+000	-2.30021E-001	-2.30019E-001	9	...........
	778	19.475	-2.20165E-001	3.03942E-003	0.00000E+000	-2.20022E-001	-2.20015E-001	9	...........
	779	19.5	-2.10165E-001	3.12427E-003	0.00000E+000	-2.09973E-001	-2.10211E-001	9	...........
	780	19.525	-2.00165E-001	3.20562E-003	0.00000E+000	-1.99975E-001	-2.00208E-001	9	...........
	781	19.55	-1.90165E-001	3.28580E-003	0.00000E+000	-1.89976E-001	-1.90004E-001	9	...........
	782	19.575	-1.80365E-001	3.36499E-003	0.00000E+000	-1.79977E-001	-1.80400E-001	9	...........
	783	19.6	-1.70165E-001	3.44300E-003	0.00000E+000	-1.69979E-001	-1.70197E-001	9	...........
	784	19.625	-1.59965E-001	3.52019E-003	0.00000E+000	-1.59980E-001	-1.59993E-001	9	...........
	785	19.65	-1.50165E-001	3.59554E-003	0.00000E+000	-1.49981E-001	-1.50189E-001	9	...........
	786	19.675	-1.40165E-001	3.67022E-003	0.00000E+000	-1.39982E-001	-1.40385E-001	9	...........
	787	19.7	-1.30165E-001	3.74357E-003	0.00000E+000	-1.29984E-001	-1.30382E-001	9	...........
	788	19.725	-1.20165E-001	3.81758E-003	0.00000E+000	-1.19985E-001	-1.20178E-001	9	...........
	789	19.75	-1.10165E-001	3.88760E-003	0.00000E+000	-1.09986E-001	-1.10174E-001	9	...........
	790	19.775	-1.00165E-001	3.95828E-003	0.00000E+000	-9.99874E-002	-1.00171E-001	9	...........
	791	19.8	-9.01651E-002	4.02796E-003	0.00000E+000	-8.99886E-002	-9.03670E-002	9	...........
	792	19.825	-8.01651E-002	4.09614E-003	0.00000E+000	-7.99899E-002	-8.01632E-002	9	...........
	793	19.85	-7.01651E-002	4.16432E-003	0.00000E+000	-6.99912E-002	-7.03596E-002	9	...........
	794	19.875	-6.01651E-002	4.23084E-003	0.00000E+000	-5.99924E-002	-6.03559E-002	9	...........
	795	19.9	-5.03651E-002	4.29752E-003	0.00000E+000	-4.99937E-002	-5.03522E-002	9	...........
	796	19.925	-4.01651E-002	4.36186E-003	0.00000E+000	-3.99949E-002	-4.03485E-002	9	...........
	797	19.95	-3.03651E-002	4.42654E-003	0.00000E+000	-2.99962E-002	-3.03448E-002	9	...........
	798	19.975	-2.01651E-002	4.48889E-003	0.00000E+000	-1.99975E-002	-2.01410E-002	9	...........
	799	20	-1.01651E-002	4.54886E-003	0.00000E+000	-9.99874E-003	-1.03374E-002	10	...........
	800	20.025	3.48799E-005	4.60894E-003	0.00000E+000	0.00000E+000	-3.33723E-004	10	...........
	801	20.05	9.63488E-003	4.67069E-003	0.00000E+000	9.99874E-003	9.66997E-003	10	...........
	802	20.075	1.96349E-002	4.73244E-003	0.00000E+000	1.99975E-002	1.96737E-002	10	...........
	803	20.1	2.96349E-002	4.78919E-003	0.00000E+000	2.99962E-002	2.96774E-002	10	...........
	804	20.125	3.96349E-002	4.84927E-003	0.00000E+000	3.99949E-002	3.94810E-002	10	...........
	805	20.15	4.98349E-002	4.90601E-003	0.00000E+000	4.99937E-002	4.96848E-002	10	...........
	806	20.175	5.96349E-002	4.96442E-003	0.00000E+000	5.99924E-002	5.94884E-002	10	...........
	807	20.2	6.98349E-002	5.02116E-003	0.00000E+000	6.99912E-002	6.94921E-002	10	...........
	808	20.225	7.96349E-002	5.07457E-003	0.00000E+000	7.99899E-002	7.96959E-002	10	...........
	809	20.25	8.98349E-002	5.13131E-003	0.00000E+000	8.99886E-002	8.96996E-002	10	...........
	810	20.275	9.94349E-002	5.18471E-003	0.00000E+000	9.99874E-002	9.95032E-002	10	...........
	811	20.3	1.09835E-001	5.23645E-003	0.00000E+000	1.09986E-001	1.09507E-001	10	...........
	812	20.325	1.19635E-001	5.28818E-003	0.00000E+000	1.19985E-001	1.19711E-001	10	...........
	813	20.35	1.29835E-001	5.34159E-003	0.00000E+000	1.29984E-001	1.29514E-001	10	...........
	814	20.375	1.39435E-001	5.39499E-003	0.00000E+000	1.39982E-001	1.39318E-001	10	...........
	815	20.4	1.49835E-001	5.44172E-003	0.00000E+000	1.49981E-001	1.49522E-001	10	...........
	816	20.425	1.59635E-001	5.49346E-003	0.00000E+000	1.59980E-001	1.59525E-001	10	...........
	817	20.45	1.69835E-001	5.54519E-003	0.00000E+000	1.69979E-001	1.69329E-001	10	...........
	818	20.475	1.79435E-001	5.59025E-003	0.00000E+000	1.79977E-001	1.79533E-001	10	...........
	819	20.5	1.89635E-001	5.64032E-003	0.00000E+000	1.90026E-001	1.89536E-001	10	...........
	820	20.525	1.99835E-001	5.68705E-003	0.00000E+000	2.00025E-001	1.99540E-001	10	...........
	821	20.55	2.09435E-001	5.73211E-003	0.00000E+000	2.10023E-001	2.09344E-001	10	...........
	822	20.575	2.19435E-001	5.77717E-003	0.00000E+000	2.20022E-001	2.19748E-001	10	...........
	823	20.6	2.29635E-001	5.82056E-003	0.00000E+000	2.30021E-001	2.29551E-001	10	...........
	824	20.625	2.39435E-001	5.86395E-003	0.00000E+000	2.40020E-001	2.39555E-001	10	...........
	825	20.65	2.49635E-001	5.90734E-003	0.00000E+000	2.50018E-001	2.49359E-001	10	...........
	826	20.675	2.59635E-001	5.95073E-003	0.00000E+000	2.60017E-001	2.59362E-001	10	...........
	827	20.7	2.69635E-001	5.99246E-003	0.00000E+000	2.70016E-001	2.69366E-001	10	...........
	828	20.725	2.79435E-001	6.03251E-003	0.00000E+000	2.80015E-001	2.79570E-001	10	...........
	829	20.75	2.89635E-001	6.07423E-003	0.00000E+000	2.90013E-001	2.89573E-001	10	...........
	830	20.775	2.99635E-001	6.11262E-003	0.00000E+000	3.00012E-001	2.99377E-001	10	...........
	831	20.8	3.09435E-001	6.15100E-003	0.00000E+000	3.10011E-001	3.09381E-001	10	...........
	832	20.825	3.19435E-001	6.18605E-003	0.00000E+000	3.20010E-001	3.19585E-001	10	...........
	833	20.85	3.29635E-001	6.22443E-003	0.00000E+000	3.30008E-001	3.29388E-001	10	...........
	834	20.875	3.39635E-001	6.26282E-003	0.00000E+000	3.40007E-001	3.39592E-001	10	...........
	835	20.9	3.49435E-001	6.29786E-003	0.00000E+000	3.50006E-001	3.49396E-001	10	...........
	836	20.925	3.59435E-001	6.33291E-003	0.00000E+000	3.60005E-001	3.59399E-001	10	...........
	837	20.95	3.69635E-001	6.36462E-003	0.00000E+000	3.70003E-001	3.69203E-001	10	...........
	838	20.975	3.79635E-001	6.39633E-003	0.00000E+000	3.80002E-001	3.79407E-001	10	...........
	839	21	3.89435E-001	6.42971E-003	0.00000E+000	3.90001E-001	3.89410E-001	10	...........
	840	21.025	3.99435E-001	6.46308E-003	0.00000E+000	3.99999E-001	3.99214E-001	10	...........
	841	21.05	4.09235E-001	6.49145E-003	0.00000E+000	4.09998E-001	4.09218E-001	10	...........
	842	21.075	4.19435E-001	6.52150E-003	0.00000E+000	4.19997E-001	4.19421E-001	10	...........
	843	21.1	4.29435E-001	6.55153E-003	0.00000E+000	4.29996E-001	4.29225E-001	10	...........
	844	21.125	4.39435E-001	6.57824E-003	0.00000E+000	4.39994E-001	4.39229E-001	10	...........
	845	21.15	4.49435E-001	6.60160E-003	0.00000E+000	4.49993E-001	4.49433E-001	10	...........
	846	21.175	4.59435E-001	6.62830E-003	0.00000E+000	4.59992E-001	4.59236E-001	10	...........
	847	21.2	4.69435E-001	6.65668E-003	0.00000E+000	4.69991E-001	4.69240E-001	10	...........
	848	21.225	4.79435E-001	6.67837E-003	0.00000E+000	4.79989E-001	4.79043E-001	10	...........
	849	21.25	4.89435E-001	6.70507E-003	0.00000E+000	4.89988E-001	4.89247E-001	10	...........
	850	21.275	4.99435E-001	6.72677E-003	0.00000E+000	4.99987E-001	4.99051E-001	10	...........
	851	21.3	5.09435E-001	6.74680E-003	0.00000E+000	5.09986E-001	5.09055E-001	10	...........
	852	21.325	5.19435E-001	6.76849E-003	0.00000E+000	5.19984E-001	5.19458E-001	10	...........
	853	21.35	5.29435E-001	6.78685E-003	0.00000E+000	5.29983E-001	5.29262E-001	10	...........
	854	21.375	5.39435E-001	6.80688E-003	0.00000E+000	5.39982E-001	5.39266E-001	10	...........
	855	21.4	5.49435E-001	6.82523E-003	0.00000E+000	5.49981E-001	5.49269E-001	10	...........
	856	21.425	5.59435E-001	6.84192E-003	0.00000E+000	5.59979E-001	5.59273E-001	10	...........
	857	21.45	5.69435E-001	6.85694E-003	0.00000E+000	5.69978E-001	5.69277E-001	10	...........
	858	21.475	5.79435E-001	6.87363E-003	0.00000E+000	5.79977E-001	5.79080E-001	10	...........
	859	21.5	5.89235E-001	6.88698E-003	0.00000E+000	5.89975E-001	5.89084E-001	10	...........
	860	21.525	5.99235E-001	6.89700E-003	0.00000E+000	6.00024E-001	5.99288E-001	10	...........
	861	21.55	6.09235E-001	6.91035E-003	0.00000E+000	6.10023E-001	6.09292E-001	10	...........
	862	21.575	6.19235E-001	6.92537E-003	0.00000E+000	6.20022E-001	6.19095E-001	10	...........
	863	21.6	6.29235E-001	6.93371E-003	0.00000E+000	6.30020E-001	6.29299E-001	10	...........
	864	21.625	6.39235E-001	6.94206E-003	0.00000E+000	6.40019E-001	6.39103E-001	10	...........
	865	21.65	6.49235E-001	6.95374E-003	0.00000E+000	6.50018E-001	6.49306E-001	10	...........
	866	21.675	6.59235E-001	6.95708E-003	0.00000E+000	6.60017E-001	6.59110E-001	10	...........
	867	21.7	6.69435E-001	6.96542E-003	0.00000E+000	6.70015E-001	6.69314E-001	10	...........
	868	21.725	6.79235E-001	6.97210E-003	0.00000E+000	6.80014E-001	6.79117E-001	10	...........
	869	21.75	6.89235E-001	6.97543E-003	0.00000E+000	6.90013E-001	6.88921E-001	10	...........
	870	21.775	6.99235E-001	6.97877E-003	0.00000E+000	7.00012E-001	6.99125E-001	10	...........
	871	21.8	7.09235E-001	6.98545E-003	0.00000E+000	7.10010E-001	7.09129E-001	10	...........
	872	21.825	7.19235E-001	6.98545E-003	0.00000E+000	7.20009E-001	7.19132E-001	10	...........
	873	21.85	7.29235E-001	6.98878E-003	0.00000E+000	7.30008E-001	7.29136E-001	10	...........
	874	21.875	7.39235E-001	6.99045E-003	0.00000E+000	7.40007E-001	7.39140E-001	10	...........
	875	21.9	7.49235E-001	6.99379E-003	0.00000E+000	7.50005E-001	7.49143E-001	10	...........
	876	21.925	7.59235E-001	6.99212E-003	0.00000E+000	7.60004E-001	7.59347E-001	10	...........
	877	21.95	7.69435E-001	6.99212E-003	0.00000E+000	7.70003E-001	7.69151E-001	10	...........
	878	21.975	7.79235E-001	6.99045E-003	0.00000E+000	7.80001E-001	7.79154E-001	10	...........
	879	22	7.89235E-001	6.98878E-003	0.00000E+000	7.90000E-001	7.88958E-001	10	...........
	880	22.025	7.99235E-001	6.98878E-003	0.00000E+000	7.99999E-001	7.99162E-001	10	...........
CURVE4	TABLE
	Pt	T	Vf	Im	Vu	Sig	Ach	IERange	Over
	#	s	V vs. Ref.	A	V	V	V	#	bits
	881	22.05	7.89235E-001	6.51816E-003	0.00000E+000	7.90000E-001	7.88958E-001	10	...........
	882	22.075	7.79435E-001	6.08925E-003	0.00000E+000	7.80001E-001	7.78754E-001	10	...........
	883	22.1	7.69435E-001	5.69205E-003	0.00000E+000	7.70003E-001	7.68951E-001	10	...........
	884	22.125	7.59435E-001	5.32156E-003	0.00000E+000	7.60004E-001	7.58947E-001	10	...........
	885	22.15	7.49435E-001	4.96943E-003	0.00000E+000	7.50005E-001	7.49143E-001	10	...........
	886	22.175	7.39235E-001	4.64232E-003	0.00000E+000	7.40007E-001	7.38940E-001	10	...........
	887	22.2	7.29435E-001	4.32857E-003	0.00000E+000	7.30008E-001	7.29136E-001	10	...........
	888	22.225	7.19435E-001	4.03485E-003	0.00000E+000	7.20009E-001	7.19132E-001	10	...........
	889	22.25	7.09235E-001	3.75857E-003	0.00000E+000	7.10010E-001	7.09129E-001	9	...........
	890	22.275	6.99435E-001	3.49168E-003	0.00000E+000	7.00012E-001	6.99325E-001	9	...........
	891	22.3	6.89235E-001	3.23796E-003	0.00000E+000	6.90013E-001	6.88921E-001	9	...........
	892	22.325	6.79435E-001	2.99624E-003	0.00000E+000	6.80014E-001	6.79117E-001	9	...........
	893	22.35	6.69435E-001	2.76436E-003	0.00000E+000	6.70015E-001	6.69114E-001	9	...........
	894	22.375	6.59435E-001	2.54331E-003	0.00000E+000	6.60017E-001	6.59110E-001	9	...........
	895	22.4	6.49435E-001	2.33094E-003	0.00000E+000	6.50018E-001	6.49306E-001	9	...........
	896	22.425	6.39435E-001	2.12639E-003	0.00000E+000	6.40019E-001	6.39103E-001	9	...........
	897	22.45	6.29235E-001	1.92985E-003	0.00000E+000	6.30020E-001	6.29299E-001	9	...........
	898	22.475	6.19435E-001	1.74131E-003	0.00000E+000	6.20022E-001	6.19295E-001	9	...........
	899	22.5	6.09235E-001	1.55827E-003	0.00000E+000	6.10023E-001	6.09092E-001	9	...........
	900	22.525	5.99235E-001	1.38290E-003	0.00000E+000	6.00024E-001	5.99288E-001	9	...........
	901	22.55	5.89235E-001	1.21253E-003	0.00000E+000	5.89975E-001	5.89284E-001	9	...........
	902	22.575	5.79235E-001	1.04933E-003	0.00000E+000	5.79977E-001	5.79280E-001	9	...........
	903	22.6	5.69435E-001	8.90467E-004	0.00000E+000	5.69978E-001	5.69277E-001	9	...........
	904	22.625	5.59235E-001	7.36101E-004	0.00000E+000	5.59979E-001	5.59473E-001	9	...........
	905	22.65	5.49435E-001	5.87237E-004	0.00000E+000	5.49981E-001	5.49269E-001	9	...........
	906	22.675	5.39235E-001	4.41873E-004	0.00000E+000	5.39982E-001	5.39266E-001	9	...........
	907	22.7	5.29435E-001	3.01010E-004	0.00000E+000	5.29983E-001	5.29262E-001	9	...........
	908	22.725	5.19435E-001	1.63369E-004	0.00000E+000	5.19984E-001	5.19258E-001	8	...........
	909	22.75	5.09435E-001	2.93773E-005	0.00000E+000	5.09986E-001	5.09255E-001	8	...........
	910	22.775	4.99635E-001	-5.47442E-005	0.00000E+000	4.99987E-001	4.99251E-001	7	....ih..i..
	911	22.8	4.89435E-001	-2.28055E-004	0.00000E+000	4.89988E-001	4.89047E-001	8	...........
	912	22.825	4.79435E-001	-3.51729E-004	0.00000E+000	4.79989E-001	4.79244E-001	8	...........
	913	22.85	4.69435E-001	-4.73149E-004	0.00000E+000	4.69991E-001	4.69440E-001	8	...........
	914	22.875	4.59435E-001	-5.91511E-004	0.00000E+000	4.59992E-001	4.59236E-001	9	...........
	915	22.9	4.49435E-001	-7.07702E-004	0.00000E+000	4.49993E-001	4.49232E-001	9	...........
	916	22.925	4.39435E-001	-8.21226E-004	0.00000E+000	4.39994E-001	4.39629E-001	9	...........
	917	22.95	4.29235E-001	-9.32416E-004	0.00000E+000	4.29996E-001	4.29225E-001	9	...........
	918	22.975	4.19435E-001	-1.04144E-003	0.00000E+000	4.19997E-001	4.19421E-001	9	...........
	919	23	4.09435E-001	-1.14829E-003	0.00000E+000	4.09998E-001	4.09418E-001	9	...........
	920	23.025	3.99435E-001	-1.25265E-003	0.00000E+000	3.99999E-001	3.99214E-001	9	...........
	921	23.05	3.89435E-001	-1.35634E-003	0.00000E+000	3.90001E-001	3.89610E-001	9	...........
	922	23.075	3.79635E-001	-1.45653E-003	0.00000E+000	3.80002E-001	3.79407E-001	9	...........
	923	23.1	3.69435E-001	-1.55555E-003	0.00000E+000	3.70003E-001	3.69203E-001	9	...........
	924	23.125	3.59435E-001	-1.65273E-003	0.00000E+000	3.60005E-001	3.59399E-001	9	...........
	925	23.15	3.49635E-001	-1.74792E-003	0.00000E+000	3.50006E-001	3.49195E-001	9	...........
	926	23.175	3.39435E-001	-1.84161E-003	0.00000E+000	3.40007E-001	3.39392E-001	9	...........
	927	23.2	3.29635E-001	-1.93446E-003	0.00000E+000	3.30008E-001	3.29388E-001	9	...........
	928	23.225	3.19635E-001	-2.02515E-003	0.00000E+000	3.20010E-001	3.19384E-001	9	...........
	929	23.25	3.09435E-001	-2.11533E-003	0.00000E+000	3.10011E-001	3.09581E-001	9	...........
	930	23.275	2.99435E-001	-2.20185E-003	0.00000E+000	3.00012E-001	2.99377E-001	9	...........
	931	23.3	2.89635E-001	-2.28853E-003	0.00000E+000	2.90013E-001	2.89573E-001	9	...........
	932	23.325	2.79635E-001	-2.37455E-003	0.00000E+000	2.80015E-001	2.79570E-001	9	...........
	933	23.35	2.69635E-001	-2.45807E-003	0.00000E+000	2.70016E-001	2.69566E-001	9	...........
	934	23.375	2.59435E-001	-2.53959E-003	0.00000E+000	2.60017E-001	2.59562E-001	9	...........
	935	23.4	2.49635E-001	-2.62127E-003	0.00000E+000	2.50018E-001	2.49359E-001	9	...........
	936	23.425	2.39635E-001	-2.70062E-003	0.00000E+000	2.40020E-001	2.39355E-001	9	...........
	937	23.45	2.29835E-001	-2.77947E-003	0.00000E+000	2.30021E-001	2.29551E-001	9	...........
	938	23.475	2.19435E-001	-2.85715E-003	0.00000E+000	2.20022E-001	2.19347E-001	9	...........
	939	23.5	2.09635E-001	-2.93434E-003	0.00000E+000	2.10023E-001	2.09544E-001	9	...........
	940	23.525	1.99435E-001	-3.00835E-003	0.00000E+000	2.00025E-001	1.99540E-001	9	...........
	941	23.55	1.89635E-001	-3.08320E-003	0.00000E+000	1.90026E-001	1.89536E-001	9	...........
	942	23.575	1.79435E-001	-3.15905E-003	0.00000E+000	1.79977E-001	1.79533E-001	9	...........
	943	23.6	1.69635E-001	-3.23057E-003	0.00000E+000	1.69979E-001	1.69529E-001	9	...........
	944	23.625	1.59635E-001	-3.30175E-003	0.00000E+000	1.59980E-001	1.59525E-001	9	...........
	945	23.65	1.49635E-001	-3.37343E-003	0.00000E+000	1.49981E-001	1.49322E-001	9	...........
	946	23.675	1.39835E-001	-3.44244E-003	0.00000E+000	1.39982E-001	1.39518E-001	9	...........
	947	23.7	1.29835E-001	-3.51146E-003	0.00000E+000	1.29984E-001	1.29514E-001	9	...........
	948	23.725	1.19635E-001	-3.57980E-003	0.00000E+000	1.19985E-001	1.19511E-001	9	...........
	949	23.75	1.09635E-001	-3.64715E-003	0.00000E+000	1.09986E-001	1.09507E-001	9	...........
	950	23.775	9.96349E-002	-3.71233E-003	0.00000E+000	9.99874E-002	9.97033E-002	9	...........
	951	23.8	8.96349E-002	-3.77818E-003	0.00000E+000	8.99886E-002	8.96996E-002	9	...........
	952	23.825	7.96349E-002	-3.84336E-003	0.00000E+000	7.99899E-002	7.94958E-002	9	...........
	953	23.85	6.98349E-002	-3.90721E-003	0.00000E+000	6.99912E-002	6.94921E-002	9	...........
	954	23.875	5.96349E-002	-3.97139E-003	0.00000E+000	5.99924E-002	5.96885E-002	9	...........
	955	23.9	4.98349E-002	-4.03423E-003	0.00000E+000	4.99937E-002	4.94847E-002	9	...........
	956	23.925	3.96349E-002	-4.09541E-003	0.00000E+000	3.99949E-002	3.96811E-002	9	...........
	957	23.95	2.96349E-002	-4.15659E-003	0.00000E+000	2.99962E-002	2.96774E-002	9	...........
	958	23.975	1.96349E-002	-4.21794E-003	0.00000E+000	1.99975E-002	1.96737E-002	9	...........
	959	24	9.63488E-003	-4.27745E-003	0.00000E+000	9.99874E-003	9.66997E-003	9	...........
	960	24.025	3.48799E-005	-4.33746E-003	0.00000E+000	0.00000E+000	-3.33723E-004	9	...........
