EXPLAIN
TAG	CV
TITLE	LABEL	Cyclic Voltammetry	Test Identifier
DATE	LABEL	18-7-2017	Date
TIME	LABEL	13:57:40	Time
NOTES	NOTES	1	Notes...
	0.6m
PSTAT	PSTAT	IFC5000-01520	Potentiostat
VINIT	POTEN	0.00000E+000	F	Initial E (V)
VLIMIT1	POTEN	-8.00000E-001	F	Scan Limit 1 (V)
VLIMIT2	POTEN	8.00000E-001	F	Scan Limit 2 (V)
VFINAL	POTEN	0.00000E+000	F	Final E (V)
SCANRATE	QUANT	4.99999E+001	A Real Number
STEPSIZE	QUANT	1.00000E+001	Step Size (mV)
CYCLES	IQUANT	3	Cycles (#)
IMODE	SELECTOR	0	I/E Range Mode
IRANGE	QUANT	2.50000E+002	Max Current (mA)
AREA	QUANT	3.84800E-001	A Real Number
EQDELAY	QUANT	1.00000E+000	Equil. Time (s)
IRCOMP	SELECTOR	0	IRComp
PFCOR	QUANT	2.50000E+002	PF Corr. (ohm)
SAMPLINGMODE	SELECTOR	0	Sampling Mode
EOC	QUANT	0	Open Circuit (V)
SEQUENCER	TOGGLE	TRUE	Run as Sequence
PSTATMODEL	IQUANT	53	Pstat Model
PSTATSECTION	LABEL	IFC5000-01520	Pstat Section
PSTATSERIALNO	LABEL	01520	Pstat Serial Number
CTRLMODE	IQUANT	1	Control Mode
ELECTROMETER	IQUANT	0	RE=0 or CS=1
IESTAB	IQUANT	2	I/E Stability
CASPEED	IQUANT	4	Control Amp Speed
CONVENTION	IQUANT	1	Current Convention
ICHRANGE	IQUANT	2	Ich Range
ICHRANGEMODE	TOGGLE	F	Ich Auto Range
ICHOFFSETENABLE	TOGGLE	F	Ich Offset Enable
ICHOFFSET	QUANT	0	Ich Offset (V)
ICHFILTER	IQUANT	4	Ich Filter
VCHRANGE	IQUANT	2	Vch Range
VCHRANGEMODE	TOGGLE	F	Vch Auto Range
VCHOFFSETENABLE	TOGGLE	F	Vch Offset Enable
VCHOFFSET	QUANT	0	Vch Offset (V)
VCHFILTER	IQUANT	4	Vch Filter
IERANGELOWERLIMIT	IQUANT	7	I/E Range Lower Limit
IERANGEMODE	TOGGLE	T	I/E AutoRange
IERANGE	IQUANT	11	I/E Range
ACHSELECT	IQUANT	1	Ach Select
ACHRANGE	IQUANT	2	Ach Range
ACHOFFSETENABLE	TOGGLE	F	Ach Offset Enable
ACHOFFSET	QUANT	0	Ach Offset (V)
ACHFILTER	IQUANT	1	Ach Filter
CABLEID	IQUANT	14	Cable ID
DCCALDATE	LABEL	5-7-2017	DC Calibration Date
ACCALDATE	LABEL	12/3/2015	AC Calibration Date
FRAMEWORKVERSION	QUANT	7.01	Framework Version
INSTRUMENTVERSION	LABEL	4.00	Instrument Version
CURVE1	TABLE
	Pt	T	Vf	Im	Vu	Sig	Ach	IERange	Over
	#	s	V vs. Ref.	A	V	V	V	#	bits
	0	0.2	-2.06485E-004	-2.78013E-004	0.00000E+000	0.00000E+000	-3.33723E-004	11	...........
	1	0.4	-1.06067E-002	-3.81655E-004	0.00000E+000	-9.99874E-003	-1.03374E-002	10	...........
	2	0.6	-2.04069E-002	-4.60385E-004	0.00000E+000	-1.99975E-002	-2.03411E-002	9	...........
	3	0.8	-3.02072E-002	-5.22899E-004	0.00000E+000	-2.99962E-002	-3.01447E-002	9	...........
	4	1	-4.04074E-002	-5.81079E-004	0.00000E+000	-3.99949E-002	-4.03485E-002	9	...........
	5	1.2	-5.04076E-002	-6.31424E-004	0.00000E+000	-4.99937E-002	-5.03522E-002	9	...........
	6	1.4	-6.04079E-002	-6.75601E-004	0.00000E+000	-5.99924E-002	-6.01558E-002	9	...........
	7	1.6	-7.04081E-002	-7.14443E-004	0.00000E+000	-6.99912E-002	-7.01595E-002	9	...........
	8	1.8	-8.06083E-002	-7.48617E-004	0.00000E+000	-7.99899E-002	-8.01632E-002	9	...........
	9	2	-9.04085E-002	-7.78958E-004	0.00000E+000	-8.99886E-002	-9.03670E-002	9	...........
	10	2.2	-1.00409E-001	-8.06297E-004	0.00000E+000	-9.99874E-002	-1.00371E-001	9	...........
	11	2.4	-1.10409E-001	-8.31470E-004	0.00000E+000	-1.09986E-001	-1.10374E-001	9	...........
	12	2.6	-1.20209E-001	-8.53808E-004	0.00000E+000	-1.19985E-001	-1.20178E-001	9	...........
	13	2.8	-1.30209E-001	-8.74146E-004	0.00000E+000	-1.29984E-001	-1.30382E-001	9	...........
	14	3	-1.40410E-001	-8.92650E-004	0.00000E+000	-1.39982E-001	-1.40185E-001	9	...........
	15	3.2	-1.50210E-001	-9.09654E-004	0.00000E+000	-1.49981E-001	-1.49989E-001	9	...........
	16	3.4	-1.60410E-001	-9.25158E-004	0.00000E+000	-1.59980E-001	-1.60193E-001	9	...........
	17	3.6	-1.70210E-001	-9.39661E-004	0.00000E+000	-1.69979E-001	-1.70197E-001	9	...........
	18	3.8	-1.80411E-001	-9.53497E-004	0.00000E+000	-1.79977E-001	-1.80200E-001	9	...........
	19	4	-1.90211E-001	-9.65667E-004	0.00000E+000	-1.89976E-001	-1.90204E-001	9	...........
	20	4.2	-2.00411E-001	-9.77169E-004	0.00000E+000	-1.99975E-001	-2.00208E-001	9	...........
	21	4.4	-2.10211E-001	-9.88839E-004	0.00000E+000	-2.10023E-001	-2.10211E-001	9	...........
	22	4.6	-2.20211E-001	-9.98841E-004	0.00000E+000	-2.20022E-001	-2.20215E-001	9	...........
	23	4.8	-2.30212E-001	-1.00801E-003	0.00000E+000	-2.30021E-001	-2.30019E-001	9	...........
	24	5	-2.40412E-001	-1.01651E-003	0.00000E+000	-2.40020E-001	-2.40222E-001	9	...........
	25	5.2	-2.50212E-001	-1.02535E-003	0.00000E+000	-2.50018E-001	-2.50026E-001	9	...........
	26	5.4	-2.60212E-001	-1.03335E-003	0.00000E+000	-2.60017E-001	-2.60230E-001	9	...........
	27	5.6	-2.70213E-001	-1.04052E-003	0.00000E+000	-2.70016E-001	-2.70033E-001	9	...........
	28	5.8	-2.80413E-001	-1.04769E-003	0.00000E+000	-2.80015E-001	-2.80037E-001	9	...........
	29	6	-2.90213E-001	-1.05452E-003	0.00000E+000	-2.90013E-001	-2.90241E-001	9	...........
	30	6.2	-3.00213E-001	-1.06052E-003	0.00000E+000	-3.00012E-001	-3.00245E-001	9	...........
	31	6.4	-3.10414E-001	-1.06702E-003	0.00000E+000	-3.10011E-001	-3.10248E-001	9	...........
	32	6.6	-3.20014E-001	-1.07286E-003	0.00000E+000	-3.20010E-001	-3.20052E-001	9	...........
	33	6.8	-3.30214E-001	-1.07786E-003	0.00000E+000	-3.30008E-001	-3.30056E-001	9	...........
	34	7	-3.40214E-001	-1.08336E-003	0.00000E+000	-3.40007E-001	-3.39859E-001	9	...........
	35	7.2	-3.50214E-001	-1.08803E-003	0.00000E+000	-3.50006E-001	-3.49863E-001	9	...........
	36	7.4	-3.60215E-001	-1.09270E-003	0.00000E+000	-3.60005E-001	-3.60067E-001	9	...........
	37	7.6	-3.70015E-001	-1.09703E-003	0.00000E+000	-3.70003E-001	-3.69870E-001	9	...........
	38	7.8	-3.80215E-001	-1.10153E-003	0.00000E+000	-3.80002E-001	-3.80074E-001	9	...........
	39	8	-3.90015E-001	-1.10520E-003	0.00000E+000	-3.90001E-001	-3.90078E-001	9	...........
	40	8.2	-4.00216E-001	-1.10837E-003	0.00000E+000	-3.99999E-001	-3.99881E-001	9	...........
	41	8.4	-4.10016E-001	-1.11220E-003	0.00000E+000	-4.09998E-001	-4.09885E-001	9	...........
	42	8.6	-4.20216E-001	-1.11570E-003	0.00000E+000	-4.19997E-001	-4.20289E-001	9	...........
	43	8.8	-4.30216E-001	-1.11820E-003	0.00000E+000	-4.29996E-001	-4.30093E-001	9	...........
	44	9	-4.40016E-001	-1.12054E-003	0.00000E+000	-4.39994E-001	-4.39896E-001	9	...........
	45	9.2	-4.50017E-001	-1.12304E-003	0.00000E+000	-4.49993E-001	-4.49900E-001	9	...........
	46	9.4	-4.60017E-001	-1.12537E-003	0.00000E+000	-4.59992E-001	-4.59904E-001	9	...........
	47	9.6	-4.70017E-001	-1.12737E-003	0.00000E+000	-4.69991E-001	-4.69907E-001	9	...........
	48	9.8	-4.80017E-001	-1.12920E-003	0.00000E+000	-4.79989E-001	-4.80111E-001	9	...........
	49	10	-4.90018E-001	-1.13054E-003	0.00000E+000	-4.89988E-001	-4.89915E-001	9	...........
	50	10.2	-5.00218E-001	-1.13254E-003	0.00000E+000	-4.99987E-001	-4.99918E-001	9	...........
	51	10.4	-5.10018E-001	-1.13421E-003	0.00000E+000	-5.09986E-001	-5.09922E-001	9	...........
	52	10.6	-5.20018E-001	-1.13571E-003	0.00000E+000	-5.19984E-001	-5.19926E-001	9	...........
	53	10.8	-5.29819E-001	-1.13704E-003	0.00000E+000	-5.29983E-001	-5.29930E-001	9	...........
	54	11	-5.40019E-001	-1.13854E-003	0.00000E+000	-5.39982E-001	-5.39733E-001	9	...........
	55	11.2	-5.50019E-001	-1.13971E-003	0.00000E+000	-5.49981E-001	-5.49737E-001	9	...........
	56	11.4	-5.60019E-001	-1.14121E-003	0.00000E+000	-5.59979E-001	-5.59941E-001	9	...........
	57	11.6	-5.70019E-001	-1.14237E-003	0.00000E+000	-5.69978E-001	-5.69944E-001	9	...........
	58	11.8	-5.80020E-001	-1.14371E-003	0.00000E+000	-5.79977E-001	-5.79748E-001	9	...........
	59	12	-5.89820E-001	-1.14554E-003	0.00000E+000	-5.89975E-001	-5.89952E-001	9	...........
	60	12.2	-6.00220E-001	-1.14704E-003	0.00000E+000	-5.99974E-001	-5.99955E-001	9	...........
	61	12.4	-6.10020E-001	-1.14954E-003	0.00000E+000	-6.10023E-001	-6.09759E-001	9	...........
	62	12.6	-6.20021E-001	-1.15121E-003	0.00000E+000	-6.20022E-001	-6.19963E-001	9	...........
	63	12.8	-6.29821E-001	-1.15338E-003	0.00000E+000	-6.30020E-001	-6.29966E-001	9	...........
	64	13	-6.40021E-001	-1.15588E-003	0.00000E+000	-6.40019E-001	-6.39970E-001	9	...........
	65	13.2	-6.50021E-001	-1.15821E-003	0.00000E+000	-6.50018E-001	-6.49774E-001	9	...........
	66	13.4	-6.59822E-001	-1.16138E-003	0.00000E+000	-6.60017E-001	-6.59777E-001	9	...........
	67	13.6	-6.70022E-001	-1.16488E-003	0.00000E+000	-6.70015E-001	-6.69781E-001	9	...........
	68	13.8	-6.80022E-001	-1.16871E-003	0.00000E+000	-6.80014E-001	-6.79785E-001	9	...........
	69	14	-6.90022E-001	-1.17288E-003	0.00000E+000	-6.90013E-001	-6.89789E-001	9	...........
	70	14.2	-7.00022E-001	-1.17772E-003	0.00000E+000	-7.00012E-001	-6.99792E-001	9	...........
	71	14.4	-7.10023E-001	-1.18288E-003	0.00000E+000	-7.10010E-001	-7.09796E-001	9	...........
	72	14.6	-7.20023E-001	-1.18905E-003	0.00000E+000	-7.20009E-001	-7.19800E-001	9	...........
	73	14.8	-7.29823E-001	-1.19555E-003	0.00000E+000	-7.30008E-001	-7.30003E-001	9	...........
	74	15	-7.39823E-001	-1.20305E-003	0.00000E+000	-7.40007E-001	-7.39607E-001	9	...........
	75	15.2	-7.49624E-001	-1.21122E-003	0.00000E+000	-7.50005E-001	-7.49411E-001	9	...........
	76	15.4	-7.60024E-001	-1.22039E-003	0.00000E+000	-7.60004E-001	-7.59614E-001	9	...........
	77	15.6	-7.69824E-001	-1.23039E-003	0.00000E+000	-7.70003E-001	-7.69818E-001	9	...........
	78	15.8	-7.79824E-001	-1.24140E-003	0.00000E+000	-7.80001E-001	-7.80022E-001	9	...........
	79	16	-7.89824E-001	-1.25340E-003	0.00000E+000	-7.90000E-001	-7.89625E-001	9	...........
	80	16.2	-7.99825E-001	-1.26757E-003	0.00000E+000	-7.99999E-001	-7.99629E-001	9	...........
	81	16.4	-7.89624E-001	-9.57498E-004	0.00000E+000	-7.90000E-001	-7.89425E-001	9	...........
	82	16.6	-7.79624E-001	-7.14276E-004	0.00000E+000	-7.80001E-001	-7.79622E-001	9	...........
	83	16.8	-7.69424E-001	-5.15064E-004	0.00000E+000	-7.70003E-001	-7.69818E-001	9	...........
	84	17	-7.59624E-001	-3.47693E-004	0.00000E+000	-7.60004E-001	-7.59414E-001	9	...........
	85	17.2	-7.49624E-001	-2.11420E-004	0.00000E+000	-7.50005E-001	-7.49811E-001	8	...........
	86	17.4	-7.39623E-001	-8.59070E-005	0.00000E+000	-7.40007E-001	-7.39807E-001	8	...........
	87	17.6	-7.29423E-001	1.76352E-005	0.00000E+000	-7.30008E-001	-7.29803E-001	8	...........
	88	17.8	-7.19423E-001	5.47117E-005	0.00000E+000	-7.20009E-001	-7.19600E-001	7	....ih..i..
	89	18	-7.09623E-001	1.72431E-004	0.00000E+000	-7.10010E-001	-7.09796E-001	8	...........
	90	18.2	-6.99622E-001	2.50663E-004	0.00000E+000	-7.00012E-001	-6.99992E-001	8	...........
	91	18.4	-6.89422E-001	3.08612E-004	0.00000E+000	-6.90013E-001	-6.89789E-001	8	...........
	92	18.6	-6.79822E-001	3.59348E-004	0.00000E+000	-6.80014E-001	-6.79785E-001	8	...........
	93	18.8	-6.69622E-001	4.03656E-004	0.00000E+000	-6.70015E-001	-6.69981E-001	8	...........
	94	19	-6.59622E-001	4.42322E-004	0.00000E+000	-6.60017E-001	-6.59777E-001	8	...........
	95	19.2	-6.49421E-001	4.76313E-004	0.00000E+000	-6.50018E-001	-6.49774E-001	8	...........
	96	19.4	-6.39621E-001	4.40153E-004	0.00000E+000	-6.40019E-001	-6.39970E-001	9	...........
	97	19.6	-6.29621E-001	5.33341E-004	0.00000E+000	-6.30020E-001	-6.29766E-001	9	...........
	98	19.8	-6.19821E-001	5.57013E-004	0.00000E+000	-6.20022E-001	-6.19963E-001	9	...........
	99	20	-6.09820E-001	5.77684E-004	0.00000E+000	-6.10023E-001	-6.09759E-001	9	...........
	100	20.2	-5.99820E-001	5.97522E-004	0.00000E+000	-5.99974E-001	-5.99755E-001	9	...........
	101	20.4	-5.89820E-001	6.13859E-004	0.00000E+000	-5.89975E-001	-5.89752E-001	9	...........
	102	20.6	-5.79820E-001	6.29529E-004	0.00000E+000	-5.79977E-001	-5.79748E-001	9	...........
	103	20.8	-5.69419E-001	6.43699E-004	0.00000E+000	-5.69978E-001	-5.69744E-001	9	...........
	104	21	-5.59419E-001	6.56202E-004	0.00000E+000	-5.59979E-001	-5.59540E-001	9	...........
	105	21.2	-5.49619E-001	6.68872E-004	0.00000E+000	-5.49981E-001	-5.49737E-001	9	...........
	106	21.4	-5.39619E-001	6.80041E-004	0.00000E+000	-5.39982E-001	-5.40133E-001	9	...........
	107	21.6	-5.29819E-001	6.90877E-004	0.00000E+000	-5.29983E-001	-5.29930E-001	9	...........
	108	21.8	-5.19618E-001	7.00879E-004	0.00000E+000	-5.19984E-001	-5.19926E-001	9	...........
	109	22	-5.09818E-001	7.10381E-004	0.00000E+000	-5.09986E-001	-5.09922E-001	9	...........
	110	22.2	-4.99618E-001	7.20050E-004	0.00000E+000	-4.99987E-001	-4.99918E-001	9	...........
	111	22.4	-4.89818E-001	7.28885E-004	0.00000E+000	-4.89988E-001	-4.89915E-001	9	...........
	112	22.6	-4.79617E-001	7.37720E-004	0.00000E+000	-4.79989E-001	-4.79911E-001	9	...........
	113	22.8	-4.69817E-001	7.46389E-004	0.00000E+000	-4.69991E-001	-4.69907E-001	9	...........
	114	23	-4.59617E-001	7.54724E-004	0.00000E+000	-4.59992E-001	-4.60104E-001	9	...........
	115	23.2	-4.49817E-001	7.63226E-004	0.00000E+000	-4.49993E-001	-4.49700E-001	9	...........
	116	23.4	-4.39817E-001	7.70895E-004	0.00000E+000	-4.39994E-001	-4.39896E-001	9	...........
	117	23.6	-4.29616E-001	7.79063E-004	0.00000E+000	-4.29996E-001	-4.29893E-001	9	...........
	118	23.8	-4.19816E-001	7.87065E-004	0.00000E+000	-4.19997E-001	-4.20089E-001	9	...........
	119	24	-4.10016E-001	7.94733E-004	0.00000E+000	-4.09998E-001	-4.10085E-001	9	...........
	120	24.2	-4.00016E-001	8.02402E-004	0.00000E+000	-3.99999E-001	-4.00081E-001	9	...........
	121	24.4	-3.90015E-001	8.10070E-004	0.00000E+000	-3.90001E-001	-3.90078E-001	9	...........
	122	24.6	-3.79815E-001	8.17739E-004	0.00000E+000	-3.80002E-001	-3.79874E-001	9	...........
	123	24.8	-3.70015E-001	8.25407E-004	0.00000E+000	-3.70003E-001	-3.69870E-001	9	...........
	124	25	-3.60015E-001	8.32409E-004	0.00000E+000	-3.60005E-001	-3.60067E-001	9	...........
	125	25.2	-3.50014E-001	8.39577E-004	0.00000E+000	-3.50006E-001	-3.50263E-001	9	...........
	126	25.4	-3.40014E-001	8.46745E-004	0.00000E+000	-3.40007E-001	-3.40059E-001	9	...........
	127	25.6	-3.30014E-001	8.53747E-004	0.00000E+000	-3.30008E-001	-3.29856E-001	9	...........
	128	25.8	-3.20014E-001	8.60749E-004	0.00000E+000	-3.20010E-001	-3.20052E-001	9	...........
	129	26	-3.09814E-001	8.67750E-004	0.00000E+000	-3.10011E-001	-3.10048E-001	9	...........
	130	26.2	-3.00013E-001	8.74418E-004	0.00000E+000	-3.00012E-001	-3.00045E-001	9	...........
	131	26.4	-2.89813E-001	8.81086E-004	0.00000E+000	-2.90013E-001	-2.90241E-001	9	...........
	132	26.6	-2.80013E-001	8.87254E-004	0.00000E+000	-2.80015E-001	-2.80037E-001	9	...........
	133	26.8	-2.69813E-001	8.93589E-004	0.00000E+000	-2.70016E-001	-2.70033E-001	9	...........
	134	27	-2.60012E-001	9.00257E-004	0.00000E+000	-2.60017E-001	-2.60030E-001	9	...........
	135	27.2	-2.50012E-001	9.06092E-004	0.00000E+000	-2.50018E-001	-2.50026E-001	9	...........
	136	27.4	-2.40012E-001	9.12594E-004	0.00000E+000	-2.40020E-001	-2.40022E-001	9	...........
	137	27.6	-2.30212E-001	9.17761E-004	0.00000E+000	-2.30021E-001	-2.30219E-001	9	...........
	138	27.8	-2.20011E-001	9.23763E-004	0.00000E+000	-2.20022E-001	-2.20015E-001	9	...........
	139	28	-2.10011E-001	9.29097E-004	0.00000E+000	-2.10023E-001	-2.10211E-001	9	...........
	140	28.2	-2.00011E-001	9.35099E-004	0.00000E+000	-1.99975E-001	-2.00208E-001	9	...........
	141	28.4	-1.90011E-001	9.40267E-004	0.00000E+000	-1.89976E-001	-1.90004E-001	9	...........
	142	28.6	-1.80011E-001	9.45601E-004	0.00000E+000	-1.79977E-001	-1.80200E-001	9	...........
	143	28.8	-1.70010E-001	9.50102E-004	0.00000E+000	-1.69979E-001	-1.70197E-001	9	...........
	144	29	-1.60210E-001	9.54603E-004	0.00000E+000	-1.59980E-001	-1.60193E-001	9	...........
	145	29.2	-1.50010E-001	9.59271E-004	0.00000E+000	-1.49981E-001	-1.50189E-001	9	...........
	146	29.4	-1.39810E-001	9.63605E-004	0.00000E+000	-1.39982E-001	-1.40185E-001	9	...........
	147	29.6	-1.30009E-001	9.67606E-004	0.00000E+000	-1.29984E-001	-1.30182E-001	9	...........
	148	29.8	-1.19809E-001	9.71940E-004	0.00000E+000	-1.19985E-001	-1.20178E-001	9	...........
	149	30	-1.10009E-001	9.75775E-004	0.00000E+000	-1.09986E-001	-1.10374E-001	9	...........
	150	30.2	-1.00009E-001	9.79442E-004	0.00000E+000	-9.99874E-002	-1.00171E-001	9	...........
	151	30.4	-9.00085E-002	9.83610E-004	0.00000E+000	-8.99886E-002	-9.01669E-002	9	...........
	152	30.6	-8.00083E-002	9.86610E-004	0.00000E+000	-7.99899E-002	-8.03633E-002	9	...........
	153	30.8	-7.02081E-002	9.90111E-004	0.00000E+000	-6.99912E-002	-7.01595E-002	9	...........
	154	31	-6.02079E-002	9.93279E-004	0.00000E+000	-5.99924E-002	-6.01558E-002	9	...........
	155	31.2	-5.00076E-002	9.96113E-004	0.00000E+000	-4.99937E-002	-5.03522E-002	9	...........
	156	31.4	-4.00074E-002	9.99113E-004	0.00000E+000	-3.99949E-002	-4.01484E-002	9	...........
	157	31.6	-3.02072E-002	1.00211E-003	0.00000E+000	-2.99962E-002	-3.03448E-002	9	...........
	158	31.8	-2.02069E-002	1.00378E-003	0.00000E+000	-1.99975E-002	-2.01410E-002	9	...........
	159	32	-1.02067E-002	1.00645E-003	0.00000E+000	-9.99874E-003	-1.03374E-002	9	...........
	160	32.2	-2.06485E-004	1.00845E-003	0.00000E+000	0.00000E+000	-5.33797E-004	9	...........
	161	32.4	9.79374E-003	1.01045E-003	0.00000E+000	9.99874E-003	9.66997E-003	9	...........
	162	32.6	1.97940E-002	1.01195E-003	0.00000E+000	1.99975E-002	1.96737E-002	9	...........
	163	32.8	2.97942E-002	1.01345E-003	0.00000E+000	2.99962E-002	2.96774E-002	9	...........
	164	33	3.99944E-002	1.01528E-003	0.00000E+000	3.99949E-002	3.94810E-002	9	...........
	165	33.2	4.99947E-002	1.01612E-003	0.00000E+000	4.99937E-002	4.96848E-002	9	...........
	166	33.4	5.99949E-002	1.01778E-003	0.00000E+000	5.99924E-002	5.96885E-002	9	...........
	167	33.6	6.99951E-002	1.01828E-003	0.00000E+000	6.99912E-002	6.94921E-002	9	...........
	168	33.8	7.97953E-002	1.01895E-003	0.00000E+000	7.99899E-002	7.96959E-002	9	...........
	169	34	8.97956E-002	1.01978E-003	0.00000E+000	8.99886E-002	8.94995E-002	9	...........
	170	34.2	9.97958E-002	1.02012E-003	0.00000E+000	9.99874E-002	9.93031E-002	9	...........
	171	34.4	1.09996E-001	1.02078E-003	0.00000E+000	1.09986E-001	1.09507E-001	9	...........
	172	34.6	1.19796E-001	1.02095E-003	0.00000E+000	1.19985E-001	1.19511E-001	9	...........
	173	34.8	1.29796E-001	1.02112E-003	0.00000E+000	1.29984E-001	1.29514E-001	9	...........
	174	35	1.39797E-001	1.02112E-003	0.00000E+000	1.39982E-001	1.39518E-001	9	...........
	175	35.2	1.49597E-001	1.02095E-003	0.00000E+000	1.49981E-001	1.49322E-001	9	...........
	176	35.4	1.59997E-001	1.02095E-003	0.00000E+000	1.59980E-001	1.59525E-001	9	...........
	177	35.6	1.69797E-001	1.02028E-003	0.00000E+000	1.69979E-001	1.69529E-001	9	...........
	178	35.8	1.79798E-001	1.01945E-003	0.00000E+000	1.79977E-001	1.79533E-001	9	...........
	179	36	1.89798E-001	1.01912E-003	0.00000E+000	1.89976E-001	1.89536E-001	9	...........
	180	36.2	1.99798E-001	1.01862E-003	0.00000E+000	1.99975E-001	1.99540E-001	9	...........
	181	36.4	2.09598E-001	1.01795E-003	0.00000E+000	2.10023E-001	2.09544E-001	9	...........
	182	36.6	2.19799E-001	1.01678E-003	0.00000E+000	2.20022E-001	2.19548E-001	9	...........
	183	36.8	2.29799E-001	1.01578E-003	0.00000E+000	2.30021E-001	2.29551E-001	9	...........
	184	37	2.39799E-001	1.01445E-003	0.00000E+000	2.40020E-001	2.39555E-001	9	...........
	185	37.2	2.49799E-001	1.01278E-003	0.00000E+000	2.50018E-001	2.49359E-001	9	...........
	186	37.4	2.59799E-001	1.01078E-003	0.00000E+000	2.60017E-001	2.59562E-001	9	...........
	187	37.6	2.69800E-001	1.00945E-003	0.00000E+000	2.70016E-001	2.69566E-001	9	...........
	188	37.8	2.79800E-001	1.00728E-003	0.00000E+000	2.80015E-001	2.79370E-001	9	...........
	189	38	2.89600E-001	1.00528E-003	0.00000E+000	2.90013E-001	2.89373E-001	9	...........
	190	38.2	2.99800E-001	1.00311E-003	0.00000E+000	3.00012E-001	2.99377E-001	9	...........
	191	38.4	3.09601E-001	1.00045E-003	0.00000E+000	3.10011E-001	3.09381E-001	9	...........
	192	38.6	3.19801E-001	9.97946E-004	0.00000E+000	3.20010E-001	3.19585E-001	9	...........
	193	38.8	3.29601E-001	9.95279E-004	0.00000E+000	3.30008E-001	3.29388E-001	9	...........
	194	39	3.39801E-001	9.92778E-004	0.00000E+000	3.40007E-001	3.39392E-001	9	...........
	195	39.2	3.49801E-001	9.89945E-004	0.00000E+000	3.50006E-001	3.49195E-001	9	...........
	196	39.4	3.59802E-001	9.86944E-004	0.00000E+000	3.60005E-001	3.59399E-001	9	...........
	197	39.6	3.69402E-001	9.83776E-004	0.00000E+000	3.70003E-001	3.69403E-001	9	...........
	198	39.8	3.79602E-001	9.80609E-004	0.00000E+000	3.80002E-001	3.79207E-001	9	...........
	199	40	3.89602E-001	9.77442E-004	0.00000E+000	3.90001E-001	3.89410E-001	9	...........
	200	40.2	3.99603E-001	9.73941E-004	0.00000E+000	3.99999E-001	3.99414E-001	9	...........
	201	40.4	4.09603E-001	9.70774E-004	0.00000E+000	4.09998E-001	4.09218E-001	9	...........
	202	40.6	4.19603E-001	9.67439E-004	0.00000E+000	4.19997E-001	4.19221E-001	9	...........
	203	40.8	4.29603E-001	9.64272E-004	0.00000E+000	4.29996E-001	4.29425E-001	9	...........
	204	41	4.39804E-001	9.60771E-004	0.00000E+000	4.39994E-001	4.39229E-001	9	...........
	205	41.2	4.49404E-001	9.57604E-004	0.00000E+000	4.49993E-001	4.49433E-001	9	...........
	206	41.4	4.59604E-001	9.54103E-004	0.00000E+000	4.59992E-001	4.59236E-001	9	...........
	207	41.6	4.69604E-001	9.50769E-004	0.00000E+000	4.69991E-001	4.69240E-001	9	...........
	208	41.8	4.79604E-001	9.47768E-004	0.00000E+000	4.79989E-001	4.79244E-001	9	...........
	209	42	4.89605E-001	9.44934E-004	0.00000E+000	4.89988E-001	4.89247E-001	9	...........
	210	42.2	4.99605E-001	9.41934E-004	0.00000E+000	4.99987E-001	4.99251E-001	9	...........
	211	42.4	5.09405E-001	9.38933E-004	0.00000E+000	5.09986E-001	5.09255E-001	9	...........
	212	42.6	5.19405E-001	9.36266E-004	0.00000E+000	5.19984E-001	5.19258E-001	9	...........
	213	42.8	5.29406E-001	9.33598E-004	0.00000E+000	5.29983E-001	5.29062E-001	9	...........
	214	43	5.39606E-001	9.31264E-004	0.00000E+000	5.39982E-001	5.39066E-001	9	...........
	215	43.2	5.49406E-001	9.29097E-004	0.00000E+000	5.49981E-001	5.49269E-001	9	...........
	216	43.4	5.59406E-001	9.26430E-004	0.00000E+000	5.59979E-001	5.59273E-001	9	...........
	217	43.6	5.69606E-001	9.24930E-004	0.00000E+000	5.69978E-001	5.69277E-001	9	...........
	218	43.8	5.79407E-001	9.23429E-004	0.00000E+000	5.79977E-001	5.79280E-001	9	...........
	219	44	5.89407E-001	9.21762E-004	0.00000E+000	5.89975E-001	5.89084E-001	9	...........
	220	44.2	5.99607E-001	9.20762E-004	0.00000E+000	5.99974E-001	5.99288E-001	9	...........
	221	44.4	6.09407E-001	9.20095E-004	0.00000E+000	6.10023E-001	6.09292E-001	9	...........
	222	44.6	6.19608E-001	9.18928E-004	0.00000E+000	6.20022E-001	6.19095E-001	9	...........
	223	44.8	6.29608E-001	9.18095E-004	0.00000E+000	6.30020E-001	6.29299E-001	9	...........
	224	45	6.39608E-001	9.17428E-004	0.00000E+000	6.40019E-001	6.39103E-001	9	...........
	225	45.2	6.49608E-001	9.16761E-004	0.00000E+000	6.50018E-001	6.49106E-001	9	...........
	226	45.4	6.59409E-001	9.16261E-004	0.00000E+000	6.60017E-001	6.59310E-001	9	...........
	227	45.6	6.69409E-001	9.15594E-004	0.00000E+000	6.70015E-001	6.69114E-001	9	...........
	228	45.8	6.79609E-001	9.15428E-004	0.00000E+000	6.80014E-001	6.79117E-001	9	...........
	229	46	6.89409E-001	9.15428E-004	0.00000E+000	6.90013E-001	6.89121E-001	9	...........
	230	46.2	6.99409E-001	9.15428E-004	0.00000E+000	7.00012E-001	6.99125E-001	9	...........
	231	46.4	7.09210E-001	9.15594E-004	0.00000E+000	7.10010E-001	7.09129E-001	9	...........
	232	46.6	7.19610E-001	9.15594E-004	0.00000E+000	7.20009E-001	7.19132E-001	9	...........
	233	46.8	7.29410E-001	9.16594E-004	0.00000E+000	7.30008E-001	7.28936E-001	9	...........
	234	47	7.39610E-001	9.17095E-004	0.00000E+000	7.40007E-001	7.39140E-001	9	...........
	235	47.2	7.49611E-001	9.18262E-004	0.00000E+000	7.50005E-001	7.48943E-001	9	...........
	236	47.4	7.59611E-001	9.19595E-004	0.00000E+000	7.60004E-001	7.59147E-001	9	...........
	237	47.6	7.69411E-001	9.20929E-004	0.00000E+000	7.70003E-001	7.69151E-001	9	...........
	238	47.8	7.79411E-001	9.23429E-004	0.00000E+000	7.80001E-001	7.79154E-001	9	...........
	239	48	7.89611E-001	9.25763E-004	0.00000E+000	7.90000E-001	7.88958E-001	9	...........
	240	48.2	7.99412E-001	9.28597E-004	0.00000E+000	7.99999E-001	7.98962E-001	9	...........
CURVE2	TABLE
	Pt	T	Vf	Im	Vu	Sig	Ach	IERange	Over
	#	s	V vs. Ref.	A	V	V	V	#	bits
	241	48.4	7.89011E-001	6.62870E-004	0.00000E+000	7.90000E-001	7.88958E-001	9	...........
	242	48.6	7.79211E-001	4.60657E-004	0.00000E+000	7.80001E-001	7.78954E-001	9	...........
	243	48.8	7.69211E-001	2.98287E-004	0.00000E+000	7.70003E-001	7.69151E-001	9	...........
	244	49	7.59011E-001	1.69743E-004	0.00000E+000	7.60004E-001	7.59147E-001	8	...........
	245	49.2	7.49211E-001	5.58332E-005	0.00000E+000	7.50005E-001	7.49143E-001	8	...........
	246	49.4	7.39210E-001	-3.51710E-005	0.00000E+000	7.40007E-001	7.39140E-001	8	...........
	247	49.6	7.29210E-001	-5.47457E-005	0.00000E+000	7.30008E-001	7.29136E-001	7	....ih..i..
	248	49.8	7.19010E-001	-1.63288E-004	0.00000E+000	7.20009E-001	7.19132E-001	8	...........
	249	50	7.09010E-001	-2.28666E-004	0.00000E+000	7.10010E-001	7.09129E-001	8	...........
	250	50.2	6.99209E-001	-2.74109E-004	0.00000E+000	7.00012E-001	6.99125E-001	8	...........
	251	50.4	6.89209E-001	-3.12675E-004	0.00000E+000	6.90013E-001	6.89121E-001	8	...........
	252	50.6	6.79209E-001	-3.45564E-004	0.00000E+000	6.80014E-001	6.79117E-001	8	...........
	253	50.8	6.69209E-001	-3.73695E-004	0.00000E+000	6.70015E-001	6.69314E-001	8	...........
	254	51	6.59409E-001	-3.97936E-004	0.00000E+000	6.60017E-001	6.59310E-001	8	...........
	255	51.2	6.49408E-001	-4.18871E-004	0.00000E+000	6.50018E-001	6.49106E-001	8	...........
	256	51.4	6.39208E-001	-4.37386E-004	0.00000E+000	6.40019E-001	6.38903E-001	8	...........
	257	51.6	6.29208E-001	-4.53513E-004	0.00000E+000	6.30020E-001	6.29299E-001	8	...........
	258	51.8	6.19208E-001	-4.04873E-004	0.00000E+000	6.20022E-001	6.19095E-001	9	...........
	259	52	6.09207E-001	-4.87655E-004	0.00000E+000	6.10023E-001	6.09092E-001	8	...........
	260	52.2	5.99407E-001	-4.25711E-004	0.00000E+000	6.00024E-001	5.99288E-001	9	...........
	261	52.4	5.89407E-001	-5.04895E-004	0.00000E+000	5.89975E-001	5.89084E-001	9	...........
	262	52.6	5.79207E-001	-5.14564E-004	0.00000E+000	5.79977E-001	5.79080E-001	9	...........
	263	52.8	5.69206E-001	-5.24233E-004	0.00000E+000	5.69978E-001	5.69277E-001	9	...........
	264	53	5.59206E-001	-5.33235E-004	0.00000E+000	5.59979E-001	5.59073E-001	9	...........
	265	53.2	5.49206E-001	-5.42237E-004	0.00000E+000	5.49981E-001	5.49269E-001	9	...........
	266	53.4	5.39406E-001	-5.50739E-004	0.00000E+000	5.39982E-001	5.39266E-001	9	...........
	267	53.6	5.29206E-001	-5.59074E-004	0.00000E+000	5.29983E-001	5.29262E-001	9	...........
	268	53.8	5.19405E-001	-5.67243E-004	0.00000E+000	5.19984E-001	5.19258E-001	9	...........
	269	54	5.09205E-001	-5.75578E-004	0.00000E+000	5.09986E-001	5.09255E-001	9	...........
	270	54.2	4.99205E-001	-5.83580E-004	0.00000E+000	4.99987E-001	4.99251E-001	9	...........
	271	54.4	4.89405E-001	-5.91582E-004	0.00000E+000	4.89988E-001	4.89447E-001	9	...........
	272	54.6	4.79204E-001	-5.99583E-004	0.00000E+000	4.79989E-001	4.79244E-001	9	...........
	273	54.8	4.69404E-001	-6.07419E-004	0.00000E+000	4.69991E-001	4.69240E-001	9	...........
	274	55	4.59404E-001	-6.15754E-004	0.00000E+000	4.59992E-001	4.59436E-001	9	...........
	275	55.2	4.49204E-001	-6.23589E-004	0.00000E+000	4.49993E-001	4.49433E-001	9	...........
	276	55.4	4.39404E-001	-6.31591E-004	0.00000E+000	4.39994E-001	4.39429E-001	9	...........
	277	55.6	4.29403E-001	-6.39426E-004	0.00000E+000	4.29996E-001	4.29425E-001	9	...........
	278	55.8	4.19203E-001	-6.47428E-004	0.00000E+000	4.19997E-001	4.19421E-001	9	...........
	279	56	4.09403E-001	-6.55596E-004	0.00000E+000	4.09998E-001	4.09418E-001	9	...........
	280	56.2	3.99403E-001	-6.63431E-004	0.00000E+000	3.99999E-001	3.99414E-001	9	...........
	281	56.4	3.89402E-001	-6.71600E-004	0.00000E+000	3.90001E-001	3.89410E-001	9	...........
	282	56.6	3.79202E-001	-6.79768E-004	0.00000E+000	3.80002E-001	3.79407E-001	9	...........
	283	56.8	3.69402E-001	-6.87604E-004	0.00000E+000	3.70003E-001	3.69403E-001	9	...........
	284	57	3.59402E-001	-6.95772E-004	0.00000E+000	3.60005E-001	3.59399E-001	9	...........
	285	57.2	3.49601E-001	-7.03440E-004	0.00000E+000	3.50006E-001	3.49396E-001	9	...........
	286	57.4	3.39601E-001	-7.11609E-004	0.00000E+000	3.40007E-001	3.39392E-001	9	...........
	287	57.6	3.29201E-001	-7.19611E-004	0.00000E+000	3.30008E-001	3.29388E-001	9	...........
	288	57.8	3.19401E-001	-7.27279E-004	0.00000E+000	3.20010E-001	3.19384E-001	9	...........
	289	58	3.09401E-001	-7.35448E-004	0.00000E+000	3.10011E-001	3.09581E-001	9	...........
	290	58.2	2.99400E-001	-7.43283E-004	0.00000E+000	3.00012E-001	2.99377E-001	9	...........
	291	58.4	2.89400E-001	-7.51118E-004	0.00000E+000	2.90013E-001	2.89573E-001	9	...........
	292	58.6	2.79400E-001	-7.58786E-004	0.00000E+000	2.80015E-001	2.79370E-001	9	...........
	293	58.8	2.69400E-001	-7.66621E-004	0.00000E+000	2.70016E-001	2.69366E-001	9	...........
	294	59	2.59599E-001	-7.74623E-004	0.00000E+000	2.60017E-001	2.59362E-001	9	...........
	295	59.2	2.49599E-001	-7.82292E-004	0.00000E+000	2.50018E-001	2.49359E-001	9	...........
	296	59.4	2.39399E-001	-7.89960E-004	0.00000E+000	2.40020E-001	2.39555E-001	9	...........
	297	59.6	2.29599E-001	-7.97795E-004	0.00000E+000	2.30021E-001	2.29351E-001	9	...........
	298	59.8	2.19399E-001	-8.05130E-004	0.00000E+000	2.20022E-001	2.19548E-001	9	...........
	299	60	2.09398E-001	-8.12632E-004	0.00000E+000	2.10023E-001	2.09544E-001	9	...........
	300	60.2	1.99398E-001	-8.19967E-004	0.00000E+000	2.00025E-001	1.99540E-001	9	...........
	301	60.4	1.89598E-001	-8.27302E-004	0.00000E+000	1.90026E-001	1.89536E-001	9	...........
	302	60.6	1.79398E-001	-8.35304E-004	0.00000E+000	1.79977E-001	1.79333E-001	9	...........
	303	60.8	1.69397E-001	-8.42139E-004	0.00000E+000	1.69979E-001	1.69529E-001	9	...........
	304	61	1.59597E-001	-8.49140E-004	0.00000E+000	1.59980E-001	1.59525E-001	9	...........
	305	61.2	1.49597E-001	-8.56475E-004	0.00000E+000	1.49981E-001	1.49522E-001	9	...........
	306	61.4	1.39397E-001	-8.63143E-004	0.00000E+000	1.39982E-001	1.39518E-001	9	...........
	307	61.6	1.29596E-001	-8.70145E-004	0.00000E+000	1.29984E-001	1.29314E-001	9	...........
	308	61.8	1.19596E-001	-8.76480E-004	0.00000E+000	1.19985E-001	1.19711E-001	9	...........
	309	62	1.09596E-001	-8.83148E-004	0.00000E+000	1.09986E-001	1.09507E-001	9	...........
	310	62.2	9.95958E-002	-8.89650E-004	0.00000E+000	9.99874E-002	9.95032E-002	9	...........
	311	62.4	8.93956E-002	-8.95818E-004	0.00000E+000	8.99886E-002	8.96996E-002	9	...........
	312	62.6	7.95953E-002	-9.02152E-004	0.00000E+000	7.99899E-002	7.96959E-002	9	...........
	313	62.8	6.93951E-002	-9.08154E-004	0.00000E+000	6.99912E-002	6.94921E-002	9	...........
	314	63	5.95949E-002	-9.14322E-004	0.00000E+000	5.99924E-002	5.96885E-002	9	...........
	315	63.2	4.95946E-002	-9.20156E-004	0.00000E+000	4.99937E-002	4.94847E-002	9	...........
	316	63.4	3.95944E-002	-9.25824E-004	0.00000E+000	3.99949E-002	3.94810E-002	9	...........
	317	63.6	2.95942E-002	-9.31659E-004	0.00000E+000	2.99962E-002	2.96774E-002	9	...........
	318	63.8	1.97940E-002	-9.37160E-004	0.00000E+000	1.99975E-002	1.96737E-002	9	...........
	319	64	9.79374E-003	-9.42662E-004	0.00000E+000	9.99874E-003	9.87005E-003	9	...........
	320	64.2	-4.06489E-004	-9.48163E-004	0.00000E+000	0.00000E+000	-5.33797E-004	9	...........
	321	64.4	-1.02067E-002	-9.53497E-004	0.00000E+000	-9.99874E-003	-1.03374E-002	9	...........
	322	64.6	-2.04069E-002	-9.58999E-004	0.00000E+000	-1.99975E-002	-2.01410E-002	9	...........
	323	64.8	-3.04072E-002	-9.63666E-004	0.00000E+000	-2.99962E-002	-3.03448E-002	9	...........
	324	65	-4.06074E-002	-9.69168E-004	0.00000E+000	-3.99949E-002	-4.05486E-002	9	...........
	325	65.2	-5.04076E-002	-9.74169E-004	0.00000E+000	-4.99937E-002	-5.03522E-002	9	...........
	326	65.4	-6.02079E-002	-9.79003E-004	0.00000E+000	-5.99924E-002	-6.01558E-002	9	...........
	327	65.6	-7.04081E-002	-9.83838E-004	0.00000E+000	-6.99912E-002	-7.01595E-002	9	...........
	328	65.8	-8.04083E-002	-9.89005E-004	0.00000E+000	-7.99899E-002	-8.03633E-002	9	...........
	329	66	-9.04085E-002	-9.93173E-004	0.00000E+000	-8.99886E-002	-9.01669E-002	9	...........
	330	66.2	-1.00409E-001	-9.97674E-004	0.00000E+000	-9.99874E-002	-1.00371E-001	9	...........
	331	66.4	-1.10209E-001	-1.00218E-003	0.00000E+000	-1.09986E-001	-1.10174E-001	9	...........
	332	66.6	-1.20409E-001	-1.00701E-003	0.00000E+000	-1.19985E-001	-1.20378E-001	9	...........
	333	66.8	-1.30209E-001	-1.01134E-003	0.00000E+000	-1.29984E-001	-1.30182E-001	9	...........
	334	67	-1.40410E-001	-1.01584E-003	0.00000E+000	-1.39982E-001	-1.39985E-001	9	...........
	335	67.2	-1.50410E-001	-1.02035E-003	0.00000E+000	-1.49981E-001	-1.50189E-001	9	...........
	336	67.4	-1.60410E-001	-1.02451E-003	0.00000E+000	-1.59980E-001	-1.60193E-001	9	...........
	337	67.6	-1.70210E-001	-1.02835E-003	0.00000E+000	-1.69979E-001	-1.69996E-001	9	...........
	338	67.8	-1.80411E-001	-1.03268E-003	0.00000E+000	-1.79977E-001	-1.80200E-001	9	...........
	339	68	-1.90211E-001	-1.03652E-003	0.00000E+000	-1.89976E-001	-1.90204E-001	9	...........
	340	68.2	-2.00211E-001	-1.04085E-003	0.00000E+000	-1.99975E-001	-2.00208E-001	9	...........
	341	68.4	-2.10211E-001	-1.04418E-003	0.00000E+000	-2.09973E-001	-2.10211E-001	9	...........
	342	68.6	-2.20211E-001	-1.04902E-003	0.00000E+000	-2.20022E-001	-2.20215E-001	9	...........
	343	68.8	-2.30212E-001	-1.05269E-003	0.00000E+000	-2.30021E-001	-2.30019E-001	9	...........
	344	69	-2.40412E-001	-1.05569E-003	0.00000E+000	-2.40020E-001	-2.40222E-001	9	...........
	345	69.2	-2.50212E-001	-1.05935E-003	0.00000E+000	-2.50018E-001	-2.50026E-001	9	...........
	346	69.4	-2.60212E-001	-1.06302E-003	0.00000E+000	-2.60017E-001	-2.60230E-001	9	...........
	347	69.6	-2.70213E-001	-1.06652E-003	0.00000E+000	-2.70016E-001	-2.70033E-001	9	...........
	348	69.8	-2.80213E-001	-1.06969E-003	0.00000E+000	-2.80015E-001	-2.80037E-001	9	...........
	349	70	-2.90213E-001	-1.07269E-003	0.00000E+000	-2.90013E-001	-2.90041E-001	9	...........
	350	70.2	-3.00213E-001	-1.07619E-003	0.00000E+000	-3.00012E-001	-3.00045E-001	9	...........
	351	70.4	-3.10214E-001	-1.07903E-003	0.00000E+000	-3.10011E-001	-3.10248E-001	9	...........
	352	70.6	-3.20214E-001	-1.08186E-003	0.00000E+000	-3.20010E-001	-3.20052E-001	9	...........
	353	70.8	-3.30014E-001	-1.08503E-003	0.00000E+000	-3.30008E-001	-3.30056E-001	9	...........
	354	71	-3.40414E-001	-1.08736E-003	0.00000E+000	-3.40007E-001	-3.40059E-001	9	...........
	355	71.2	-3.50214E-001	-1.09036E-003	0.00000E+000	-3.50006E-001	-3.50063E-001	9	...........
	356	71.4	-3.60215E-001	-1.09270E-003	0.00000E+000	-3.60005E-001	-3.60067E-001	9	...........
	357	71.6	-3.70015E-001	-1.09470E-003	0.00000E+000	-3.70003E-001	-3.69870E-001	9	...........
	358	71.8	-3.80215E-001	-1.09703E-003	0.00000E+000	-3.80002E-001	-3.79874E-001	9	...........
	359	72	-3.90015E-001	-1.09920E-003	0.00000E+000	-3.90001E-001	-3.89878E-001	9	...........
	360	72.2	-4.00216E-001	-1.10136E-003	0.00000E+000	-3.99999E-001	-4.00081E-001	9	...........
	361	72.4	-4.10016E-001	-1.10270E-003	0.00000E+000	-4.09998E-001	-4.10085E-001	9	...........
	362	72.6	-4.20216E-001	-1.10403E-003	0.00000E+000	-4.19997E-001	-4.20089E-001	9	...........
	363	72.8	-4.30016E-001	-1.10570E-003	0.00000E+000	-4.29996E-001	-4.29893E-001	9	...........
	364	73	-4.40016E-001	-1.10670E-003	0.00000E+000	-4.39994E-001	-4.39896E-001	9	...........
	365	73.2	-4.50217E-001	-1.10787E-003	0.00000E+000	-4.49993E-001	-4.49900E-001	9	...........
	366	73.4	-4.60017E-001	-1.10937E-003	0.00000E+000	-4.59992E-001	-4.59904E-001	9	...........
	367	73.6	-4.70017E-001	-1.10987E-003	0.00000E+000	-4.69991E-001	-4.69907E-001	9	...........
	368	73.8	-4.80217E-001	-1.11053E-003	0.00000E+000	-4.79989E-001	-4.79911E-001	9	...........
	369	74	-4.90018E-001	-1.11120E-003	0.00000E+000	-4.89988E-001	-4.89915E-001	9	...........
	370	74.2	-5.00218E-001	-1.11153E-003	0.00000E+000	-4.99987E-001	-4.99918E-001	9	...........
	371	74.4	-5.10018E-001	-1.11220E-003	0.00000E+000	-5.09986E-001	-5.09922E-001	9	...........
	372	74.6	-5.20018E-001	-1.11270E-003	0.00000E+000	-5.19984E-001	-5.19926E-001	9	...........
	373	74.8	-5.30019E-001	-1.11287E-003	0.00000E+000	-5.29983E-001	-5.30130E-001	9	...........
	374	75	-5.40219E-001	-1.11303E-003	0.00000E+000	-5.39982E-001	-5.39933E-001	9	...........
	375	75.2	-5.50019E-001	-1.11287E-003	0.00000E+000	-5.49981E-001	-5.49937E-001	9	...........
	376	75.4	-5.60219E-001	-1.11353E-003	0.00000E+000	-5.59979E-001	-5.59941E-001	9	...........
	377	75.6	-5.70019E-001	-1.11337E-003	0.00000E+000	-5.69978E-001	-5.69744E-001	9	...........
	378	75.8	-5.80020E-001	-1.11353E-003	0.00000E+000	-5.79977E-001	-5.79548E-001	9	...........
	379	76	-5.90020E-001	-1.11420E-003	0.00000E+000	-5.89975E-001	-5.89952E-001	9	...........
	380	76.2	-5.99820E-001	-1.11470E-003	0.00000E+000	-5.99974E-001	-5.99955E-001	9	...........
	381	76.4	-6.10020E-001	-1.11587E-003	0.00000E+000	-6.09973E-001	-6.09959E-001	9	...........
	382	76.6	-6.20021E-001	-1.11720E-003	0.00000E+000	-6.20022E-001	-6.19963E-001	9	...........
	383	76.8	-6.30021E-001	-1.11837E-003	0.00000E+000	-6.30020E-001	-6.29966E-001	9	...........
	384	77	-6.39821E-001	-1.11987E-003	0.00000E+000	-6.40019E-001	-6.39770E-001	9	...........
	385	77.2	-6.49821E-001	-1.12120E-003	0.00000E+000	-6.50018E-001	-6.49574E-001	9	...........
	386	77.4	-6.59822E-001	-1.12337E-003	0.00000E+000	-6.60017E-001	-6.59777E-001	9	...........
	387	77.6	-6.69822E-001	-1.12570E-003	0.00000E+000	-6.70015E-001	-6.69781E-001	9	...........
	388	77.8	-6.79822E-001	-1.12837E-003	0.00000E+000	-6.80014E-001	-6.79985E-001	9	...........
	389	78	-6.89822E-001	-1.13204E-003	0.00000E+000	-6.90013E-001	-6.89989E-001	9	...........
	390	78.2	-7.00022E-001	-1.13621E-003	0.00000E+000	-7.00012E-001	-6.99992E-001	9	...........
	391	78.4	-7.09623E-001	-1.14104E-003	0.00000E+000	-7.10010E-001	-7.09796E-001	9	...........
	392	78.6	-7.20023E-001	-1.14621E-003	0.00000E+000	-7.20009E-001	-7.19800E-001	9	...........
	393	78.8	-7.30023E-001	-1.15171E-003	0.00000E+000	-7.30008E-001	-7.29803E-001	9	...........
	394	79	-7.39823E-001	-1.15888E-003	0.00000E+000	-7.40007E-001	-7.39807E-001	9	...........
	395	79.2	-7.49824E-001	-1.16638E-003	0.00000E+000	-7.50005E-001	-7.49611E-001	9	...........
	396	79.4	-7.60024E-001	-1.17488E-003	0.00000E+000	-7.60004E-001	-7.59614E-001	9	...........
	397	79.6	-7.69824E-001	-1.18505E-003	0.00000E+000	-7.70003E-001	-7.69818E-001	9	...........
	398	79.8	-7.80024E-001	-1.19555E-003	0.00000E+000	-7.80001E-001	-7.79622E-001	9	...........
	399	80	-7.89824E-001	-1.20789E-003	0.00000E+000	-7.90000E-001	-7.89625E-001	9	...........
	400	80.2	-7.99825E-001	-1.22156E-003	0.00000E+000	-7.99999E-001	-7.99829E-001	9	...........
	401	80.4	-7.89624E-001	-9.11488E-004	0.00000E+000	-7.90000E-001	-7.89625E-001	9	...........
	402	80.6	-7.79424E-001	-6.70100E-004	0.00000E+000	-7.80001E-001	-7.79622E-001	9	...........
	403	80.8	-7.69624E-001	-4.72555E-004	0.00000E+000	-7.70003E-001	-7.69618E-001	9	...........
	404	81	-7.59624E-001	-3.07684E-004	0.00000E+000	-7.60004E-001	-7.59614E-001	9	...........
	405	81.2	-7.49624E-001	-1.73522E-004	0.00000E+000	-7.50005E-001	-7.49811E-001	8	...........
	406	81.4	-7.39623E-001	-5.12315E-005	0.00000E+000	-7.40007E-001	-7.39607E-001	8	...........
	407	81.6	-7.29823E-001	4.96227E-005	0.00000E+000	-7.30008E-001	-7.29803E-001	8	...........
	408	81.8	-7.19823E-001	1.36036E-004	0.00000E+000	-7.20009E-001	-7.19800E-001	8	...........
	409	82	-7.09623E-001	2.10529E-004	0.00000E+000	-7.10010E-001	-7.09796E-001	8	...........
	410	82.2	-6.99622E-001	2.74955E-004	0.00000E+000	-7.00012E-001	-6.99792E-001	8	...........
	411	82.4	-6.89622E-001	3.30582E-004	0.00000E+000	-6.90013E-001	-6.89989E-001	8	...........
	412	82.6	-6.79622E-001	3.79332E-004	0.00000E+000	-6.80014E-001	-6.79985E-001	8	...........
	413	82.8	-6.69622E-001	4.21403E-004	0.00000E+000	-6.70015E-001	-6.69781E-001	8	...........
	414	83	-6.59622E-001	4.58199E-004	0.00000E+000	-6.60017E-001	-6.59777E-001	8	...........
	415	83.2	-6.49621E-001	4.27150E-004	0.00000E+000	-6.50018E-001	-6.49774E-001	9	...........
	416	83.4	-6.39821E-001	5.19504E-004	0.00000E+000	-6.40019E-001	-6.39970E-001	9	...........
	417	83.6	-6.29621E-001	5.44510E-004	0.00000E+000	-6.30020E-001	-6.29966E-001	9	...........
	418	83.8	-6.19621E-001	5.66848E-004	0.00000E+000	-6.20022E-001	-6.19963E-001	9	...........
	419	84	-6.09820E-001	5.87520E-004	0.00000E+000	-6.09973E-001	-6.09759E-001	9	...........
	420	84.2	-5.99820E-001	6.05190E-004	0.00000E+000	-5.99974E-001	-5.99955E-001	9	...........
	421	84.4	-5.89820E-001	6.21027E-004	0.00000E+000	-5.89975E-001	-5.89752E-001	9	...........
	422	84.6	-5.79620E-001	6.35697E-004	0.00000E+000	-5.79977E-001	-5.79748E-001	9	...........
	423	84.8	-5.69819E-001	6.49034E-004	0.00000E+000	-5.69978E-001	-5.69944E-001	9	...........
	424	85	-5.59819E-001	6.61370E-004	0.00000E+000	-5.59979E-001	-5.59741E-001	9	...........
	425	85.2	-5.49619E-001	6.72872E-004	0.00000E+000	-5.49981E-001	-5.49937E-001	9	...........
	426	85.4	-5.39819E-001	6.83708E-004	0.00000E+000	-5.39982E-001	-5.39933E-001	9	...........
	427	85.6	-5.29619E-001	6.93877E-004	0.00000E+000	-5.29983E-001	-5.29930E-001	9	...........
	428	85.8	-5.19818E-001	7.03713E-004	0.00000E+000	-5.19984E-001	-5.19926E-001	9	...........
	429	86	-5.09618E-001	7.12715E-004	0.00000E+000	-5.09986E-001	-5.09922E-001	9	...........
	430	86.2	-4.99818E-001	7.22050E-004	0.00000E+000	-4.99987E-001	-4.99918E-001	9	...........
	431	86.4	-4.89818E-001	7.30386E-004	0.00000E+000	-4.89988E-001	-4.89715E-001	9	...........
	432	86.6	-4.79617E-001	7.38887E-004	0.00000E+000	-4.79989E-001	-4.80111E-001	9	...........
	433	86.8	-4.69417E-001	7.47223E-004	0.00000E+000	-4.69991E-001	-4.69907E-001	9	...........
	434	87	-4.59817E-001	7.55391E-004	0.00000E+000	-4.59992E-001	-4.59904E-001	9	...........
	435	87.2	-4.49617E-001	7.63560E-004	0.00000E+000	-4.49993E-001	-4.49900E-001	9	...........
	436	87.4	-4.39817E-001	7.71728E-004	0.00000E+000	-4.39994E-001	-4.39896E-001	9	...........
	437	87.6	-4.30016E-001	7.79397E-004	0.00000E+000	-4.29996E-001	-4.29893E-001	9	...........
	438	87.8	-4.19816E-001	7.87398E-004	0.00000E+000	-4.19997E-001	-4.19889E-001	9	...........
	439	88	-4.09616E-001	7.94900E-004	0.00000E+000	-4.09998E-001	-4.10285E-001	9	...........
	440	88.2	-3.99816E-001	8.02235E-004	0.00000E+000	-3.99999E-001	-4.00081E-001	9	...........
	441	88.4	-3.89815E-001	8.10070E-004	0.00000E+000	-3.90001E-001	-3.90078E-001	9	...........
	442	88.6	-3.79815E-001	8.17572E-004	0.00000E+000	-3.80002E-001	-3.79874E-001	9	...........
	443	88.8	-3.70015E-001	8.24907E-004	0.00000E+000	-3.70003E-001	-3.70070E-001	9	...........
	444	89	-3.60015E-001	8.32242E-004	0.00000E+000	-3.60005E-001	-3.60067E-001	9	...........
	445	89.2	-3.49814E-001	8.39410E-004	0.00000E+000	-3.50006E-001	-3.50063E-001	9	...........
	446	89.4	-3.40014E-001	8.46579E-004	0.00000E+000	-3.40007E-001	-3.40059E-001	9	...........
	447	89.6	-3.29814E-001	8.53247E-004	0.00000E+000	-3.30008E-001	-3.30056E-001	9	...........
	448	89.8	-3.19814E-001	8.60248E-004	0.00000E+000	-3.20010E-001	-3.20052E-001	9	...........
	449	90	-3.10014E-001	8.67250E-004	0.00000E+000	-3.10011E-001	-3.10048E-001	9	...........
	450	90.2	-2.99813E-001	8.73918E-004	0.00000E+000	-3.00012E-001	-3.00045E-001	9	...........
	451	90.4	-2.90013E-001	8.80420E-004	0.00000E+000	-2.90013E-001	-2.90241E-001	9	...........
	452	90.6	-2.80013E-001	8.87088E-004	0.00000E+000	-2.80015E-001	-2.80037E-001	9	...........
	453	90.8	-2.69813E-001	8.93756E-004	0.00000E+000	-2.70016E-001	-2.70233E-001	9	...........
	454	91	-2.60012E-001	8.99924E-004	0.00000E+000	-2.60017E-001	-2.60230E-001	9	...........
	455	91.2	-2.50212E-001	9.06259E-004	0.00000E+000	-2.50018E-001	-2.50026E-001	9	...........
	456	91.4	-2.39812E-001	9.12427E-004	0.00000E+000	-2.40020E-001	-2.40222E-001	9	...........
	457	91.6	-2.30012E-001	9.17928E-004	0.00000E+000	-2.30021E-001	-2.30019E-001	9	...........
	458	91.8	-2.20011E-001	9.23763E-004	0.00000E+000	-2.20022E-001	-2.20215E-001	9	...........
	459	92	-2.10211E-001	9.29764E-004	0.00000E+000	-2.09973E-001	-2.10211E-001	9	...........
	460	92.2	-2.00011E-001	9.34765E-004	0.00000E+000	-1.99975E-001	-2.00008E-001	9	...........
	461	92.4	-1.90011E-001	9.40100E-004	0.00000E+000	-1.89976E-001	-1.90204E-001	9	...........
	462	92.6	-1.80011E-001	9.45101E-004	0.00000E+000	-1.79977E-001	-1.80200E-001	9	...........
	463	92.8	-1.70410E-001	9.50102E-004	0.00000E+000	-1.69979E-001	-1.70197E-001	9	...........
	464	93	-1.59810E-001	9.54770E-004	0.00000E+000	-1.59980E-001	-1.60193E-001	9	...........
	465	93.2	-1.50010E-001	9.58937E-004	0.00000E+000	-1.49981E-001	-1.50189E-001	9	...........
	466	93.4	-1.39810E-001	9.63605E-004	0.00000E+000	-1.39982E-001	-1.40185E-001	9	...........
	467	93.6	-1.30209E-001	9.68106E-004	0.00000E+000	-1.29984E-001	-1.30182E-001	9	...........
	468	93.8	-1.20009E-001	9.72107E-004	0.00000E+000	-1.19985E-001	-1.20178E-001	9	...........
	469	94	-1.10009E-001	9.76608E-004	0.00000E+000	-1.09986E-001	-1.10174E-001	9	...........
	470	94.2	-1.00009E-001	9.80109E-004	0.00000E+000	-9.99874E-002	-1.00171E-001	9	...........
	471	94.4	-9.00085E-002	9.83776E-004	0.00000E+000	-8.99886E-002	-9.03670E-002	9	...........
	472	94.6	-8.02083E-002	9.87111E-004	0.00000E+000	-7.99899E-002	-8.03633E-002	9	...........
	473	94.8	-7.00081E-002	9.90611E-004	0.00000E+000	-6.99912E-002	-7.01595E-002	9	...........
	474	95	-6.02079E-002	9.93779E-004	0.00000E+000	-5.99924E-002	-6.03559E-002	9	...........
	475	95.2	-5.00076E-002	9.96779E-004	0.00000E+000	-4.99937E-002	-5.03522E-002	9	...........
	476	95.4	-4.00074E-002	9.99613E-004	0.00000E+000	-3.99949E-002	-4.01484E-002	9	...........
	477	95.6	-3.02072E-002	1.00228E-003	0.00000E+000	-2.99962E-002	-2.99447E-002	9	...........
	478	95.8	-2.02069E-002	1.00495E-003	0.00000E+000	-1.99975E-002	-2.01410E-002	9	...........
	479	96	-1.00067E-002	1.00712E-003	0.00000E+000	-9.99874E-003	-1.03374E-002	9	...........
	480	96.2	-6.48014E-006	1.00928E-003	0.00000E+000	0.00000E+000	-3.33723E-004	9	...........
	481	96.4	9.99375E-003	1.01128E-003	0.00000E+000	9.99874E-003	9.46990E-003	9	...........
	482	96.6	1.97940E-002	1.01312E-003	0.00000E+000	1.99975E-002	1.96737E-002	9	...........
	483	96.8	2.99942E-002	1.01495E-003	0.00000E+000	2.99962E-002	2.94773E-002	9	...........
	484	97	3.97944E-002	1.01645E-003	0.00000E+000	3.99949E-002	3.96811E-002	9	...........
	485	97.2	4.99947E-002	1.01728E-003	0.00000E+000	4.99937E-002	4.94847E-002	9	...........
	486	97.4	5.97949E-002	1.01862E-003	0.00000E+000	5.99924E-002	5.96885E-002	9	...........
	487	97.6	6.97951E-002	1.01962E-003	0.00000E+000	6.99912E-002	6.96922E-002	9	...........
	488	97.8	7.97953E-002	1.02028E-003	0.00000E+000	7.99899E-002	7.96959E-002	9	...........
	489	98	8.97956E-002	1.02112E-003	0.00000E+000	8.99886E-002	8.94995E-002	9	...........
	490	98.2	9.97958E-002	1.02145E-003	0.00000E+000	9.99874E-002	9.95032E-002	9	...........
	491	98.4	1.09996E-001	1.02245E-003	0.00000E+000	1.09986E-001	1.09507E-001	9	...........
	492	98.6	1.19796E-001	1.02262E-003	0.00000E+000	1.19985E-001	1.19511E-001	9	...........
	493	98.8	1.29796E-001	1.02295E-003	0.00000E+000	1.29984E-001	1.29514E-001	9	...........
	494	99	1.39797E-001	1.02295E-003	0.00000E+000	1.39982E-001	1.39718E-001	9	...........
	495	99.2	1.49597E-001	1.02279E-003	0.00000E+000	1.49981E-001	1.49522E-001	9	...........
	496	99.4	1.59797E-001	1.02262E-003	0.00000E+000	1.59980E-001	1.59725E-001	9	...........
	497	99.6	1.69597E-001	1.02195E-003	0.00000E+000	1.69979E-001	1.69529E-001	9	...........
	498	99.8	1.79798E-001	1.02145E-003	0.00000E+000	1.79977E-001	1.79733E-001	9	...........
	499	100	1.89598E-001	1.02145E-003	0.00000E+000	1.90026E-001	1.89536E-001	9	...........
	500	100.2	1.99798E-001	1.02078E-003	0.00000E+000	2.00025E-001	1.99540E-001	9	...........
	501	100.4	2.09798E-001	1.01962E-003	0.00000E+000	2.10023E-001	2.09544E-001	9	...........
	502	100.6	2.19799E-001	1.01878E-003	0.00000E+000	2.20022E-001	2.19548E-001	9	...........
	503	100.8	2.29599E-001	1.01745E-003	0.00000E+000	2.30021E-001	2.29351E-001	9	...........
	504	101	2.39799E-001	1.01612E-003	0.00000E+000	2.40020E-001	2.39355E-001	9	...........
	505	101.2	2.49799E-001	1.01462E-003	0.00000E+000	2.50018E-001	2.49359E-001	9	...........
	506	101.4	2.59799E-001	1.01312E-003	0.00000E+000	2.60017E-001	2.59562E-001	9	...........
	507	101.6	2.70000E-001	1.01112E-003	0.00000E+000	2.70016E-001	2.69566E-001	9	...........
	508	101.8	2.79800E-001	1.00928E-003	0.00000E+000	2.80015E-001	2.79370E-001	9	...........
	509	102	2.89800E-001	1.00712E-003	0.00000E+000	2.90013E-001	2.89373E-001	9	...........
	510	102.2	2.99800E-001	1.00478E-003	0.00000E+000	3.00012E-001	2.99377E-001	9	...........
	511	102.4	3.10001E-001	1.00228E-003	0.00000E+000	3.10011E-001	3.09581E-001	9	...........
	512	102.6	3.19801E-001	9.99947E-004	0.00000E+000	3.20010E-001	3.19384E-001	9	...........
	513	102.8	3.29601E-001	9.97613E-004	0.00000E+000	3.30008E-001	3.29388E-001	9	...........
	514	103	3.39601E-001	9.94446E-004	0.00000E+000	3.40007E-001	3.39392E-001	9	...........
	515	103.2	3.49801E-001	9.91612E-004	0.00000E+000	3.50006E-001	3.49596E-001	9	...........
	516	103.4	3.59802E-001	9.88611E-004	0.00000E+000	3.60005E-001	3.59399E-001	9	...........
	517	103.6	3.69602E-001	9.85777E-004	0.00000E+000	3.70003E-001	3.69203E-001	9	...........
	518	103.8	3.79602E-001	9.82443E-004	0.00000E+000	3.80002E-001	3.79407E-001	9	...........
	519	104	3.89602E-001	9.79109E-004	0.00000E+000	3.90001E-001	3.89210E-001	9	...........
	520	104.2	3.99603E-001	9.75608E-004	0.00000E+000	3.99999E-001	3.99414E-001	9	...........
	521	104.4	4.09603E-001	9.72274E-004	0.00000E+000	4.09998E-001	4.09218E-001	9	...........
	522	104.6	4.19603E-001	9.69106E-004	0.00000E+000	4.19997E-001	4.19421E-001	9	...........
	523	104.8	4.29603E-001	9.65606E-004	0.00000E+000	4.29996E-001	4.29425E-001	9	...........
	524	105	4.39604E-001	9.62105E-004	0.00000E+000	4.39994E-001	4.39229E-001	9	...........
	525	105.2	4.49804E-001	9.58604E-004	0.00000E+000	4.49993E-001	4.49433E-001	9	...........
	526	105.4	4.59604E-001	9.55103E-004	0.00000E+000	4.59992E-001	4.59236E-001	9	...........
	527	105.6	4.69604E-001	9.51769E-004	0.00000E+000	4.69991E-001	4.69240E-001	9	...........
	528	105.8	4.79604E-001	9.47935E-004	0.00000E+000	4.79989E-001	4.79244E-001	9	...........
	529	106	4.89605E-001	9.44768E-004	0.00000E+000	4.89988E-001	4.89447E-001	9	...........
	530	106.2	4.99605E-001	9.41934E-004	0.00000E+000	4.99987E-001	4.99451E-001	9	...........
	531	106.4	5.09605E-001	9.38766E-004	0.00000E+000	5.09986E-001	5.09055E-001	9	...........
	532	106.6	5.19405E-001	9.35766E-004	0.00000E+000	5.19984E-001	5.19258E-001	9	...........
	533	106.8	5.29406E-001	9.32932E-004	0.00000E+000	5.29983E-001	5.29262E-001	9	...........
	534	107	5.39606E-001	9.30264E-004	0.00000E+000	5.39982E-001	5.39066E-001	9	...........
	535	107.2	5.49606E-001	9.27930E-004	0.00000E+000	5.49981E-001	5.49069E-001	9	...........
	536	107.4	5.59406E-001	9.25430E-004	0.00000E+000	5.59979E-001	5.59073E-001	9	...........
	537	107.6	5.69406E-001	9.23429E-004	0.00000E+000	5.69978E-001	5.69077E-001	9	...........
	538	107.8	5.79607E-001	9.21596E-004	0.00000E+000	5.79977E-001	5.79280E-001	9	...........
	539	108	5.89607E-001	9.19762E-004	0.00000E+000	5.89975E-001	5.89084E-001	9	...........
	540	108.2	5.99407E-001	9.19095E-004	0.00000E+000	6.00024E-001	5.99288E-001	9	...........
	541	108.4	6.09407E-001	9.17761E-004	0.00000E+000	6.10023E-001	6.09092E-001	9	...........
	542	108.6	6.19608E-001	9.16428E-004	0.00000E+000	6.20022E-001	6.19095E-001	9	...........
	543	108.8	6.29408E-001	9.15428E-004	0.00000E+000	6.30020E-001	6.29299E-001	9	...........
	544	109	6.39608E-001	9.14761E-004	0.00000E+000	6.40019E-001	6.39303E-001	9	...........
	545	109.2	6.49608E-001	9.13761E-004	0.00000E+000	6.50018E-001	6.49306E-001	9	...........
	546	109.4	6.59409E-001	9.12927E-004	0.00000E+000	6.60017E-001	6.59110E-001	9	...........
	547	109.6	6.69609E-001	9.12427E-004	0.00000E+000	6.70015E-001	6.69114E-001	9	...........
	548	109.8	6.79409E-001	9.11927E-004	0.00000E+000	6.80014E-001	6.79318E-001	9	...........
	549	110	6.89409E-001	9.11760E-004	0.00000E+000	6.90013E-001	6.89121E-001	9	...........
	550	110.2	6.99409E-001	9.11760E-004	0.00000E+000	7.00012E-001	6.98925E-001	9	...........
	551	110.4	7.09610E-001	9.11593E-004	0.00000E+000	7.10010E-001	7.09129E-001	9	...........
	552	110.6	7.19410E-001	9.12093E-004	0.00000E+000	7.20009E-001	7.19132E-001	9	...........
	553	110.8	7.29410E-001	9.12760E-004	0.00000E+000	7.30008E-001	7.28936E-001	9	...........
	554	111	7.39410E-001	9.13427E-004	0.00000E+000	7.40007E-001	7.39140E-001	9	...........
	555	111.2	7.49411E-001	9.14927E-004	0.00000E+000	7.50005E-001	7.49143E-001	9	...........
	556	111.4	7.59411E-001	9.15928E-004	0.00000E+000	7.60004E-001	7.59147E-001	9	...........
	557	111.6	7.69611E-001	9.17928E-004	0.00000E+000	7.70003E-001	7.68951E-001	9	...........
	558	111.8	7.79611E-001	9.20262E-004	0.00000E+000	7.80001E-001	7.78954E-001	9	...........
	559	112	7.89411E-001	9.22929E-004	0.00000E+000	7.90000E-001	7.89158E-001	9	...........
	560	112.2	7.99412E-001	9.26097E-004	0.00000E+000	7.99999E-001	7.98962E-001	9	...........
CURVE3	TABLE
	Pt	T	Vf	Im	Vu	Sig	Ach	IERange	Over
	#	s	V vs. Ref.	A	V	V	V	#	bits
	561	112.4	7.89211E-001	6.59536E-004	0.00000E+000	7.90000E-001	7.89158E-001	9	...........
	562	112.6	7.79011E-001	4.56823E-004	0.00000E+000	7.80001E-001	7.78954E-001	9	...........
	563	112.8	7.69211E-001	2.94120E-004	0.00000E+000	7.70003E-001	7.69151E-001	9	...........
	564	113	7.59011E-001	1.65686E-004	0.00000E+000	7.60004E-001	7.58947E-001	8	...........
	565	113.2	7.49211E-001	5.19600E-005	0.00000E+000	7.50005E-001	7.49143E-001	8	...........
	566	113.4	7.39210E-001	-3.89608E-005	0.00000E+000	7.40007E-001	7.38940E-001	8	...........
	567	113.6	7.29210E-001	-5.47457E-005	0.00000E+000	7.30008E-001	7.29136E-001	7	....ih..i..
	568	113.8	7.19210E-001	-1.66694E-004	0.00000E+000	7.20009E-001	7.19132E-001	8	...........
	569	114	7.09010E-001	-2.31955E-004	0.00000E+000	7.10010E-001	7.09129E-001	8	...........
	570	114.2	6.99209E-001	-2.77248E-004	0.00000E+000	7.00012E-001	6.99125E-001	8	...........
	571	114.4	6.89209E-001	-3.15713E-004	0.00000E+000	6.90013E-001	6.89321E-001	8	...........
	572	114.6	6.79209E-001	-3.48435E-004	0.00000E+000	6.80014E-001	6.79117E-001	8	...........
	573	114.8	6.69409E-001	-3.76533E-004	0.00000E+000	6.70015E-001	6.69114E-001	8	...........
	574	115	6.59208E-001	-4.00741E-004	0.00000E+000	6.60017E-001	6.59310E-001	8	...........
	575	115.2	6.49208E-001	-4.21576E-004	0.00000E+000	6.50018E-001	6.49106E-001	8	...........
	576	115.4	6.39208E-001	-4.40091E-004	0.00000E+000	6.40019E-001	6.39103E-001	8	...........
	577	115.6	6.29208E-001	-4.56151E-004	0.00000E+000	6.30020E-001	6.29299E-001	8	...........
	578	115.8	6.19208E-001	-4.06873E-004	0.00000E+000	6.20022E-001	6.19295E-001	9	...........
	579	116	6.09407E-001	-4.90192E-004	0.00000E+000	6.10023E-001	6.09092E-001	8	...........
	580	116.2	5.99207E-001	-4.27544E-004	0.00000E+000	6.00024E-001	5.99288E-001	9	...........
	581	116.4	5.89007E-001	-5.07063E-004	0.00000E+000	5.89975E-001	5.89284E-001	9	...........
	582	116.6	5.79407E-001	-5.17065E-004	0.00000E+000	5.79977E-001	5.79080E-001	9	...........
	583	116.8	5.69406E-001	-5.26400E-004	0.00000E+000	5.69978E-001	5.69277E-001	9	...........
	584	117	5.59206E-001	-5.35736E-004	0.00000E+000	5.59979E-001	5.59273E-001	9	...........
	585	117.2	5.49206E-001	-5.44404E-004	0.00000E+000	5.49981E-001	5.49069E-001	9	...........
	586	117.4	5.39206E-001	-5.52906E-004	0.00000E+000	5.39982E-001	5.39066E-001	9	...........
	587	117.6	5.29206E-001	-5.61242E-004	0.00000E+000	5.29983E-001	5.29262E-001	9	...........
	588	117.8	5.19205E-001	-5.69743E-004	0.00000E+000	5.19984E-001	5.19058E-001	9	...........
	589	118	5.09205E-001	-5.78079E-004	0.00000E+000	5.09986E-001	5.09255E-001	9	...........
	590	118.2	4.99405E-001	-5.85914E-004	0.00000E+000	4.99987E-001	4.99251E-001	9	...........
	591	118.4	4.89405E-001	-5.94249E-004	0.00000E+000	4.89988E-001	4.89247E-001	9	...........
	592	118.6	4.79204E-001	-6.02084E-004	0.00000E+000	4.79989E-001	4.79244E-001	9	...........
	593	118.8	4.69204E-001	-6.10253E-004	0.00000E+000	4.69991E-001	4.69240E-001	9	...........
	594	119	4.59404E-001	-6.18421E-004	0.00000E+000	4.59992E-001	4.59236E-001	9	...........
	595	119.2	4.49204E-001	-6.26090E-004	0.00000E+000	4.49993E-001	4.49433E-001	9	...........
	596	119.4	4.39404E-001	-6.34425E-004	0.00000E+000	4.39994E-001	4.39429E-001	9	...........
	597	119.6	4.29003E-001	-6.42427E-004	0.00000E+000	4.29996E-001	4.29225E-001	9	...........
	598	119.8	4.19403E-001	-6.50262E-004	0.00000E+000	4.19997E-001	4.19021E-001	9	...........
	599	120	4.09403E-001	-6.58597E-004	0.00000E+000	4.09998E-001	4.09418E-001	9	...........
	600	120.2	3.99403E-001	-6.66599E-004	0.00000E+000	3.99999E-001	3.99214E-001	9	...........
	601	120.4	3.89402E-001	-6.74767E-004	0.00000E+000	3.90001E-001	3.89410E-001	9	...........
	602	120.6	3.79202E-001	-6.82769E-004	0.00000E+000	3.80002E-001	3.79407E-001	9	...........
	603	120.8	3.69402E-001	-6.90771E-004	0.00000E+000	3.70003E-001	3.69403E-001	9	...........
	604	121	3.59402E-001	-6.98773E-004	0.00000E+000	3.60005E-001	3.59399E-001	9	...........
	605	121.2	3.49601E-001	-7.06941E-004	0.00000E+000	3.50006E-001	3.49396E-001	9	...........
	606	121.4	3.39401E-001	-7.14776E-004	0.00000E+000	3.40007E-001	3.39192E-001	9	...........
	607	121.6	3.29201E-001	-7.22945E-004	0.00000E+000	3.30008E-001	3.29588E-001	9	...........
	608	121.8	3.19601E-001	-7.30947E-004	0.00000E+000	3.20010E-001	3.19384E-001	9	...........
	609	122	3.09401E-001	-7.39115E-004	0.00000E+000	3.10011E-001	3.09381E-001	9	...........
	610	122.2	2.99400E-001	-7.46950E-004	0.00000E+000	3.00012E-001	2.99377E-001	9	...........
	611	122.4	2.89600E-001	-7.55119E-004	0.00000E+000	2.90013E-001	2.89573E-001	9	...........
	612	122.6	2.79600E-001	-7.62954E-004	0.00000E+000	2.80015E-001	2.79370E-001	9	...........
	613	122.8	2.69400E-001	-7.70622E-004	0.00000E+000	2.70016E-001	2.69366E-001	9	...........
	614	123	2.59599E-001	-7.78458E-004	0.00000E+000	2.60017E-001	2.59362E-001	9	...........
	615	123.2	2.49599E-001	-7.86126E-004	0.00000E+000	2.50018E-001	2.49559E-001	9	...........
	616	123.4	2.39599E-001	-7.93628E-004	0.00000E+000	2.40020E-001	2.39555E-001	9	...........
	617	123.6	2.29599E-001	-8.01630E-004	0.00000E+000	2.30021E-001	2.29551E-001	9	...........
	618	123.8	2.19599E-001	-8.09131E-004	0.00000E+000	2.20022E-001	2.19548E-001	9	...........
	619	124	2.09398E-001	-8.16800E-004	0.00000E+000	2.10023E-001	2.09544E-001	9	...........
	620	124.2	1.99398E-001	-8.24135E-004	0.00000E+000	2.00025E-001	1.99340E-001	9	...........
	621	124.4	1.89398E-001	-8.31303E-004	0.00000E+000	1.90026E-001	1.89536E-001	9	...........
	622	124.6	1.79398E-001	-8.39638E-004	0.00000E+000	1.79977E-001	1.79533E-001	9	...........
	623	124.8	1.69597E-001	-8.46140E-004	0.00000E+000	1.69979E-001	1.69529E-001	9	...........
	624	125	1.59397E-001	-8.53141E-004	0.00000E+000	1.59980E-001	1.59525E-001	9	...........
	625	125.2	1.49597E-001	-8.60310E-004	0.00000E+000	1.49981E-001	1.49322E-001	9	...........
	626	125.4	1.39397E-001	-8.67144E-004	0.00000E+000	1.39982E-001	1.39718E-001	9	...........
	627	125.6	1.29596E-001	-8.73979E-004	0.00000E+000	1.29984E-001	1.29514E-001	9	...........
	628	125.8	1.19796E-001	-8.80481E-004	0.00000E+000	1.19985E-001	1.19711E-001	9	...........
	629	126	1.09596E-001	-8.87482E-004	0.00000E+000	1.09986E-001	1.09507E-001	9	...........
	630	126.2	9.95958E-002	-8.93650E-004	0.00000E+000	9.99874E-002	9.93031E-002	9	...........
	631	126.4	8.95955E-002	-8.99818E-004	0.00000E+000	8.99886E-002	8.94995E-002	9	...........
	632	126.6	7.97953E-002	-9.06153E-004	0.00000E+000	7.99899E-002	7.94958E-002	9	...........
	633	126.8	6.95951E-002	-9.12321E-004	0.00000E+000	6.99912E-002	6.96922E-002	9	...........
	634	127	5.95949E-002	-9.17989E-004	0.00000E+000	5.99924E-002	5.94884E-002	9	...........
	635	127.2	4.97947E-002	-9.23991E-004	0.00000E+000	4.99937E-002	4.92846E-002	9	...........
	636	127.4	3.95944E-002	-9.29659E-004	0.00000E+000	3.99949E-002	3.96811E-002	9	...........
	637	127.6	2.97942E-002	-9.35326E-004	0.00000E+000	2.99962E-002	2.96774E-002	9	...........
	638	127.8	1.95940E-002	-9.41161E-004	0.00000E+000	1.99975E-002	1.96737E-002	9	...........
	639	128	9.59374E-003	-9.46662E-004	0.00000E+000	9.99874E-003	9.66997E-003	9	...........
	640	128.2	-4.06489E-004	-9.51997E-004	0.00000E+000	0.00000E+000	-3.33723E-004	9	...........
	641	128.4	-1.04067E-002	-9.56998E-004	0.00000E+000	-9.99874E-003	-1.01373E-002	9	...........
	642	128.6	-2.02069E-002	-9.61999E-004	0.00000E+000	-1.99975E-002	-2.03411E-002	9	...........
	643	128.8	-3.02072E-002	-9.66834E-004	0.00000E+000	-2.99962E-002	-3.01447E-002	9	...........
	644	129	-4.04074E-002	-9.72001E-004	0.00000E+000	-3.99949E-002	-4.01484E-002	9	...........
	645	129.2	-5.02076E-002	-9.77336E-004	0.00000E+000	-4.99937E-002	-5.03522E-002	9	...........
	646	129.4	-6.04079E-002	-9.81504E-004	0.00000E+000	-5.99924E-002	-6.03559E-002	9	...........
	647	129.6	-7.04081E-002	-9.86505E-004	0.00000E+000	-6.99912E-002	-7.05597E-002	9	...........
	648	129.8	-8.04083E-002	-9.91006E-004	0.00000E+000	-7.99899E-002	-8.03633E-002	9	...........
	649	130	-9.04085E-002	-9.95674E-004	0.00000E+000	-8.99886E-002	-9.03670E-002	9	...........
	650	130.2	-1.00209E-001	-9.99841E-004	0.00000E+000	-9.99874E-002	-1.00171E-001	9	...........
	651	130.4	-1.10209E-001	-1.00468E-003	0.00000E+000	-1.09986E-001	-1.10174E-001	9	...........
	652	130.6	-1.20409E-001	-1.00918E-003	0.00000E+000	-1.19985E-001	-1.20178E-001	9	...........
	653	130.8	-1.30409E-001	-1.01368E-003	0.00000E+000	-1.29984E-001	-1.30182E-001	9	...........
	654	131	-1.40210E-001	-1.01751E-003	0.00000E+000	-1.39982E-001	-1.39985E-001	9	...........
	655	131.2	-1.50210E-001	-1.02218E-003	0.00000E+000	-1.49981E-001	-1.50189E-001	9	...........
	656	131.4	-1.60410E-001	-1.02601E-003	0.00000E+000	-1.59980E-001	-1.60193E-001	9	...........
	657	131.6	-1.70210E-001	-1.02968E-003	0.00000E+000	-1.69979E-001	-1.70197E-001	9	...........
	658	131.8	-1.80411E-001	-1.03418E-003	0.00000E+000	-1.79977E-001	-1.80000E-001	9	...........
	659	132	-1.90211E-001	-1.03785E-003	0.00000E+000	-1.89976E-001	-1.90204E-001	9	...........
	660	132.2	-2.00211E-001	-1.04185E-003	0.00000E+000	-1.99975E-001	-2.00008E-001	9	...........
	661	132.4	-2.10411E-001	-1.04552E-003	0.00000E+000	-2.09973E-001	-2.10011E-001	9	...........
	662	132.6	-2.20211E-001	-1.05002E-003	0.00000E+000	-2.20022E-001	-2.20215E-001	9	...........
	663	132.8	-2.30212E-001	-1.05352E-003	0.00000E+000	-2.30021E-001	-2.29819E-001	9	...........
	664	133	-2.40212E-001	-1.05619E-003	0.00000E+000	-2.40020E-001	-2.40022E-001	9	...........
	665	133.2	-2.50212E-001	-1.06002E-003	0.00000E+000	-2.50018E-001	-2.50026E-001	9	...........
	666	133.4	-2.60212E-001	-1.06336E-003	0.00000E+000	-2.60017E-001	-2.60230E-001	9	...........
	667	133.6	-2.70213E-001	-1.06652E-003	0.00000E+000	-2.70016E-001	-2.70033E-001	9	...........
	668	133.8	-2.80213E-001	-1.06969E-003	0.00000E+000	-2.80015E-001	-2.80037E-001	9	...........
	669	134	-2.90213E-001	-1.07286E-003	0.00000E+000	-2.90013E-001	-2.90041E-001	9	...........
	670	134.2	-3.00213E-001	-1.07603E-003	0.00000E+000	-3.00012E-001	-3.00245E-001	9	...........
	671	134.4	-3.10414E-001	-1.07869E-003	0.00000E+000	-3.10011E-001	-3.10248E-001	9	...........
	672	134.6	-3.20014E-001	-1.08136E-003	0.00000E+000	-3.20010E-001	-3.20252E-001	9	...........
	673	134.8	-3.30214E-001	-1.08386E-003	0.00000E+000	-3.30008E-001	-3.29856E-001	9	...........
	674	135	-3.40214E-001	-1.08653E-003	0.00000E+000	-3.40007E-001	-3.40059E-001	9	...........
	675	135.2	-3.50214E-001	-1.08886E-003	0.00000E+000	-3.50006E-001	-3.50063E-001	9	...........
	676	135.4	-3.60215E-001	-1.09103E-003	0.00000E+000	-3.60005E-001	-3.60067E-001	9	...........
	677	135.6	-3.70215E-001	-1.09303E-003	0.00000E+000	-3.70003E-001	-3.70070E-001	9	...........
	678	135.8	-3.80215E-001	-1.09520E-003	0.00000E+000	-3.80002E-001	-3.80074E-001	9	...........
	679	136	-3.90215E-001	-1.09736E-003	0.00000E+000	-3.90001E-001	-3.89878E-001	9	...........
	680	136.2	-4.00216E-001	-1.09853E-003	0.00000E+000	-3.99999E-001	-4.00081E-001	9	...........
	681	136.4	-4.10216E-001	-1.10020E-003	0.00000E+000	-4.09998E-001	-4.09885E-001	9	...........
	682	136.6	-4.20216E-001	-1.10120E-003	0.00000E+000	-4.19997E-001	-4.19889E-001	9	...........
	683	136.8	-4.30016E-001	-1.10270E-003	0.00000E+000	-4.29996E-001	-4.30093E-001	9	...........
	684	137	-4.40216E-001	-1.10386E-003	0.00000E+000	-4.39994E-001	-4.39896E-001	9	...........
	685	137.2	-4.50017E-001	-1.10436E-003	0.00000E+000	-4.49993E-001	-4.49900E-001	9	...........
	686	137.4	-4.60017E-001	-1.10503E-003	0.00000E+000	-4.59992E-001	-4.59904E-001	9	...........
	687	137.6	-4.69817E-001	-1.10553E-003	0.00000E+000	-4.69991E-001	-4.69907E-001	9	...........
	688	137.8	-4.80017E-001	-1.10620E-003	0.00000E+000	-4.79989E-001	-4.79911E-001	9	...........
	689	138	-4.90018E-001	-1.10637E-003	0.00000E+000	-4.89988E-001	-4.89915E-001	9	...........
	690	138.2	-5.00018E-001	-1.10703E-003	0.00000E+000	-4.99987E-001	-4.99918E-001	9	...........
	691	138.4	-5.10018E-001	-1.10687E-003	0.00000E+000	-5.09986E-001	-5.09722E-001	9	...........
	692	138.6	-5.19818E-001	-1.10703E-003	0.00000E+000	-5.19984E-001	-5.20126E-001	9	...........
	693	138.8	-5.30019E-001	-1.10670E-003	0.00000E+000	-5.29983E-001	-5.29729E-001	9	...........
	694	139	-5.40219E-001	-1.10670E-003	0.00000E+000	-5.39982E-001	-5.40133E-001	9	...........
	695	139.2	-5.49819E-001	-1.10620E-003	0.00000E+000	-5.49981E-001	-5.49937E-001	9	...........
	696	139.4	-5.59819E-001	-1.10653E-003	0.00000E+000	-5.59979E-001	-5.59941E-001	9	...........
	697	139.6	-5.70019E-001	-1.10620E-003	0.00000E+000	-5.69978E-001	-5.69744E-001	9	...........
	698	139.8	-5.79820E-001	-1.10620E-003	0.00000E+000	-5.79977E-001	-5.79748E-001	9	...........
	699	140	-5.90020E-001	-1.10620E-003	0.00000E+000	-5.89975E-001	-5.89752E-001	9	...........
	700	140.2	-5.99820E-001	-1.10670E-003	0.00000E+000	-5.99974E-001	-5.99755E-001	9	...........
	701	140.4	-6.09820E-001	-1.10687E-003	0.00000E+000	-6.09973E-001	-6.09959E-001	9	...........
	702	140.6	-6.20021E-001	-1.10787E-003	0.00000E+000	-6.20022E-001	-6.19763E-001	9	...........
	703	140.8	-6.30021E-001	-1.10870E-003	0.00000E+000	-6.30020E-001	-6.29566E-001	9	...........
	704	141	-6.40021E-001	-1.10970E-003	0.00000E+000	-6.40019E-001	-6.39770E-001	9	...........
	705	141.2	-6.50021E-001	-1.11087E-003	0.00000E+000	-6.50018E-001	-6.49774E-001	9	...........
	706	141.4	-6.59822E-001	-1.11303E-003	0.00000E+000	-6.60017E-001	-6.59978E-001	9	...........
	707	141.6	-6.70022E-001	-1.11470E-003	0.00000E+000	-6.70015E-001	-6.69581E-001	9	...........
	708	141.8	-6.80022E-001	-1.11753E-003	0.00000E+000	-6.80014E-001	-6.79785E-001	9	...........
	709	142	-6.89822E-001	-1.12054E-003	0.00000E+000	-6.90013E-001	-6.89789E-001	9	...........
	710	142.2	-6.99822E-001	-1.12354E-003	0.00000E+000	-7.00012E-001	-6.99592E-001	9	...........
	711	142.4	-7.10023E-001	-1.12770E-003	0.00000E+000	-7.10010E-001	-7.09596E-001	9	...........
	712	142.6	-7.20023E-001	-1.13287E-003	0.00000E+000	-7.20009E-001	-7.19800E-001	9	...........
	713	142.8	-7.30023E-001	-1.13804E-003	0.00000E+000	-7.30008E-001	-7.29803E-001	9	...........
	714	143	-7.40023E-001	-1.14421E-003	0.00000E+000	-7.40007E-001	-7.39607E-001	9	...........
	715	143.2	-7.49824E-001	-1.15138E-003	0.00000E+000	-7.50005E-001	-7.49811E-001	9	...........
	716	143.4	-7.59824E-001	-1.15954E-003	0.00000E+000	-7.60004E-001	-7.59814E-001	9	...........
	717	143.6	-7.69624E-001	-1.16871E-003	0.00000E+000	-7.70003E-001	-7.69818E-001	9	...........
	718	143.8	-7.79824E-001	-1.17888E-003	0.00000E+000	-7.80001E-001	-7.79622E-001	9	...........
	719	144	-7.89824E-001	-1.19088E-003	0.00000E+000	-7.90000E-001	-7.89825E-001	9	...........
	720	144.2	-7.99825E-001	-1.20455E-003	0.00000E+000	-7.99999E-001	-7.99829E-001	9	...........
	721	144.4	-7.89424E-001	-8.93484E-004	0.00000E+000	-7.90000E-001	-7.89825E-001	9	...........
	722	144.6	-7.79624E-001	-6.51595E-004	0.00000E+000	-7.80001E-001	-7.79622E-001	9	...........
	723	144.8	-7.69424E-001	-4.54050E-004	0.00000E+000	-7.70003E-001	-7.69818E-001	9	...........
	724	145	-7.59624E-001	-2.89680E-004	0.00000E+000	-7.60004E-001	-7.59814E-001	9	...........
	725	145.2	-7.49624E-001	-1.55959E-004	0.00000E+000	-7.50005E-001	-7.49611E-001	8	...........
	726	145.4	-7.39623E-001	-3.47870E-005	0.00000E+000	-7.40007E-001	-7.39607E-001	8	...........
	727	145.6	-7.29423E-001	5.47117E-005	0.00000E+000	-7.30008E-001	-7.29803E-001	7	........i..
	728	145.8	-7.19623E-001	1.42597E-004	0.00000E+000	-7.20009E-001	-7.19600E-001	8	...........
	729	146	-7.09623E-001	2.23935E-004	0.00000E+000	-7.10010E-001	-7.09596E-001	8	...........
	730	146.2	-6.99822E-001	2.87275E-004	0.00000E+000	-7.00012E-001	-6.99792E-001	8	...........
	731	146.4	-6.89622E-001	3.41768E-004	0.00000E+000	-6.90013E-001	-6.89989E-001	8	...........
	732	146.6	-6.79822E-001	3.89515E-004	0.00000E+000	-6.80014E-001	-6.79785E-001	8	...........
	733	146.8	-6.69622E-001	4.30669E-004	0.00000E+000	-6.70015E-001	-6.69981E-001	8	...........
	734	147	-6.59622E-001	4.66563E-004	0.00000E+000	-6.60017E-001	-6.59777E-001	8	...........
	735	147.2	-6.49621E-001	4.33651E-004	0.00000E+000	-6.50018E-001	-6.49974E-001	9	...........
	736	147.4	-6.39621E-001	5.26339E-004	0.00000E+000	-6.40019E-001	-6.39770E-001	9	...........
	737	147.6	-6.29821E-001	5.50511E-004	0.00000E+000	-6.30020E-001	-6.29766E-001	9	...........
	738	147.8	-6.19621E-001	5.72016E-004	0.00000E+000	-6.20022E-001	-6.19763E-001	9	...........
	739	148	-6.09620E-001	5.91521E-004	0.00000E+000	-6.09973E-001	-6.09759E-001	9	...........
	740	148.2	-5.99620E-001	6.08858E-004	0.00000E+000	-5.99974E-001	-5.99955E-001	9	...........
	741	148.4	-5.89820E-001	6.24361E-004	0.00000E+000	-5.89975E-001	-5.89752E-001	9	...........
	742	148.6	-5.79820E-001	6.38698E-004	0.00000E+000	-5.79977E-001	-5.79748E-001	9	...........
	743	148.8	-5.69619E-001	6.51368E-004	0.00000E+000	-5.69978E-001	-5.69744E-001	9	...........
	744	149	-5.59619E-001	6.63204E-004	0.00000E+000	-5.59979E-001	-5.59741E-001	9	...........
	745	149.2	-5.49619E-001	6.74373E-004	0.00000E+000	-5.49981E-001	-5.49737E-001	9	...........
	746	149.4	-5.39819E-001	6.85042E-004	0.00000E+000	-5.39982E-001	-5.39733E-001	9	...........
	747	149.6	-5.29619E-001	6.94877E-004	0.00000E+000	-5.29983E-001	-5.29930E-001	9	...........
	748	149.8	-5.19618E-001	7.04546E-004	0.00000E+000	-5.19984E-001	-5.19726E-001	9	...........
	749	150	-5.09618E-001	7.13548E-004	0.00000E+000	-5.09986E-001	-5.09922E-001	9	...........
	750	150.2	-4.99618E-001	7.22384E-004	0.00000E+000	-4.99987E-001	-4.99918E-001	9	...........
	751	150.4	-4.89618E-001	7.30886E-004	0.00000E+000	-4.89988E-001	-4.89915E-001	9	...........
	752	150.6	-4.79817E-001	7.39054E-004	0.00000E+000	-4.79989E-001	-4.79911E-001	9	...........
	753	150.8	-4.69617E-001	7.47723E-004	0.00000E+000	-4.69991E-001	-4.69907E-001	9	...........
	754	151	-4.59817E-001	7.55391E-004	0.00000E+000	-4.59992E-001	-4.59904E-001	9	...........
	755	151.2	-4.49817E-001	7.63393E-004	0.00000E+000	-4.49993E-001	-4.50100E-001	9	...........
	756	151.4	-4.39817E-001	7.71395E-004	0.00000E+000	-4.39994E-001	-4.40096E-001	9	...........
	757	151.6	-4.30016E-001	7.78897E-004	0.00000E+000	-4.29996E-001	-4.29893E-001	9	...........
	758	151.8	-4.19616E-001	7.86732E-004	0.00000E+000	-4.19997E-001	-4.19889E-001	9	...........
	759	152	-4.09616E-001	7.94233E-004	0.00000E+000	-4.09998E-001	-4.09885E-001	9	...........
	760	152.2	-3.99816E-001	8.02068E-004	0.00000E+000	-3.99999E-001	-3.99881E-001	9	...........
	761	152.4	-3.90015E-001	8.09237E-004	0.00000E+000	-3.90001E-001	-3.90078E-001	9	...........
	762	152.6	-3.79815E-001	8.17072E-004	0.00000E+000	-3.80002E-001	-3.79874E-001	9	...........
	763	152.8	-3.70015E-001	8.24240E-004	0.00000E+000	-3.70003E-001	-3.70070E-001	9	...........
	764	153	-3.59815E-001	8.31408E-004	0.00000E+000	-3.60005E-001	-3.60067E-001	9	...........
	765	153.2	-3.49814E-001	8.38743E-004	0.00000E+000	-3.50006E-001	-3.50263E-001	9	...........
	766	153.4	-3.40014E-001	8.45912E-004	0.00000E+000	-3.40007E-001	-3.40059E-001	9	...........
	767	153.6	-3.29814E-001	8.52580E-004	0.00000E+000	-3.30008E-001	-3.29856E-001	9	...........
	768	153.8	-3.19814E-001	8.59748E-004	0.00000E+000	-3.20010E-001	-3.20052E-001	9	...........
	769	154	-3.10014E-001	8.66583E-004	0.00000E+000	-3.10011E-001	-3.10048E-001	9	...........
	770	154.2	-3.00013E-001	8.73251E-004	0.00000E+000	-3.00012E-001	-3.00045E-001	9	...........
	771	154.4	-2.90013E-001	8.80086E-004	0.00000E+000	-2.90013E-001	-2.90241E-001	9	...........
	772	154.6	-2.80013E-001	8.86421E-004	0.00000E+000	-2.80015E-001	-2.80037E-001	9	...........
	773	154.8	-2.70013E-001	8.93089E-004	0.00000E+000	-2.70016E-001	-2.70233E-001	9	...........
	774	155	-2.60012E-001	8.99424E-004	0.00000E+000	-2.60017E-001	-2.60030E-001	9	...........
	775	155.2	-2.50012E-001	9.05592E-004	0.00000E+000	-2.50018E-001	-2.50026E-001	9	...........
	776	155.4	-2.40012E-001	9.11427E-004	0.00000E+000	-2.40020E-001	-2.40222E-001	9	...........
	777	155.6	-2.30012E-001	9.17095E-004	0.00000E+000	-2.30021E-001	-2.30019E-001	9	...........
	778	155.8	-2.19811E-001	9.22763E-004	0.00000E+000	-2.20022E-001	-2.20215E-001	9	...........
	779	156	-2.09811E-001	9.29097E-004	0.00000E+000	-2.09973E-001	-2.10211E-001	9	...........
	780	156.2	-1.99811E-001	9.34432E-004	0.00000E+000	-1.99975E-001	-2.00008E-001	9	...........
	781	156.4	-1.90011E-001	9.39766E-004	0.00000E+000	-1.89976E-001	-1.90004E-001	9	...........
	782	156.6	-1.80011E-001	9.44267E-004	0.00000E+000	-1.79977E-001	-1.80200E-001	9	...........
	783	156.8	-1.70010E-001	9.49435E-004	0.00000E+000	-1.69979E-001	-1.70197E-001	9	...........
	784	157	-1.60010E-001	9.54103E-004	0.00000E+000	-1.59980E-001	-1.60393E-001	9	...........
	785	157.2	-1.50010E-001	9.58937E-004	0.00000E+000	-1.49981E-001	-1.49989E-001	9	...........
	786	157.4	-1.39810E-001	9.63438E-004	0.00000E+000	-1.39982E-001	-1.39985E-001	9	...........
	787	157.6	-1.30209E-001	9.67439E-004	0.00000E+000	-1.29984E-001	-1.30182E-001	9	...........
	788	157.8	-1.20009E-001	9.71607E-004	0.00000E+000	-1.19985E-001	-1.20378E-001	9	...........
	789	158	-1.10009E-001	9.75775E-004	0.00000E+000	-1.09986E-001	-1.10374E-001	9	...........
	790	158.2	-1.00009E-001	9.79776E-004	0.00000E+000	-9.99874E-002	-1.00371E-001	9	...........
	791	158.4	-9.00085E-002	9.83443E-004	0.00000E+000	-8.99886E-002	-9.01669E-002	9	...........
	792	158.6	-8.02083E-002	9.86777E-004	0.00000E+000	-7.99899E-002	-8.01632E-002	9	...........
	793	158.8	-7.00081E-002	9.90278E-004	0.00000E+000	-6.99912E-002	-7.01595E-002	9	...........
	794	159	-6.00078E-002	9.93779E-004	0.00000E+000	-5.99924E-002	-6.01558E-002	9	...........
	795	159.2	-5.00076E-002	9.96613E-004	0.00000E+000	-4.99937E-002	-5.03522E-002	9	...........
	796	159.4	-4.02074E-002	9.99947E-004	0.00000E+000	-3.99949E-002	-4.05486E-002	9	...........
	797	159.6	-3.02072E-002	1.00261E-003	0.00000E+000	-2.99962E-002	-3.01447E-002	9	...........
	798	159.8	-2.00069E-002	1.00495E-003	0.00000E+000	-1.99975E-002	-2.01410E-002	9	...........
	799	160	-1.00067E-002	1.00728E-003	0.00000E+000	-9.99874E-003	-1.03374E-002	9	...........
	800	160.2	-6.48014E-006	1.00945E-003	0.00000E+000	0.00000E+000	-3.33723E-004	9	...........
	801	160.4	9.79374E-003	1.01178E-003	0.00000E+000	9.99874E-003	9.66997E-003	9	...........
	802	160.6	1.97940E-002	1.01362E-003	0.00000E+000	1.99975E-002	1.96737E-002	9	...........
	803	160.8	2.97942E-002	1.01512E-003	0.00000E+000	2.99962E-002	2.94773E-002	9	...........
	804	161	3.97944E-002	1.01678E-003	0.00000E+000	3.99949E-002	3.94810E-002	9	...........
	805	161.2	4.97947E-002	1.01812E-003	0.00000E+000	4.99937E-002	4.94847E-002	9	...........
	806	161.4	5.97949E-002	1.01928E-003	0.00000E+000	5.99924E-002	5.96885E-002	9	...........
	807	161.6	6.99951E-002	1.02028E-003	0.00000E+000	6.99912E-002	6.96922E-002	9	...........
	808	161.8	7.97953E-002	1.02095E-003	0.00000E+000	7.99899E-002	7.96959E-002	9	...........
	809	162	8.97956E-002	1.02212E-003	0.00000E+000	8.99886E-002	8.94995E-002	9	...........
	810	162.2	9.97958E-002	1.02245E-003	0.00000E+000	9.99874E-002	9.95032E-002	9	...........
	811	162.4	1.09796E-001	1.02329E-003	0.00000E+000	1.09986E-001	1.09707E-001	9	...........
	812	162.6	1.19796E-001	1.02345E-003	0.00000E+000	1.19985E-001	1.19511E-001	9	...........
	813	162.8	1.29796E-001	1.02362E-003	0.00000E+000	1.29984E-001	1.29714E-001	9	...........
	814	163	1.39797E-001	1.02362E-003	0.00000E+000	1.39982E-001	1.39518E-001	9	...........
	815	163.2	1.49797E-001	1.02362E-003	0.00000E+000	1.49981E-001	1.49522E-001	9	...........
	816	163.4	1.59797E-001	1.02345E-003	0.00000E+000	1.59980E-001	1.59525E-001	9	...........
	817	163.6	1.69797E-001	1.02329E-003	0.00000E+000	1.69979E-001	1.69529E-001	9	...........
	818	163.8	1.79798E-001	1.02245E-003	0.00000E+000	1.79977E-001	1.79333E-001	9	...........
	819	164	1.89598E-001	1.02262E-003	0.00000E+000	1.90026E-001	1.89737E-001	9	...........
	820	164.2	1.99798E-001	1.02179E-003	0.00000E+000	2.00025E-001	1.99540E-001	9	...........
	821	164.4	2.09798E-001	1.02062E-003	0.00000E+000	2.10023E-001	2.09544E-001	9	...........
	822	164.6	2.19799E-001	1.01928E-003	0.00000E+000	2.20022E-001	2.19347E-001	9	...........
	823	164.8	2.29799E-001	1.01845E-003	0.00000E+000	2.30021E-001	2.29351E-001	9	...........
	824	165	2.39799E-001	1.01695E-003	0.00000E+000	2.40020E-001	2.39355E-001	9	...........
	825	165.2	2.49799E-001	1.01562E-003	0.00000E+000	2.50018E-001	2.49359E-001	9	...........
	826	165.4	2.59799E-001	1.01378E-003	0.00000E+000	2.60017E-001	2.59362E-001	9	...........
	827	165.6	2.69800E-001	1.01245E-003	0.00000E+000	2.70016E-001	2.69566E-001	9	...........
	828	165.8	2.79800E-001	1.01012E-003	0.00000E+000	2.80015E-001	2.79570E-001	9	...........
	829	166	2.89800E-001	1.00845E-003	0.00000E+000	2.90013E-001	2.89173E-001	9	...........
	830	166.2	2.99600E-001	1.00595E-003	0.00000E+000	3.00012E-001	2.99377E-001	9	...........
	831	166.4	3.09801E-001	1.00345E-003	0.00000E+000	3.10011E-001	3.09381E-001	9	...........
	832	166.6	3.19801E-001	1.00095E-003	0.00000E+000	3.20010E-001	3.19384E-001	9	...........
	833	166.8	3.29601E-001	9.98280E-004	0.00000E+000	3.30008E-001	3.29188E-001	9	...........
	834	167	3.39801E-001	9.95779E-004	0.00000E+000	3.40007E-001	3.39392E-001	9	...........
	835	167.2	3.49601E-001	9.92612E-004	0.00000E+000	3.50006E-001	3.49396E-001	9	...........
	836	167.4	3.59602E-001	9.89444E-004	0.00000E+000	3.60005E-001	3.59399E-001	9	...........
	837	167.6	3.69602E-001	9.86444E-004	0.00000E+000	3.70003E-001	3.69403E-001	9	...........
	838	167.8	3.79602E-001	9.83110E-004	0.00000E+000	3.80002E-001	3.79407E-001	9	...........
	839	168	3.89802E-001	9.79609E-004	0.00000E+000	3.90001E-001	3.89410E-001	9	...........
	840	168.2	3.99603E-001	9.76608E-004	0.00000E+000	3.99999E-001	3.99214E-001	9	...........
	841	168.4	4.09603E-001	9.73107E-004	0.00000E+000	4.09998E-001	4.09418E-001	9	...........
	842	168.6	4.19603E-001	9.69773E-004	0.00000E+000	4.19997E-001	4.19221E-001	9	...........
	843	168.8	4.29603E-001	9.66439E-004	0.00000E+000	4.29996E-001	4.29225E-001	9	...........
	844	169	4.39404E-001	9.62605E-004	0.00000E+000	4.39994E-001	4.39229E-001	9	...........
	845	169.2	4.49604E-001	9.59271E-004	0.00000E+000	4.49993E-001	4.49433E-001	9	...........
	846	169.4	4.59604E-001	9.55603E-004	0.00000E+000	4.59992E-001	4.59236E-001	9	...........
	847	169.6	4.69604E-001	9.52103E-004	0.00000E+000	4.69991E-001	4.69240E-001	9	...........
	848	169.8	4.79404E-001	9.48769E-004	0.00000E+000	4.79989E-001	4.79244E-001	9	...........
	849	170	4.89605E-001	9.45434E-004	0.00000E+000	4.89988E-001	4.89247E-001	9	...........
	850	170.2	4.99605E-001	9.42267E-004	0.00000E+000	4.99987E-001	4.99251E-001	9	...........
	851	170.4	5.09605E-001	9.38933E-004	0.00000E+000	5.09986E-001	5.09255E-001	9	...........
	852	170.6	5.19405E-001	9.35766E-004	0.00000E+000	5.19984E-001	5.19258E-001	9	...........
	853	170.8	5.29406E-001	9.32765E-004	0.00000E+000	5.29983E-001	5.29062E-001	9	...........
	854	171	5.39606E-001	9.29931E-004	0.00000E+000	5.39982E-001	5.39266E-001	9	...........
	855	171.2	5.49606E-001	9.27430E-004	0.00000E+000	5.49981E-001	5.49269E-001	9	...........
	856	171.4	5.59406E-001	9.24930E-004	0.00000E+000	5.59979E-001	5.59473E-001	9	...........
	857	171.6	5.69406E-001	9.22763E-004	0.00000E+000	5.69978E-001	5.69277E-001	9	...........
	858	171.8	5.79607E-001	9.20762E-004	0.00000E+000	5.79977E-001	5.79280E-001	9	...........
	859	172	5.89607E-001	9.18762E-004	0.00000E+000	5.89975E-001	5.89284E-001	9	...........
	860	172.2	5.99607E-001	9.17595E-004	0.00000E+000	6.00024E-001	5.99288E-001	9	...........
	861	172.4	6.09607E-001	9.15928E-004	0.00000E+000	6.10023E-001	6.09092E-001	9	...........
	862	172.6	6.19608E-001	9.14427E-004	0.00000E+000	6.20022E-001	6.19295E-001	9	...........
	863	172.8	6.29608E-001	9.13761E-004	0.00000E+000	6.30020E-001	6.29099E-001	9	...........
	864	173	6.39608E-001	9.12260E-004	0.00000E+000	6.40019E-001	6.39303E-001	9	...........
	865	173.2	6.49608E-001	9.11260E-004	0.00000E+000	6.50018E-001	6.49106E-001	9	...........
	866	173.4	6.59608E-001	9.10760E-004	0.00000E+000	6.60017E-001	6.59310E-001	9	...........
	867	173.6	6.69609E-001	9.10260E-004	0.00000E+000	6.70015E-001	6.68914E-001	9	...........
	868	173.8	6.79609E-001	9.09926E-004	0.00000E+000	6.80014E-001	6.79117E-001	9	...........
	869	174	6.89409E-001	9.09426E-004	0.00000E+000	6.90013E-001	6.89121E-001	9	...........
	870	174.2	6.99609E-001	9.09260E-004	0.00000E+000	7.00012E-001	6.98925E-001	9	...........
	871	174.4	7.09410E-001	9.09426E-004	0.00000E+000	7.10010E-001	7.09329E-001	9	...........
	872	174.6	7.19410E-001	9.09260E-004	0.00000E+000	7.20009E-001	7.19332E-001	9	...........
	873	174.8	7.29410E-001	9.09760E-004	0.00000E+000	7.30008E-001	7.29136E-001	9	...........
	874	175	7.39410E-001	9.10593E-004	0.00000E+000	7.40007E-001	7.39140E-001	9	...........
	875	175.2	7.49411E-001	9.12093E-004	0.00000E+000	7.50005E-001	7.48943E-001	9	...........
	876	175.4	7.59411E-001	9.13427E-004	0.00000E+000	7.60004E-001	7.58947E-001	9	...........
	877	175.6	7.69411E-001	9.15094E-004	0.00000E+000	7.70003E-001	7.68951E-001	9	...........
	878	175.8	7.79411E-001	9.17928E-004	0.00000E+000	7.80001E-001	7.79154E-001	9	...........
	879	176	7.89411E-001	9.20262E-004	0.00000E+000	7.90000E-001	7.88958E-001	9	...........
	880	176.2	7.99412E-001	9.23596E-004	0.00000E+000	7.99999E-001	7.98962E-001	9	...........
CURVE4	TABLE
	Pt	T	Vf	Im	Vu	Sig	Ach	IERange	Over
	#	s	V vs. Ref.	A	V	V	V	#	bits
	881	176.4	7.89011E-001	6.56369E-004	0.00000E+000	7.90000E-001	7.88958E-001	9	...........
	882	176.6	7.79011E-001	4.53322E-004	0.00000E+000	7.80001E-001	7.79154E-001	9	...........
	883	176.8	7.69211E-001	2.90452E-004	0.00000E+000	7.70003E-001	7.69151E-001	9	...........
	884	177	7.59211E-001	1.61846E-004	0.00000E+000	7.60004E-001	7.59147E-001	8	...........
	885	177.2	7.49211E-001	4.82871E-005	0.00000E+000	7.50005E-001	7.48943E-001	8	...........
	886	177.4	7.39010E-001	-4.24500E-005	0.00000E+000	7.40007E-001	7.39140E-001	8	...........
	887	177.6	7.29210E-001	-1.17995E-004	0.00000E+000	7.30008E-001	7.29136E-001	8	...........
	888	177.8	7.19210E-001	-1.81502E-004	0.00000E+000	7.20009E-001	7.18932E-001	8	...........
	889	178	7.09210E-001	-2.34943E-004	0.00000E+000	7.10010E-001	7.09129E-001	8	...........
	890	178.2	6.99209E-001	-2.80103E-004	0.00000E+000	7.00012E-001	6.99325E-001	8	...........
	891	178.4	6.89209E-001	-3.18518E-004	0.00000E+000	6.90013E-001	6.89121E-001	8	...........
	892	178.6	6.79409E-001	-3.50973E-004	0.00000E+000	6.80014E-001	6.79117E-001	8	...........
	893	178.8	6.69409E-001	-3.78937E-004	0.00000E+000	6.70015E-001	6.69114E-001	8	...........
	894	179	6.59208E-001	-4.02861E-004	0.00000E+000	6.60017E-001	6.59310E-001	8	...........
	895	179.2	6.49408E-001	-4.23696E-004	0.00000E+000	6.50018E-001	6.49306E-001	8	...........
	896	179.4	6.39208E-001	-4.42027E-004	0.00000E+000	6.40019E-001	6.39103E-001	8	...........
	897	179.6	6.29208E-001	-4.58071E-004	0.00000E+000	6.30020E-001	6.29099E-001	8	...........
	898	179.8	6.19408E-001	-4.08707E-004	0.00000E+000	6.20022E-001	6.19295E-001	9	...........
	899	180	6.09207E-001	-4.85558E-004	0.00000E+000	6.10023E-001	6.09292E-001	9	...........
	900	180.2	5.99407E-001	-4.97227E-004	0.00000E+000	6.00024E-001	5.99288E-001	9	...........
	901	180.4	5.89207E-001	-5.08896E-004	0.00000E+000	5.89975E-001	5.89284E-001	9	...........
	902	180.6	5.79207E-001	-5.18732E-004	0.00000E+000	5.79977E-001	5.79080E-001	9	...........
	903	180.8	5.69206E-001	-5.28234E-004	0.00000E+000	5.69978E-001	5.69277E-001	9	...........
	904	181	5.59206E-001	-5.37569E-004	0.00000E+000	5.59979E-001	5.59073E-001	9	...........
	905	181.2	5.49206E-001	-5.46238E-004	0.00000E+000	5.49981E-001	5.49269E-001	9	...........
	906	181.4	5.39206E-001	-5.54907E-004	0.00000E+000	5.39982E-001	5.39266E-001	9	...........
	907	181.6	5.29206E-001	-5.62909E-004	0.00000E+000	5.29983E-001	5.29262E-001	9	...........
	908	181.8	5.19205E-001	-5.71577E-004	0.00000E+000	5.19984E-001	5.19258E-001	9	...........
	909	182	5.09005E-001	-5.79912E-004	0.00000E+000	5.09986E-001	5.09255E-001	9	...........
	910	182.2	4.99405E-001	-5.87914E-004	0.00000E+000	4.99987E-001	4.99451E-001	9	...........
	911	182.4	4.89205E-001	-5.95749E-004	0.00000E+000	4.89988E-001	4.89247E-001	9	...........
	912	182.6	4.79204E-001	-6.04085E-004	0.00000E+000	4.79989E-001	4.79043E-001	9	...........
	913	182.8	4.69204E-001	-6.12086E-004	0.00000E+000	4.69991E-001	4.69240E-001	9	...........
	914	183	4.59404E-001	-6.20255E-004	0.00000E+000	4.59992E-001	4.59236E-001	9	...........
	915	183.2	4.49404E-001	-6.28257E-004	0.00000E+000	4.49993E-001	4.49433E-001	9	...........
	916	183.4	4.39203E-001	-6.36425E-004	0.00000E+000	4.39994E-001	4.39229E-001	9	...........
	917	183.6	4.29203E-001	-6.44427E-004	0.00000E+000	4.29996E-001	4.29425E-001	9	...........
	918	183.8	4.19603E-001	-6.52429E-004	0.00000E+000	4.19997E-001	4.19421E-001	9	...........
	919	184	4.09403E-001	-6.60431E-004	0.00000E+000	4.09998E-001	4.09418E-001	9	...........
	920	184.2	3.99603E-001	-6.68766E-004	0.00000E+000	3.99999E-001	3.99214E-001	9	...........
	921	184.4	3.89402E-001	-6.77101E-004	0.00000E+000	3.90001E-001	3.89410E-001	9	...........
	922	184.6	3.79402E-001	-6.85103E-004	0.00000E+000	3.80002E-001	3.79407E-001	9	...........
	923	184.8	3.69402E-001	-6.92938E-004	0.00000E+000	3.70003E-001	3.69403E-001	9	...........
	924	185	3.59402E-001	-7.01273E-004	0.00000E+000	3.60005E-001	3.59399E-001	9	...........
	925	185.2	3.49401E-001	-7.09275E-004	0.00000E+000	3.50006E-001	3.49396E-001	9	...........
	926	185.4	3.39401E-001	-7.17444E-004	0.00000E+000	3.40007E-001	3.39392E-001	9	...........
	927	185.6	3.29401E-001	-7.25612E-004	0.00000E+000	3.30008E-001	3.29588E-001	9	...........
	928	185.8	3.19401E-001	-7.33447E-004	0.00000E+000	3.20010E-001	3.19384E-001	9	...........
	929	186	3.09601E-001	-7.41616E-004	0.00000E+000	3.10011E-001	3.09581E-001	9	...........
	930	186.2	2.99400E-001	-7.49618E-004	0.00000E+000	3.00012E-001	2.99577E-001	9	...........
	931	186.4	2.89400E-001	-7.57286E-004	0.00000E+000	2.90013E-001	2.89573E-001	9	...........
	932	186.6	2.79600E-001	-7.65455E-004	0.00000E+000	2.80015E-001	2.79570E-001	9	...........
	933	186.8	2.69400E-001	-7.73290E-004	0.00000E+000	2.70016E-001	2.69166E-001	9	...........
	934	187	2.59399E-001	-7.81458E-004	0.00000E+000	2.60017E-001	2.59562E-001	9	...........
	935	187.2	2.49399E-001	-7.88793E-004	0.00000E+000	2.50018E-001	2.49559E-001	9	...........
	936	187.4	2.39599E-001	-7.96295E-004	0.00000E+000	2.40020E-001	2.39355E-001	9	...........
	937	187.6	2.29599E-001	-8.04130E-004	0.00000E+000	2.30021E-001	2.29351E-001	9	...........
	938	187.8	2.19599E-001	-8.11965E-004	0.00000E+000	2.20022E-001	2.19347E-001	9	...........
	939	188	2.09398E-001	-8.19300E-004	0.00000E+000	2.10023E-001	2.09344E-001	9	...........
	940	188.2	1.99598E-001	-8.26802E-004	0.00000E+000	2.00025E-001	1.99540E-001	9	...........
	941	188.4	1.89398E-001	-8.33970E-004	0.00000E+000	1.90026E-001	1.89536E-001	9	...........
	942	188.6	1.79598E-001	-8.42139E-004	0.00000E+000	1.79977E-001	1.79333E-001	9	...........
	943	188.8	1.69597E-001	-8.49307E-004	0.00000E+000	1.69979E-001	1.69329E-001	9	...........
	944	189	1.59397E-001	-8.56142E-004	0.00000E+000	1.59980E-001	1.59525E-001	9	...........
	945	189.2	1.49597E-001	-8.63310E-004	0.00000E+000	1.49981E-001	1.49522E-001	9	...........
	946	189.4	1.39397E-001	-8.70145E-004	0.00000E+000	1.39982E-001	1.39518E-001	9	...........
	947	189.6	1.29396E-001	-8.76980E-004	0.00000E+000	1.29984E-001	1.29714E-001	9	...........
	948	189.8	1.19596E-001	-8.83148E-004	0.00000E+000	1.19985E-001	1.19511E-001	9	...........
	949	190	1.09596E-001	-8.89816E-004	0.00000E+000	1.09986E-001	1.09507E-001	9	...........
	950	190.2	9.95958E-002	-8.96151E-004	0.00000E+000	9.99874E-002	9.93031E-002	9	...........
	951	190.4	8.95955E-002	-9.02486E-004	0.00000E+000	8.99886E-002	8.94995E-002	9	...........
	952	190.6	7.95953E-002	-9.08820E-004	0.00000E+000	7.99899E-002	7.94958E-002	9	...........
	953	190.8	6.95951E-002	-9.14822E-004	0.00000E+000	6.99912E-002	6.94921E-002	9	...........
	954	191	5.95949E-002	-9.20823E-004	0.00000E+000	5.99924E-002	5.94884E-002	9	...........
	955	191.2	4.95946E-002	-9.26491E-004	0.00000E+000	4.99937E-002	4.92846E-002	9	...........
	956	191.4	3.95944E-002	-9.32326E-004	0.00000E+000	3.99949E-002	3.94810E-002	9	...........
	957	191.6	2.95942E-002	-9.38161E-004	0.00000E+000	2.99962E-002	2.96774E-002	9	...........
	958	191.8	1.95940E-002	-9.43328E-004	0.00000E+000	1.99975E-002	1.96737E-002	9	...........
	959	192	9.59374E-003	-9.48663E-004	0.00000E+000	9.99874E-003	9.66997E-003	9	...........
	960	192.2	-6.06494E-004	-9.54164E-004	0.00000E+000	0.00000E+000	-3.33723E-004	9	...........
