EXPLAIN
TAG	CV
TITLE	LABEL	Cyclic Voltammetry	Test Identifier
DATE	LABEL	18-7-2017	Date
TIME	LABEL	13:51:13	Time
NOTES	NOTES	1	Notes...
	0.6m
PSTAT	PSTAT	IFC5000-01520	Potentiostat
VINIT	POTEN	0.00000E+000	F	Initial E (V)
VLIMIT1	POTEN	-8.00000E-001	F	Scan Limit 1 (V)
VLIMIT2	POTEN	8.00000E-001	F	Scan Limit 2 (V)
VFINAL	POTEN	0.00000E+000	F	Final E (V)
SCANRATE	QUANT	2.50000E+001	A Real Number
STEPSIZE	QUANT	1.00000E+001	Step Size (mV)
CYCLES	IQUANT	3	Cycles (#)
IMODE	SELECTOR	0	I/E Range Mode
IRANGE	QUANT	2.50000E+002	Max Current (mA)
AREA	QUANT	3.84800E-001	A Real Number
EQDELAY	QUANT	1.00000E+000	Equil. Time (s)
IRCOMP	SELECTOR	0	IRComp
PFCOR	QUANT	2.50000E+002	PF Corr. (ohm)
SAMPLINGMODE	SELECTOR	0	Sampling Mode
EOC	QUANT	0	Open Circuit (V)
SEQUENCER	TOGGLE	TRUE	Run as Sequence
PSTATMODEL	IQUANT	53	Pstat Model
PSTATSECTION	LABEL	IFC5000-01520	Pstat Section
PSTATSERIALNO	LABEL	01520	Pstat Serial Number
CTRLMODE	IQUANT	1	Control Mode
ELECTROMETER	IQUANT	0	RE=0 or CS=1
IESTAB	IQUANT	2	I/E Stability
CASPEED	IQUANT	4	Control Amp Speed
CONVENTION	IQUANT	1	Current Convention
ICHRANGE	IQUANT	2	Ich Range
ICHRANGEMODE	TOGGLE	F	Ich Auto Range
ICHOFFSETENABLE	TOGGLE	F	Ich Offset Enable
ICHOFFSET	QUANT	0	Ich Offset (V)
ICHFILTER	IQUANT	3	Ich Filter
VCHRANGE	IQUANT	2	Vch Range
VCHRANGEMODE	TOGGLE	F	Vch Auto Range
VCHOFFSETENABLE	TOGGLE	F	Vch Offset Enable
VCHOFFSET	QUANT	0	Vch Offset (V)
VCHFILTER	IQUANT	3	Vch Filter
IERANGELOWERLIMIT	IQUANT	7	I/E Range Lower Limit
IERANGEMODE	TOGGLE	T	I/E AutoRange
IERANGE	IQUANT	11	I/E Range
ACHSELECT	IQUANT	1	Ach Select
ACHRANGE	IQUANT	2	Ach Range
ACHOFFSETENABLE	TOGGLE	F	Ach Offset Enable
ACHOFFSET	QUANT	0	Ach Offset (V)
ACHFILTER	IQUANT	1	Ach Filter
CABLEID	IQUANT	14	Cable ID
DCCALDATE	LABEL	5-7-2017	DC Calibration Date
ACCALDATE	LABEL	12/3/2015	AC Calibration Date
FRAMEWORKVERSION	QUANT	7.01	Framework Version
INSTRUMENTVERSION	LABEL	4.00	Instrument Version
CURVE1	TABLE
	Pt	T	Vf	Im	Vu	Sig	Ach	IERange	Over
	#	s	V vs. Ref.	A	V	V	V	#	bits
	0	0.4	-3.65120E-004	-6.88552E-004	0.00000E+000	0.00000E+000	-3.33723E-004	11	...........
	1	0.8	-1.03651E-002	-5.61282E-004	0.00000E+000	-9.99874E-003	-1.03374E-002	10	...........
	2	1.2	-2.03651E-002	-4.90323E-004	0.00000E+000	-1.99975E-002	-2.03411E-002	9	...........
	3	1.6	-3.01651E-002	-4.44147E-004	0.00000E+000	-2.99962E-002	-3.03448E-002	9	...........
	4	2	-4.03651E-002	-4.13807E-004	0.00000E+000	-3.99949E-002	-4.03485E-002	9	...........
	5	2.4	-5.01651E-002	-3.93636E-004	0.00000E+000	-4.99937E-002	-5.03522E-002	9	...........
	6	2.8	-6.03651E-002	-3.80260E-004	0.00000E+000	-5.99924E-002	-6.03559E-002	8	...........
	7	3.2	-7.01651E-002	-3.72497E-004	0.00000E+000	-6.99912E-002	-7.03596E-002	8	...........
	8	3.6	-8.01651E-002	-3.68607E-004	0.00000E+000	-7.99899E-002	-8.01632E-002	8	...........
	9	4	-9.03651E-002	-3.66988E-004	0.00000E+000	-8.99886E-002	-9.03670E-002	8	...........
	10	4.4	-1.00165E-001	-3.67939E-004	0.00000E+000	-9.99874E-002	-1.00571E-001	8	...........
	11	4.8	-1.10365E-001	-3.70126E-004	0.00000E+000	-1.09986E-001	-1.10174E-001	8	...........
	12	5.2	-1.20165E-001	-3.73515E-004	0.00000E+000	-1.19985E-001	-1.20178E-001	8	...........
	13	5.6	-1.30365E-001	-3.78056E-004	0.00000E+000	-1.29984E-001	-1.30182E-001	8	...........
	14	6	-1.39965E-001	-3.82697E-004	0.00000E+000	-1.39982E-001	-1.40385E-001	8	...........
	15	6.4	-1.49965E-001	-3.88424E-004	0.00000E+000	-1.49981E-001	-1.50189E-001	8	...........
	16	6.8	-1.60165E-001	-3.94317E-004	0.00000E+000	-1.59980E-001	-1.59993E-001	8	...........
	17	7.2	-1.70365E-001	-4.00728E-004	0.00000E+000	-1.69979E-001	-1.70197E-001	8	...........
	18	7.6	-1.80165E-001	-4.07890E-004	0.00000E+000	-1.79977E-001	-1.80200E-001	8	...........
	19	8	-1.90165E-001	-4.14751E-004	0.00000E+000	-1.89976E-001	-1.90204E-001	8	...........
	20	8.4	-2.00165E-001	-4.22364E-004	0.00000E+000	-2.00025E-001	-2.00208E-001	8	...........
	21	8.8	-2.10165E-001	-4.29409E-004	0.00000E+000	-2.10023E-001	-2.10211E-001	8	...........
	22	9.2	-2.20165E-001	-4.37372E-004	0.00000E+000	-2.20022E-001	-2.20415E-001	8	...........
	23	9.6	-2.30165E-001	-4.45169E-004	0.00000E+000	-2.30021E-001	-2.30219E-001	8	...........
	24	10	-2.40165E-001	-4.53149E-004	0.00000E+000	-2.40020E-001	-2.40222E-001	9	...........
	25	10.4	-2.50165E-001	-4.61650E-004	0.00000E+000	-2.50018E-001	-2.50226E-001	9	...........
	26	10.8	-2.60165E-001	-4.69652E-004	0.00000E+000	-2.60017E-001	-2.60230E-001	9	...........
	27	11.2	-2.70165E-001	-4.78321E-004	0.00000E+000	-2.70016E-001	-2.70033E-001	9	...........
	28	11.6	-2.79965E-001	-4.87156E-004	0.00000E+000	-2.80015E-001	-2.80237E-001	9	...........
	29	12	-2.89965E-001	-4.95991E-004	0.00000E+000	-2.90013E-001	-2.90041E-001	9	...........
	30	12.4	-3.00365E-001	-5.05493E-004	0.00000E+000	-3.00012E-001	-3.00245E-001	9	...........
	31	12.8	-3.10165E-001	-5.14995E-004	0.00000E+000	-3.10011E-001	-3.10248E-001	9	...........
	32	13.2	-3.20165E-001	-5.24164E-004	0.00000E+000	-3.20010E-001	-3.20052E-001	9	...........
	33	13.6	-3.30165E-001	-5.33999E-004	0.00000E+000	-3.30008E-001	-3.30256E-001	9	...........
	34	14	-3.40365E-001	-5.44501E-004	0.00000E+000	-3.40007E-001	-3.40259E-001	9	...........
	35	14.4	-3.50165E-001	-5.55003E-004	0.00000E+000	-3.50006E-001	-3.50063E-001	9	...........
	36	14.8	-3.59965E-001	-5.65839E-004	0.00000E+000	-3.60005E-001	-3.60067E-001	9	...........
	37	15.2	-3.70165E-001	-5.76341E-004	0.00000E+000	-3.70003E-001	-3.70070E-001	9	...........
	38	15.6	-3.79965E-001	-5.87343E-004	0.00000E+000	-3.80002E-001	-3.80274E-001	9	...........
	39	16	-3.89965E-001	-5.98679E-004	0.00000E+000	-3.90001E-001	-3.90078E-001	9	...........
	40	16.4	-3.99965E-001	-6.10682E-004	0.00000E+000	-3.99999E-001	-4.00081E-001	9	...........
	41	16.8	-4.09965E-001	-6.22351E-004	0.00000E+000	-4.09998E-001	-4.10085E-001	9	...........
	42	17.2	-4.20165E-001	-6.34353E-004	0.00000E+000	-4.19997E-001	-4.20089E-001	9	...........
	43	17.6	-4.29965E-001	-6.46523E-004	0.00000E+000	-4.29996E-001	-4.30093E-001	9	...........
	44	18	-4.39965E-001	-6.59025E-004	0.00000E+000	-4.39994E-001	-4.40096E-001	9	...........
	45	18.4	-4.49965E-001	-6.71861E-004	0.00000E+000	-4.49993E-001	-4.50100E-001	9	...........
	46	18.8	-4.59965E-001	-6.84531E-004	0.00000E+000	-4.59992E-001	-4.59904E-001	9	...........
	47	19.2	-4.69965E-001	-6.96866E-004	0.00000E+000	-4.69991E-001	-4.69907E-001	9	...........
	48	19.6	-4.79965E-001	-7.11036E-004	0.00000E+000	-4.79989E-001	-4.79911E-001	9	...........
	49	20	-4.89965E-001	-7.23539E-004	0.00000E+000	-4.89988E-001	-4.89915E-001	9	...........
	50	20.4	-4.99965E-001	-7.37708E-004	0.00000E+000	-4.99987E-001	-5.00118E-001	9	...........
	51	20.8	-5.09965E-001	-7.51545E-004	0.00000E+000	-5.09986E-001	-5.09922E-001	9	...........
	52	21.2	-5.19965E-001	-7.64714E-004	0.00000E+000	-5.19984E-001	-5.19926E-001	9	...........
	53	21.6	-5.29965E-001	-7.78550E-004	0.00000E+000	-5.29983E-001	-5.29930E-001	9	...........
	54	22	-5.39765E-001	-7.92387E-004	0.00000E+000	-5.39982E-001	-5.39733E-001	9	...........
	55	22.4	-5.49765E-001	-8.06389E-004	0.00000E+000	-5.49981E-001	-5.49937E-001	9	...........
	56	22.8	-5.59765E-001	-8.20226E-004	0.00000E+000	-5.59979E-001	-5.59741E-001	9	...........
	57	23.2	-5.69965E-001	-8.34895E-004	0.00000E+000	-5.69978E-001	-5.69944E-001	9	...........
	58	23.6	-5.79765E-001	-8.48565E-004	0.00000E+000	-5.79977E-001	-5.79748E-001	9	...........
	59	24	-5.89765E-001	-8.63401E-004	0.00000E+000	-5.89975E-001	-5.89952E-001	9	...........
	60	24.4	-5.99765E-001	-8.78738E-004	0.00000E+000	-6.00024E-001	-5.99955E-001	9	...........
	61	24.8	-6.09965E-001	-8.93241E-004	0.00000E+000	-6.10023E-001	-6.09759E-001	9	...........
	62	25.2	-6.19765E-001	-9.07244E-004	0.00000E+000	-6.20022E-001	-6.19963E-001	9	...........
	63	25.6	-6.29965E-001	-9.21580E-004	0.00000E+000	-6.30020E-001	-6.29966E-001	9	...........
	64	26	-6.39765E-001	-9.36583E-004	0.00000E+000	-6.40019E-001	-6.39770E-001	9	...........
	65	26.4	-6.49765E-001	-9.50753E-004	0.00000E+000	-6.50018E-001	-6.49774E-001	9	...........
	66	26.8	-6.59765E-001	-9.65423E-004	0.00000E+000	-6.60017E-001	-6.59777E-001	9	...........
	67	27.2	-6.69765E-001	-9.79926E-004	0.00000E+000	-6.70015E-001	-6.69981E-001	9	...........
	68	27.6	-6.79765E-001	-9.95096E-004	0.00000E+000	-6.80014E-001	-6.79985E-001	9	...........
	69	28	-6.89765E-001	-1.01027E-003	0.00000E+000	-6.90013E-001	-6.89789E-001	9	...........
	70	28.4	-6.99765E-001	-1.02427E-003	0.00000E+000	-7.00012E-001	-6.99792E-001	9	...........
	71	28.8	-7.09765E-001	-1.03911E-003	0.00000E+000	-7.10010E-001	-7.09796E-001	9	...........
	72	29.2	-7.19565E-001	-1.05344E-003	0.00000E+000	-7.20009E-001	-7.19800E-001	9	...........
	73	29.6	-7.29765E-001	-1.06894E-003	0.00000E+000	-7.30008E-001	-7.29603E-001	9	...........
	74	30	-7.39765E-001	-1.08345E-003	0.00000E+000	-7.40007E-001	-7.39607E-001	9	...........
	75	30.4	-7.49965E-001	-1.09862E-003	0.00000E+000	-7.50005E-001	-7.49611E-001	9	...........
	76	30.8	-7.59765E-001	-1.11412E-003	0.00000E+000	-7.60004E-001	-7.59814E-001	9	...........
	77	31.2	-7.69765E-001	-1.12829E-003	0.00000E+000	-7.70003E-001	-7.69818E-001	9	...........
	78	31.6	-7.79565E-001	-1.14379E-003	0.00000E+000	-7.80001E-001	-7.79622E-001	9	...........
	79	32	-7.89965E-001	-1.15996E-003	0.00000E+000	-7.90000E-001	-7.89625E-001	9	...........
	80	32.4	-7.99765E-001	-1.17597E-003	0.00000E+000	-7.99999E-001	-7.99629E-001	9	...........
	81	32.8	-7.89765E-001	-9.35750E-004	0.00000E+000	-7.90000E-001	-7.89825E-001	9	...........
	82	33.2	-7.79765E-001	-7.49544E-004	0.00000E+000	-7.80001E-001	-7.79622E-001	9	...........
	83	33.6	-7.69565E-001	-5.97012E-004	0.00000E+000	-7.70003E-001	-7.69818E-001	9	...........
	84	34	-7.59965E-001	-4.69319E-004	0.00000E+000	-7.60004E-001	-7.59614E-001	9	...........
	85	34.4	-7.49565E-001	-3.61796E-004	0.00000E+000	-7.50005E-001	-7.49811E-001	9	...........
	86	34.8	-7.39765E-001	-2.70359E-004	0.00000E+000	-7.40007E-001	-7.39807E-001	8	...........
	87	35.2	-7.29765E-001	-1.91610E-004	0.00000E+000	-7.30008E-001	-7.29603E-001	8	...........
	88	35.6	-7.19765E-001	-1.24247E-004	0.00000E+000	-7.20009E-001	-7.19800E-001	8	...........
	89	36	-7.09765E-001	-6.60328E-005	0.00000E+000	-7.10010E-001	-7.09996E-001	8	...........
	90	36.4	-6.99765E-001	-1.62660E-005	0.00000E+000	-7.00012E-001	-6.99992E-001	8	...........
	91	36.8	-6.89765E-001	2.67057E-005	0.00000E+000	-6.90013E-001	-6.89789E-001	7	...........
	92	37.2	-6.79765E-001	5.47114E-005	0.00000E+000	-6.80014E-001	-6.79985E-001	7	....ih..i..
	93	37.6	-6.69965E-001	9.61727E-005	0.00000E+000	-6.70015E-001	-6.69781E-001	8	...........
	94	38	-6.59765E-001	1.23986E-004	0.00000E+000	-6.60017E-001	-6.59978E-001	8	...........
	95	38.4	-6.49965E-001	1.48911E-004	0.00000E+000	-6.50018E-001	-6.49774E-001	8	...........
	96	38.8	-6.39765E-001	1.69963E-004	0.00000E+000	-6.40019E-001	-6.39770E-001	8	...........
	97	39.2	-6.29765E-001	1.88928E-004	0.00000E+000	-6.30020E-001	-6.29766E-001	8	...........
	98	39.6	-6.19765E-001	2.05456E-004	0.00000E+000	-6.20022E-001	-6.19963E-001	8	...........
	99	40	-6.09965E-001	2.20698E-004	0.00000E+000	-6.10023E-001	-6.09759E-001	8	...........
	100	40.4	-5.99765E-001	2.33670E-004	0.00000E+000	-6.00024E-001	-5.99955E-001	8	...........
	101	40.8	-5.89765E-001	2.45840E-004	0.00000E+000	-5.89975E-001	-5.89752E-001	8	...........
	102	41.2	-5.79765E-001	2.56608E-004	0.00000E+000	-5.79977E-001	-5.79748E-001	8	...........
	103	41.6	-5.69965E-001	2.66041E-004	0.00000E+000	-5.69978E-001	-5.70144E-001	8	...........
	104	42	-5.59965E-001	2.75073E-004	0.00000E+000	-5.59979E-001	-5.59941E-001	8	...........
	105	42.4	-5.49765E-001	2.83671E-004	0.00000E+000	-5.49981E-001	-5.49937E-001	8	...........
	106	42.8	-5.39965E-001	2.91467E-004	0.00000E+000	-5.39982E-001	-5.39733E-001	8	...........
	107	43.2	-5.29965E-001	2.98963E-004	0.00000E+000	-5.29983E-001	-5.29930E-001	8	...........
	108	43.6	-5.19965E-001	3.05374E-004	0.00000E+000	-5.19984E-001	-5.19926E-001	8	...........
	109	44	-5.09965E-001	3.12051E-004	0.00000E+000	-5.09986E-001	-5.09922E-001	8	...........
	110	44.4	-4.99765E-001	3.18295E-004	0.00000E+000	-4.99987E-001	-4.99918E-001	8	...........
	111	44.8	-4.89965E-001	3.24456E-004	0.00000E+000	-4.89988E-001	-4.89915E-001	8	...........
	112	45.2	-4.79965E-001	3.30082E-004	0.00000E+000	-4.79989E-001	-4.79911E-001	8	...........
	113	45.6	-4.69965E-001	3.35624E-004	0.00000E+000	-4.69991E-001	-4.70107E-001	8	...........
	114	46	-4.59965E-001	3.40700E-004	0.00000E+000	-4.59992E-001	-4.60104E-001	8	...........
	115	46.4	-4.49765E-001	3.46326E-004	0.00000E+000	-4.49993E-001	-4.50100E-001	8	...........
	116	46.8	-4.39965E-001	3.51468E-004	0.00000E+000	-4.39994E-001	-4.40096E-001	8	...........
	117	47.2	-4.29965E-001	3.55925E-004	0.00000E+000	-4.29996E-001	-4.29893E-001	8	...........
	118	47.6	-4.19965E-001	3.60767E-004	0.00000E+000	-4.19997E-001	-4.20089E-001	8	...........
	119	48	-4.09965E-001	3.65758E-004	0.00000E+000	-4.09998E-001	-4.10285E-001	8	...........
	120	48.4	-4.00165E-001	3.69815E-004	0.00000E+000	-3.99999E-001	-4.00081E-001	8	...........
	121	48.8	-3.90165E-001	3.74490E-004	0.00000E+000	-3.90001E-001	-3.90078E-001	8	...........
	122	49.2	-3.79965E-001	3.78864E-004	0.00000E+000	-3.80002E-001	-3.80274E-001	8	...........
	123	49.6	-3.69965E-001	3.82837E-004	0.00000E+000	-3.70003E-001	-3.70070E-001	8	...........
	124	50	-3.60165E-001	3.86977E-004	0.00000E+000	-3.60005E-001	-3.60067E-001	8	...........
	125	50.4	-3.49965E-001	3.90800E-004	0.00000E+000	-3.50006E-001	-3.50063E-001	8	...........
	126	50.8	-3.39965E-001	3.94757E-004	0.00000E+000	-3.40007E-001	-3.40059E-001	8	...........
	127	51.2	-3.30165E-001	3.98446E-004	0.00000E+000	-3.30008E-001	-3.30056E-001	8	...........
	128	51.6	-3.19965E-001	4.02103E-004	0.00000E+000	-3.20010E-001	-3.20052E-001	8	...........
	129	52	-3.10165E-001	4.05792E-004	0.00000E+000	-3.10011E-001	-3.10248E-001	8	...........
	130	52.4	-3.00165E-001	4.09181E-004	0.00000E+000	-3.00012E-001	-3.00045E-001	8	...........
	131	52.8	-2.90165E-001	4.12704E-004	0.00000E+000	-2.90013E-001	-2.90241E-001	8	...........
	132	53.2	-2.79965E-001	4.15675E-004	0.00000E+000	-2.80015E-001	-2.80037E-001	8	...........
	133	53.6	-2.70165E-001	4.18931E-004	0.00000E+000	-2.70016E-001	-2.70033E-001	8	...........
	134	54	-2.60165E-001	4.21652E-004	0.00000E+000	-2.60017E-001	-2.60230E-001	8	...........
	135	54.4	-2.50165E-001	4.25008E-004	0.00000E+000	-2.50018E-001	-2.50226E-001	8	...........
	136	54.8	-2.40165E-001	4.27195E-004	0.00000E+000	-2.40020E-001	-2.40222E-001	8	...........
	137	55.2	-2.30165E-001	4.29966E-004	0.00000E+000	-2.30021E-001	-2.30419E-001	8	...........
	138	55.6	-2.20165E-001	4.32387E-004	0.00000E+000	-2.20022E-001	-2.20215E-001	8	...........
	139	56	-2.10365E-001	4.35108E-004	0.00000E+000	-2.10023E-001	-2.10011E-001	8	...........
	140	56.4	-2.00365E-001	4.37228E-004	0.00000E+000	-2.00025E-001	-2.00008E-001	8	...........
	141	56.8	-1.90165E-001	4.39632E-004	0.00000E+000	-1.89976E-001	-1.90204E-001	8	...........
	142	57.2	-1.80165E-001	4.41068E-004	0.00000E+000	-1.79977E-001	-1.80400E-001	8	...........
	143	57.6	-1.70165E-001	4.42954E-004	0.00000E+000	-1.69979E-001	-1.70197E-001	8	...........
	144	58	-1.60165E-001	4.44657E-004	0.00000E+000	-1.59980E-001	-1.60393E-001	8	...........
	145	58.4	-1.50165E-001	4.46540E-004	0.00000E+000	-1.49981E-001	-1.50189E-001	9	...........
	146	58.8	-1.40165E-001	4.48041E-004	0.00000E+000	-1.39982E-001	-1.40185E-001	9	...........
	147	59.2	-1.30165E-001	4.49208E-004	0.00000E+000	-1.29984E-001	-1.30182E-001	9	...........
	148	59.6	-1.20365E-001	4.51041E-004	0.00000E+000	-1.19985E-001	-1.20178E-001	9	...........
	149	60	-1.10165E-001	4.51875E-004	0.00000E+000	-1.09986E-001	-1.10374E-001	9	...........
	150	60.4	-1.00165E-001	4.53208E-004	0.00000E+000	-9.99874E-002	-1.00371E-001	9	...........
	151	60.8	-9.01651E-002	4.54209E-004	0.00000E+000	-8.99886E-002	-9.03670E-002	9	...........
	152	61.2	-8.01651E-002	4.55209E-004	0.00000E+000	-7.99899E-002	-8.03633E-002	9	...........
	153	61.6	-7.01651E-002	4.56376E-004	0.00000E+000	-6.99912E-002	-7.03596E-002	9	...........
	154	62	-6.01651E-002	4.57709E-004	0.00000E+000	-5.99924E-002	-6.03559E-002	9	...........
	155	62.4	-5.01651E-002	4.57876E-004	0.00000E+000	-4.99937E-002	-5.05523E-002	9	...........
	156	62.8	-4.01651E-002	4.58710E-004	0.00000E+000	-3.99949E-002	-4.03485E-002	9	...........
	157	63.2	-3.03651E-002	4.58710E-004	0.00000E+000	-2.99962E-002	-3.03448E-002	9	...........
	158	63.6	-2.01651E-002	4.60210E-004	0.00000E+000	-1.99975E-002	-2.03411E-002	9	...........
	159	64	-1.03651E-002	4.60877E-004	0.00000E+000	-9.99874E-003	-1.03374E-002	9	...........
	160	64.4	-1.65120E-004	4.61043E-004	0.00000E+000	0.00000E+000	-3.33723E-004	9	...........
	161	64.8	9.63488E-003	4.62044E-004	0.00000E+000	9.99874E-003	9.46990E-003	9	...........
	162	65.2	1.98349E-002	4.61877E-004	0.00000E+000	1.99975E-002	1.96737E-002	9	...........
	163	65.6	2.96349E-002	4.62710E-004	0.00000E+000	2.99962E-002	2.94773E-002	9	...........
	164	66	3.98349E-002	4.62877E-004	0.00000E+000	3.99949E-002	3.96811E-002	9	...........
	165	66.4	4.98349E-002	4.63044E-004	0.00000E+000	4.99937E-002	4.96848E-002	9	...........
	166	66.8	5.98349E-002	4.63211E-004	0.00000E+000	5.99924E-002	5.94884E-002	9	...........
	167	67.2	6.98349E-002	4.63544E-004	0.00000E+000	6.99912E-002	6.94921E-002	9	...........
	168	67.6	7.96349E-002	4.63211E-004	0.00000E+000	7.99899E-002	7.94958E-002	9	...........
	169	68	8.98349E-002	4.63211E-004	0.00000E+000	8.99886E-002	8.94995E-002	9	...........
	170	68.4	9.96349E-002	4.62710E-004	0.00000E+000	9.99874E-002	9.95032E-002	9	...........
	171	68.8	1.09635E-001	4.62544E-004	0.00000E+000	1.09986E-001	1.09507E-001	9	...........
	172	69.2	1.19435E-001	4.62210E-004	0.00000E+000	1.19985E-001	1.19511E-001	9	...........
	173	69.6	1.29635E-001	4.61710E-004	0.00000E+000	1.29984E-001	1.29714E-001	9	...........
	174	70	1.39635E-001	4.61544E-004	0.00000E+000	1.39982E-001	1.39318E-001	9	...........
	175	70.4	1.49635E-001	4.61210E-004	0.00000E+000	1.49981E-001	1.49522E-001	9	...........
	176	70.8	1.59635E-001	4.60377E-004	0.00000E+000	1.59980E-001	1.59525E-001	9	...........
	177	71.2	1.69635E-001	4.59376E-004	0.00000E+000	1.69979E-001	1.69529E-001	9	...........
	178	71.6	1.79635E-001	4.58543E-004	0.00000E+000	1.79977E-001	1.79533E-001	9	...........
	179	72	1.89635E-001	4.57709E-004	0.00000E+000	1.89976E-001	1.89336E-001	9	...........
	180	72.4	1.99635E-001	4.57543E-004	0.00000E+000	2.00025E-001	1.99540E-001	9	...........
	181	72.8	2.09635E-001	4.55542E-004	0.00000E+000	2.10023E-001	2.09544E-001	9	...........
	182	73.2	2.19635E-001	4.54709E-004	0.00000E+000	2.20022E-001	2.19347E-001	9	...........
	183	73.6	2.29435E-001	4.53709E-004	0.00000E+000	2.30021E-001	2.29551E-001	9	...........
	184	74	2.39635E-001	4.52542E-004	0.00000E+000	2.40020E-001	2.39355E-001	9	...........
	185	74.4	2.49435E-001	4.50708E-004	0.00000E+000	2.50018E-001	2.49159E-001	9	...........
	186	74.8	2.59435E-001	4.49041E-004	0.00000E+000	2.60017E-001	2.59362E-001	9	...........
	187	75.2	2.69635E-001	4.48207E-004	0.00000E+000	2.70016E-001	2.69566E-001	9	...........
	188	75.6	2.79635E-001	4.46707E-004	0.00000E+000	2.80015E-001	2.79370E-001	9	...........
	189	76	2.89435E-001	4.45040E-004	0.00000E+000	2.90013E-001	2.89373E-001	9	...........
	190	76.4	2.99635E-001	4.43873E-004	0.00000E+000	3.00012E-001	2.99377E-001	9	...........
	191	76.8	3.09435E-001	4.42039E-004	0.00000E+000	3.10011E-001	3.09381E-001	9	...........
	192	77.2	3.19435E-001	4.40873E-004	0.00000E+000	3.20010E-001	3.19384E-001	9	...........
	193	77.6	3.29435E-001	4.39372E-004	0.00000E+000	3.30008E-001	3.29388E-001	9	...........
	194	78	3.39635E-001	4.38205E-004	0.00000E+000	3.40007E-001	3.39192E-001	9	...........
	195	78.4	3.49635E-001	4.37372E-004	0.00000E+000	3.50006E-001	3.49396E-001	9	...........
	196	78.8	3.59435E-001	4.35538E-004	0.00000E+000	3.60005E-001	3.59399E-001	9	...........
	197	79.2	3.69635E-001	4.34538E-004	0.00000E+000	3.70003E-001	3.69403E-001	9	...........
	198	79.6	3.79635E-001	4.33704E-004	0.00000E+000	3.80002E-001	3.79207E-001	9	...........
	199	80	3.89635E-001	4.32537E-004	0.00000E+000	3.90001E-001	3.89210E-001	9	...........
	200	80.4	3.99635E-001	4.32037E-004	0.00000E+000	3.99999E-001	3.99214E-001	9	...........
	201	80.8	4.09435E-001	4.30704E-004	0.00000E+000	4.09998E-001	4.09218E-001	9	...........
	202	81.2	4.19435E-001	4.30037E-004	0.00000E+000	4.19997E-001	4.19421E-001	9	...........
	203	81.6	4.29435E-001	4.30037E-004	0.00000E+000	4.29996E-001	4.29225E-001	9	...........
	204	82	4.39435E-001	4.29370E-004	0.00000E+000	4.39994E-001	4.39229E-001	9	...........
	205	82.4	4.49435E-001	4.29203E-004	0.00000E+000	4.49993E-001	4.49433E-001	9	...........
	206	82.8	4.59435E-001	4.29037E-004	0.00000E+000	4.59992E-001	4.59436E-001	9	...........
	207	83.2	4.69435E-001	4.29203E-004	0.00000E+000	4.69991E-001	4.69240E-001	9	...........
	208	83.6	4.79435E-001	4.29370E-004	0.00000E+000	4.79989E-001	4.79043E-001	9	...........
	209	84	4.89435E-001	4.29870E-004	0.00000E+000	4.89988E-001	4.89247E-001	9	...........
	210	84.4	4.99235E-001	4.30370E-004	0.00000E+000	4.99987E-001	4.99251E-001	9	...........
	211	84.8	5.09435E-001	4.30704E-004	0.00000E+000	5.09986E-001	5.09255E-001	9	...........
	212	85.2	5.19235E-001	4.31204E-004	0.00000E+000	5.19984E-001	5.19258E-001	9	...........
	213	85.6	5.29435E-001	4.32037E-004	0.00000E+000	5.29983E-001	5.29462E-001	9	...........
	214	86	5.39435E-001	4.32204E-004	0.00000E+000	5.39982E-001	5.39066E-001	9	...........
	215	86.4	5.49435E-001	4.33538E-004	0.00000E+000	5.49981E-001	5.49069E-001	9	...........
	216	86.8	5.59435E-001	4.34204E-004	0.00000E+000	5.59979E-001	5.59273E-001	9	...........
	217	87.2	5.69435E-001	4.35538E-004	0.00000E+000	5.69978E-001	5.69277E-001	9	...........
	218	87.6	5.79435E-001	4.35872E-004	0.00000E+000	5.79977E-001	5.78880E-001	9	...........
	219	88	5.89435E-001	4.37038E-004	0.00000E+000	5.89975E-001	5.89084E-001	9	...........
	220	88.4	5.99435E-001	4.39039E-004	0.00000E+000	6.00024E-001	5.99288E-001	9	...........
	221	88.8	6.09435E-001	4.39706E-004	0.00000E+000	6.10023E-001	6.09092E-001	9	...........
	222	89.2	6.19235E-001	4.40706E-004	0.00000E+000	6.20022E-001	6.19295E-001	9	...........
	223	89.6	6.29435E-001	4.43040E-004	0.00000E+000	6.30020E-001	6.29299E-001	9	...........
	224	90	6.39435E-001	4.43707E-004	0.00000E+000	6.40019E-001	6.39103E-001	9	...........
	225	90.4	6.49435E-001	4.45540E-004	0.00000E+000	6.50018E-001	6.49106E-001	9	...........
	226	90.8	6.59435E-001	4.46874E-004	0.00000E+000	6.60017E-001	6.59110E-001	9	...........
	227	91.2	6.69235E-001	4.49041E-004	0.00000E+000	6.70015E-001	6.69114E-001	9	...........
	228	91.6	6.79235E-001	4.50708E-004	0.00000E+000	6.80014E-001	6.79117E-001	9	...........
	229	92	6.89235E-001	4.52875E-004	0.00000E+000	6.90013E-001	6.89121E-001	9	...........
	230	92.4	6.99235E-001	4.55376E-004	0.00000E+000	7.00012E-001	6.98925E-001	9	...........
	231	92.8	7.09435E-001	4.57543E-004	0.00000E+000	7.10010E-001	7.09129E-001	9	...........
	232	93.2	7.19235E-001	4.59543E-004	0.00000E+000	7.20009E-001	7.19132E-001	9	...........
	233	93.6	7.29235E-001	4.62710E-004	0.00000E+000	7.30008E-001	7.29336E-001	9	...........
	234	94	7.39235E-001	4.65878E-004	0.00000E+000	7.40007E-001	7.39140E-001	9	...........
	235	94.4	7.49235E-001	4.69045E-004	0.00000E+000	7.50005E-001	7.49143E-001	9	...........
	236	94.8	7.59235E-001	4.72713E-004	0.00000E+000	7.60004E-001	7.59147E-001	9	...........
	237	95.2	7.69235E-001	4.76380E-004	0.00000E+000	7.70003E-001	7.68951E-001	9	...........
	238	95.6	7.79235E-001	4.80214E-004	0.00000E+000	7.80001E-001	7.78954E-001	9	...........
	239	96	7.89235E-001	4.84382E-004	0.00000E+000	7.90000E-001	7.89158E-001	9	...........
	240	96.4	7.99235E-001	4.88216E-004	0.00000E+000	7.99999E-001	7.98962E-001	9	...........
CURVE2	TABLE
	Pt	T	Vf	Im	Vu	Sig	Ach	IERange	Over
	#	s	V vs. Ref.	A	V	V	V	#	bits
	241	96.8	7.89235E-001	3.05844E-004	0.00000E+000	7.90000E-001	7.89158E-001	9	...........
	242	97.2	7.79235E-001	1.82117E-004	0.00000E+000	7.80001E-001	7.78954E-001	8	...........
	243	97.6	7.69235E-001	9.38354E-005	0.00000E+000	7.70003E-001	7.68951E-001	8	...........
	244	98	7.59035E-001	2.88931E-005	0.00000E+000	7.60004E-001	7.59147E-001	8	...........
	245	98.4	7.49435E-001	-2.05822E-005	0.00000E+000	7.50005E-001	7.49143E-001	7	...........
	246	98.8	7.39435E-001	-5.47442E-005	0.00000E+000	7.40007E-001	7.39140E-001	7	....ih..i..
	247	99.2	7.29435E-001	-8.75188E-005	0.00000E+000	7.30008E-001	7.28936E-001	8	...........
	248	99.6	7.19235E-001	-1.10674E-004	0.00000E+000	7.20009E-001	7.19132E-001	8	...........
	249	100	7.09235E-001	-1.28621E-004	0.00000E+000	7.10010E-001	7.09329E-001	8	...........
	250	100.4	6.99435E-001	-1.43413E-004	0.00000E+000	7.00012E-001	6.99125E-001	8	...........
	251	100.8	6.89435E-001	-1.55767E-004	0.00000E+000	6.90013E-001	6.89121E-001	8	...........
	252	101.2	6.79435E-001	-1.65717E-004	0.00000E+000	6.80014E-001	6.78917E-001	8	...........
	253	101.6	6.69235E-001	-1.74264E-004	0.00000E+000	6.70015E-001	6.69114E-001	8	...........
	254	102	6.59235E-001	-1.81443E-004	0.00000E+000	6.60017E-001	6.59110E-001	8	...........
	255	102.4	6.49235E-001	-1.87537E-004	0.00000E+000	6.50018E-001	6.49106E-001	8	...........
	256	102.8	6.39435E-001	-1.93396E-004	0.00000E+000	6.40019E-001	6.39103E-001	8	...........
	257	103.2	6.29435E-001	-1.98405E-004	0.00000E+000	6.30020E-001	6.29099E-001	8	...........
	258	103.6	6.19435E-001	-2.03213E-004	0.00000E+000	6.20022E-001	6.19295E-001	8	...........
	259	104	6.09435E-001	-2.07387E-004	0.00000E+000	6.10023E-001	6.09092E-001	8	...........
	260	104.4	5.99235E-001	-2.11293E-004	0.00000E+000	6.00024E-001	5.99288E-001	8	...........
	261	104.8	5.89435E-001	-2.15667E-004	0.00000E+000	5.89975E-001	5.89084E-001	8	...........
	262	105.2	5.79435E-001	-2.19507E-004	0.00000E+000	5.79977E-001	5.79080E-001	8	...........
	263	105.6	5.69235E-001	-2.23046E-004	0.00000E+000	5.69978E-001	5.69277E-001	8	...........
	264	106	5.59235E-001	-2.26802E-004	0.00000E+000	5.59979E-001	5.59273E-001	8	...........
	265	106.4	5.49435E-001	-2.30158E-004	0.00000E+000	5.49981E-001	5.49069E-001	8	...........
	266	106.8	5.39435E-001	-2.34015E-004	0.00000E+000	5.39982E-001	5.39066E-001	8	...........
	267	107.2	5.29435E-001	-2.37203E-004	0.00000E+000	5.29983E-001	5.29262E-001	8	...........
	268	107.6	5.19435E-001	-2.41160E-004	0.00000E+000	5.19984E-001	5.19258E-001	8	...........
	269	108	5.09435E-001	-2.45000E-004	0.00000E+000	5.09986E-001	5.09255E-001	8	...........
	270	108.4	4.99235E-001	-2.48539E-004	0.00000E+000	4.99987E-001	4.99251E-001	8	...........
	271	108.8	4.89435E-001	-2.52045E-004	0.00000E+000	4.89988E-001	4.89247E-001	8	...........
	272	109.2	4.79435E-001	-2.55584E-004	0.00000E+000	4.79989E-001	4.79244E-001	8	...........
	273	109.6	4.69435E-001	-2.59424E-004	0.00000E+000	4.69991E-001	4.69440E-001	8	...........
	274	110	4.59435E-001	-2.63364E-004	0.00000E+000	4.59992E-001	4.59236E-001	8	...........
	275	110.4	4.49435E-001	-2.67053E-004	0.00000E+000	4.49993E-001	4.49232E-001	8	...........
	276	110.8	4.39635E-001	-2.70576E-004	0.00000E+000	4.39994E-001	4.39429E-001	8	...........
	277	111.2	4.29635E-001	-2.74533E-004	0.00000E+000	4.29996E-001	4.29425E-001	8	...........
	278	111.6	4.19435E-001	-2.77805E-004	0.00000E+000	4.19997E-001	4.19421E-001	8	...........
	279	112	4.09435E-001	-2.81845E-004	0.00000E+000	4.09998E-001	4.09418E-001	8	...........
	280	112.4	3.99435E-001	-2.85301E-004	0.00000E+000	3.99999E-001	3.99414E-001	8	...........
	281	112.8	3.89435E-001	-2.89057E-004	0.00000E+000	3.90001E-001	3.89410E-001	8	...........
	282	113.2	3.79635E-001	-2.92630E-004	0.00000E+000	3.80002E-001	3.79407E-001	8	...........
	283	113.6	3.69635E-001	-2.96286E-004	0.00000E+000	3.70003E-001	3.69403E-001	8	...........
	284	114	3.59435E-001	-3.00376E-004	0.00000E+000	3.60005E-001	3.59399E-001	8	...........
	285	114.4	3.49635E-001	-3.03782E-004	0.00000E+000	3.50006E-001	3.49396E-001	8	...........
	286	114.8	3.39635E-001	-3.07621E-004	0.00000E+000	3.40007E-001	3.39392E-001	8	...........
	287	115.2	3.29435E-001	-3.11027E-004	0.00000E+000	3.30008E-001	3.29188E-001	8	...........
	288	115.6	3.19435E-001	-3.14783E-004	0.00000E+000	3.20010E-001	3.19384E-001	8	...........
	289	116	3.09635E-001	-3.18673E-004	0.00000E+000	3.10011E-001	3.09381E-001	8	...........
	290	116.4	2.99435E-001	-3.22146E-004	0.00000E+000	3.00012E-001	2.99577E-001	8	...........
	291	116.8	2.89435E-001	-3.25935E-004	0.00000E+000	2.90013E-001	2.89173E-001	8	...........
	292	117.2	2.79635E-001	-3.29408E-004	0.00000E+000	2.80015E-001	2.79570E-001	8	...........
	293	117.6	2.69635E-001	-3.33198E-004	0.00000E+000	2.70016E-001	2.69566E-001	8	...........
	294	118	2.59635E-001	-3.37104E-004	0.00000E+000	2.60017E-001	2.59362E-001	8	...........
	295	118.4	2.49435E-001	-3.40927E-004	0.00000E+000	2.50018E-001	2.49559E-001	8	...........
	296	118.8	2.39635E-001	-3.44467E-004	0.00000E+000	2.40020E-001	2.39355E-001	8	...........
	297	119.2	2.29635E-001	-3.48440E-004	0.00000E+000	2.30021E-001	2.29551E-001	8	...........
	298	119.6	2.19835E-001	-3.51896E-004	0.00000E+000	2.20022E-001	2.19548E-001	8	...........
	299	120	2.09635E-001	-3.55886E-004	0.00000E+000	2.10023E-001	2.09544E-001	8	...........
	300	120.4	1.99835E-001	-3.59158E-004	0.00000E+000	2.00025E-001	1.99540E-001	8	...........
	301	120.8	1.89435E-001	-3.63248E-004	0.00000E+000	1.89976E-001	1.89336E-001	8	...........
	302	121.2	1.79635E-001	-3.67054E-004	0.00000E+000	1.79977E-001	1.79533E-001	8	...........
	303	121.6	1.69635E-001	-3.70477E-004	0.00000E+000	1.69979E-001	1.69329E-001	8	...........
	304	122	1.59435E-001	-3.73832E-004	0.00000E+000	1.59980E-001	1.59325E-001	8	...........
	305	122.4	1.49635E-001	-3.77539E-004	0.00000E+000	1.49981E-001	1.49722E-001	8	...........
	306	122.8	1.39635E-001	-3.81195E-004	0.00000E+000	1.39982E-001	1.39518E-001	8	...........
	307	123.2	1.29635E-001	-3.84467E-004	0.00000E+000	1.29984E-001	1.29314E-001	8	...........
	308	123.6	1.19635E-001	-3.88040E-004	0.00000E+000	1.19985E-001	1.19511E-001	8	...........
	309	124	1.09435E-001	-3.91362E-004	0.00000E+000	1.09986E-001	1.09707E-001	8	...........
	310	124.4	9.96349E-002	-3.94918E-004	0.00000E+000	9.99874E-002	9.95032E-002	8	...........
	311	124.8	8.96349E-002	-3.98173E-004	0.00000E+000	8.99886E-002	8.94995E-002	8	...........
	312	125.2	7.98349E-002	-4.01562E-004	0.00000E+000	7.99899E-002	7.96959E-002	8	...........
	313	125.6	6.96349E-002	-4.04885E-004	0.00000E+000	6.99912E-002	6.94921E-002	8	...........
	314	126	5.98349E-002	-4.08107E-004	0.00000E+000	5.99924E-002	5.96885E-002	8	...........
	315	126.4	4.96349E-002	-4.11329E-004	0.00000E+000	4.99937E-002	4.96848E-002	8	...........
	316	126.8	3.98349E-002	-4.14534E-004	0.00000E+000	3.99949E-002	3.94810E-002	8	...........
	317	127.2	2.98349E-002	-4.18073E-004	0.00000E+000	2.99962E-002	2.94773E-002	8	...........
	318	127.6	1.96349E-002	-4.21128E-004	0.00000E+000	1.99975E-002	1.96737E-002	8	...........
	319	128	9.63488E-003	-4.24033E-004	0.00000E+000	9.99874E-003	9.66997E-003	8	...........
	320	128.4	-1.65120E-004	-4.27239E-004	0.00000E+000	0.00000E+000	-3.33723E-004	8	...........
	321	128.8	-1.03651E-002	-4.30427E-004	0.00000E+000	-9.99874E-003	-1.01373E-002	8	...........
	322	129.2	-2.01651E-002	-4.33483E-004	0.00000E+000	-1.99975E-002	-2.01410E-002	8	...........
	323	129.6	-2.99651E-002	-4.36254E-004	0.00000E+000	-2.99962E-002	-3.01447E-002	8	...........
	324	130	-4.03651E-002	-4.39860E-004	0.00000E+000	-3.99949E-002	-4.03485E-002	8	...........
	325	130.4	-5.01651E-002	-4.42581E-004	0.00000E+000	-4.99937E-002	-5.01521E-002	8	...........
	326	130.8	-6.03651E-002	-4.45636E-004	0.00000E+000	-5.99924E-002	-6.03559E-002	8	...........
	327	131.2	-7.03651E-002	-4.48648E-004	0.00000E+000	-6.99912E-002	-7.03596E-002	9	...........
	328	131.6	-8.01651E-002	-4.51648E-004	0.00000E+000	-7.99899E-002	-8.03633E-002	9	...........
	329	132	-9.01651E-002	-4.54649E-004	0.00000E+000	-8.99886E-002	-9.01669E-002	9	...........
	330	132.4	-1.00365E-001	-4.57650E-004	0.00000E+000	-9.99874E-002	-1.00171E-001	9	...........
	331	132.8	-1.10165E-001	-4.59983E-004	0.00000E+000	-1.09986E-001	-1.10374E-001	9	...........
	332	133.2	-1.20165E-001	-4.62984E-004	0.00000E+000	-1.19985E-001	-1.20178E-001	9	...........
	333	133.6	-1.30165E-001	-4.65985E-004	0.00000E+000	-1.29984E-001	-1.30182E-001	9	...........
	334	134	-1.40165E-001	-4.68985E-004	0.00000E+000	-1.39982E-001	-1.40385E-001	9	...........
	335	134.4	-1.49965E-001	-4.71653E-004	0.00000E+000	-1.49981E-001	-1.50189E-001	9	...........
	336	134.8	-1.60165E-001	-4.74486E-004	0.00000E+000	-1.59980E-001	-1.60193E-001	9	...........
	337	135.2	-1.70165E-001	-4.77820E-004	0.00000E+000	-1.69979E-001	-1.70197E-001	9	...........
	338	135.6	-1.80165E-001	-4.80154E-004	0.00000E+000	-1.79977E-001	-1.80000E-001	9	...........
	339	136	-1.89965E-001	-4.82821E-004	0.00000E+000	-1.89976E-001	-1.90204E-001	9	...........
	340	136.4	-2.00165E-001	-4.86322E-004	0.00000E+000	-2.00025E-001	-2.00408E-001	9	...........
	341	136.8	-2.10165E-001	-4.88823E-004	0.00000E+000	-2.10023E-001	-2.10411E-001	9	...........
	342	137.2	-2.19965E-001	-4.91157E-004	0.00000E+000	-2.20022E-001	-2.20015E-001	9	...........
	343	137.6	-2.30165E-001	-4.94324E-004	0.00000E+000	-2.30021E-001	-2.30219E-001	9	...........
	344	138	-2.40165E-001	-4.96824E-004	0.00000E+000	-2.40020E-001	-2.40022E-001	9	...........
	345	138.4	-2.49965E-001	-4.99325E-004	0.00000E+000	-2.50018E-001	-2.50226E-001	9	...........
	346	138.8	-2.60165E-001	-5.01992E-004	0.00000E+000	-2.60017E-001	-2.60030E-001	9	...........
	347	139.2	-2.70165E-001	-5.04159E-004	0.00000E+000	-2.70016E-001	-2.70033E-001	9	...........
	348	139.6	-2.80165E-001	-5.06660E-004	0.00000E+000	-2.80015E-001	-2.80237E-001	9	...........
	349	140	-2.90165E-001	-5.09494E-004	0.00000E+000	-2.90013E-001	-2.90041E-001	9	...........
	350	140.4	-2.99965E-001	-5.11994E-004	0.00000E+000	-3.00012E-001	-3.00045E-001	9	...........
	351	140.8	-3.09965E-001	-5.14161E-004	0.00000E+000	-3.10011E-001	-3.10048E-001	9	...........
	352	141.2	-3.19965E-001	-5.16329E-004	0.00000E+000	-3.20010E-001	-3.20052E-001	9	...........
	353	141.6	-3.29965E-001	-5.18662E-004	0.00000E+000	-3.30008E-001	-3.30056E-001	9	...........
	354	142	-3.40165E-001	-5.21163E-004	0.00000E+000	-3.40007E-001	-3.39859E-001	9	...........
	355	142.4	-3.49965E-001	-5.22497E-004	0.00000E+000	-3.50006E-001	-3.50063E-001	9	...........
	356	142.8	-3.59965E-001	-5.24830E-004	0.00000E+000	-3.60005E-001	-3.60067E-001	9	...........
	357	143.2	-3.69965E-001	-5.27164E-004	0.00000E+000	-3.70003E-001	-3.70070E-001	9	...........
	358	143.6	-3.79965E-001	-5.28831E-004	0.00000E+000	-3.80002E-001	-3.80074E-001	9	...........
	359	144	-3.90165E-001	-5.30498E-004	0.00000E+000	-3.90001E-001	-3.89878E-001	9	...........
	360	144.4	-3.99965E-001	-5.32665E-004	0.00000E+000	-3.99999E-001	-3.99881E-001	9	...........
	361	144.8	-4.09965E-001	-5.34166E-004	0.00000E+000	-4.09998E-001	-4.09685E-001	9	...........
	362	145.2	-4.20165E-001	-5.36333E-004	0.00000E+000	-4.19997E-001	-4.20089E-001	9	...........
	363	145.6	-4.29965E-001	-5.38000E-004	0.00000E+000	-4.29996E-001	-4.30093E-001	9	...........
	364	146	-4.39965E-001	-5.39500E-004	0.00000E+000	-4.39994E-001	-4.40096E-001	9	...........
	365	146.4	-4.49965E-001	-5.41667E-004	0.00000E+000	-4.49993E-001	-4.50100E-001	9	...........
	366	146.8	-4.59965E-001	-5.43834E-004	0.00000E+000	-4.59992E-001	-4.59704E-001	9	...........
	367	147.2	-4.70165E-001	-5.45501E-004	0.00000E+000	-4.69991E-001	-4.70107E-001	9	...........
	368	147.6	-4.79765E-001	-5.47835E-004	0.00000E+000	-4.79989E-001	-4.79911E-001	9	...........
	369	148	-4.89965E-001	-5.49836E-004	0.00000E+000	-4.89988E-001	-4.89715E-001	9	...........
	370	148.4	-4.99965E-001	-5.51836E-004	0.00000E+000	-4.99987E-001	-4.99918E-001	9	...........
	371	148.8	-5.09965E-001	-5.54503E-004	0.00000E+000	-5.09986E-001	-5.09922E-001	9	...........
	372	149.2	-5.19765E-001	-5.57671E-004	0.00000E+000	-5.19984E-001	-5.19926E-001	9	...........
	373	149.6	-5.29965E-001	-5.59671E-004	0.00000E+000	-5.29983E-001	-5.29930E-001	9	...........
	374	150	-5.39965E-001	-5.62838E-004	0.00000E+000	-5.39982E-001	-5.39933E-001	9	...........
	375	150.4	-5.49765E-001	-5.66006E-004	0.00000E+000	-5.49981E-001	-5.49937E-001	9	...........
	376	150.8	-5.59765E-001	-5.69173E-004	0.00000E+000	-5.59979E-001	-5.59941E-001	9	...........
	377	151.2	-5.69765E-001	-5.72840E-004	0.00000E+000	-5.69978E-001	-5.69944E-001	9	...........
	378	151.6	-5.79965E-001	-5.76675E-004	0.00000E+000	-5.79977E-001	-5.79948E-001	9	...........
	379	152	-5.89765E-001	-5.81176E-004	0.00000E+000	-5.89975E-001	-5.89952E-001	9	...........
	380	152.4	-5.99965E-001	-5.86510E-004	0.00000E+000	-6.00024E-001	-5.99955E-001	9	...........
	381	152.8	-6.09765E-001	-5.91011E-004	0.00000E+000	-6.10023E-001	-6.09759E-001	9	...........
	382	153.2	-6.19965E-001	-5.96345E-004	0.00000E+000	-6.20022E-001	-6.19963E-001	9	...........
	383	153.6	-6.29965E-001	-6.01513E-004	0.00000E+000	-6.30020E-001	-6.29966E-001	9	...........
	384	154	-6.39765E-001	-6.07348E-004	0.00000E+000	-6.40019E-001	-6.39770E-001	9	...........
	385	154.4	-6.49765E-001	-6.13849E-004	0.00000E+000	-6.50018E-001	-6.49974E-001	9	...........
	386	154.8	-6.59765E-001	-6.21517E-004	0.00000E+000	-6.60017E-001	-6.59777E-001	9	...........
	387	155.2	-6.69765E-001	-6.29352E-004	0.00000E+000	-6.70015E-001	-6.69581E-001	9	...........
	388	155.6	-6.79765E-001	-6.37687E-004	0.00000E+000	-6.80014E-001	-6.79985E-001	9	...........
	389	156	-6.89765E-001	-6.46689E-004	0.00000E+000	-6.90013E-001	-6.89789E-001	9	...........
	390	156.4	-6.99765E-001	-6.57192E-004	0.00000E+000	-7.00012E-001	-6.99792E-001	9	...........
	391	156.8	-7.09765E-001	-6.68027E-004	0.00000E+000	-7.10010E-001	-7.09596E-001	9	...........
	392	157.2	-7.19765E-001	-6.79363E-004	0.00000E+000	-7.20009E-001	-7.19800E-001	9	...........
	393	157.6	-7.29965E-001	-6.92032E-004	0.00000E+000	-7.30008E-001	-7.29603E-001	9	...........
	394	158	-7.39965E-001	-7.06035E-004	0.00000E+000	-7.40007E-001	-7.39807E-001	9	...........
	395	158.4	-7.49765E-001	-7.20871E-004	0.00000E+000	-7.50005E-001	-7.49811E-001	9	...........
	396	158.8	-7.59765E-001	-7.36708E-004	0.00000E+000	-7.60004E-001	-7.59814E-001	9	...........
	397	159.2	-7.69765E-001	-7.53712E-004	0.00000E+000	-7.70003E-001	-7.69618E-001	9	...........
	398	159.6	-7.79765E-001	-7.72049E-004	0.00000E+000	-7.80001E-001	-7.79822E-001	9	...........
	399	160	-7.89765E-001	-7.91886E-004	0.00000E+000	-7.90000E-001	-7.89625E-001	9	...........
	400	160.4	-7.99765E-001	-8.12391E-004	0.00000E+000	-7.99999E-001	-7.99629E-001	9	...........
	401	160.8	-7.89965E-001	-5.87677E-004	0.00000E+000	-7.90000E-001	-7.89825E-001	9	...........
	402	161.2	-7.79565E-001	-4.25810E-004	0.00000E+000	-7.80001E-001	-7.79822E-001	9	...........
	403	161.6	-7.69765E-001	-3.01617E-004	0.00000E+000	-7.70003E-001	-7.70018E-001	9	...........
	404	162	-7.59765E-001	-2.03346E-004	0.00000E+000	-7.60004E-001	-7.59814E-001	8	...........
	405	162.4	-7.49765E-001	-1.24130E-004	0.00000E+000	-7.50005E-001	-7.49611E-001	8	...........
	406	162.8	-7.39765E-001	-5.93048E-005	0.00000E+000	-7.40007E-001	-7.39807E-001	8	...........
	407	163.2	-7.29765E-001	-4.88019E-006	0.00000E+000	-7.30008E-001	-7.29803E-001	8	...........
	408	163.6	-7.19765E-001	4.03561E-005	0.00000E+000	-7.20009E-001	-7.19800E-001	7	...........
	409	164	-7.09765E-001	5.47114E-005	0.00000E+000	-7.10010E-001	-7.09796E-001	7	....ih..i..
	410	164.4	-6.99765E-001	1.10580E-004	0.00000E+000	-7.00012E-001	-6.99792E-001	8	...........
	411	164.8	-6.89765E-001	1.38377E-004	0.00000E+000	-6.90013E-001	-6.89789E-001	8	...........
	412	165.2	-6.79765E-001	1.61966E-004	0.00000E+000	-6.80014E-001	-6.79585E-001	8	...........
	413	165.6	-6.69765E-001	1.81399E-004	0.00000E+000	-6.70015E-001	-6.69981E-001	8	...........
	414	166	-6.59765E-001	1.99362E-004	0.00000E+000	-6.60017E-001	-6.59577E-001	8	...........
	415	166.4	-6.49965E-001	2.14538E-004	0.00000E+000	-6.50018E-001	-6.49774E-001	8	...........
	416	166.8	-6.39965E-001	2.27810E-004	0.00000E+000	-6.40019E-001	-6.39970E-001	8	...........
	417	167.2	-6.29965E-001	2.39680E-004	0.00000E+000	-6.30020E-001	-6.29966E-001	8	...........
	418	167.6	-6.19965E-001	2.50365E-004	0.00000E+000	-6.20022E-001	-6.19763E-001	8	...........
	419	168	-6.09765E-001	2.59831E-004	0.00000E+000	-6.10023E-001	-6.09759E-001	8	...........
	420	168.4	-5.99765E-001	2.68846E-004	0.00000E+000	-6.00024E-001	-6.00155E-001	8	...........
	421	168.8	-5.89965E-001	2.76726E-004	0.00000E+000	-5.89975E-001	-5.89952E-001	8	...........
	422	169.2	-5.79965E-001	2.83854E-004	0.00000E+000	-5.79977E-001	-5.79548E-001	8	...........
	423	169.6	-5.69765E-001	2.90899E-004	0.00000E+000	-5.69978E-001	-5.69944E-001	8	...........
	424	170	-5.59965E-001	2.97360E-004	0.00000E+000	-5.59979E-001	-5.59741E-001	8	...........
	425	170.4	-5.49965E-001	3.03804E-004	0.00000E+000	-5.49981E-001	-5.49737E-001	8	...........
	426	170.8	-5.39965E-001	3.09247E-004	0.00000E+000	-5.39982E-001	-5.39933E-001	8	...........
	427	171.2	-5.29765E-001	3.14990E-004	0.00000E+000	-5.29983E-001	-5.29930E-001	8	...........
	428	171.6	-5.19765E-001	3.20549E-004	0.00000E+000	-5.19984E-001	-5.19926E-001	8	...........
	429	172	-5.09765E-001	3.25875E-004	0.00000E+000	-5.09986E-001	-5.09922E-001	8	...........
	430	172.4	-4.99965E-001	3.31050E-004	0.00000E+000	-4.99987E-001	-4.99918E-001	8	...........
	431	172.8	-4.89765E-001	3.36075E-004	0.00000E+000	-4.89988E-001	-4.89915E-001	8	...........
	432	173.2	-4.79765E-001	3.40800E-004	0.00000E+000	-4.79989E-001	-4.80111E-001	8	...........
	433	173.6	-4.69965E-001	3.45675E-004	0.00000E+000	-4.69991E-001	-4.70107E-001	8	...........
	434	174	-4.59765E-001	3.50399E-004	0.00000E+000	-4.59992E-001	-4.59904E-001	8	...........
	435	174.4	-4.49765E-001	3.55040E-004	0.00000E+000	-4.49993E-001	-4.50100E-001	8	...........
	436	174.8	-4.39965E-001	3.59481E-004	0.00000E+000	-4.39994E-001	-4.39896E-001	8	...........
	437	175.2	-4.29965E-001	3.63638E-004	0.00000E+000	-4.29996E-001	-4.29893E-001	8	...........
	438	175.6	-4.19965E-001	3.68530E-004	0.00000E+000	-4.19997E-001	-4.19889E-001	8	...........
	439	176	-4.09965E-001	3.72503E-004	0.00000E+000	-4.09998E-001	-4.10285E-001	8	...........
	440	176.4	-4.00165E-001	3.77194E-004	0.00000E+000	-3.99999E-001	-4.00081E-001	8	...........
	441	176.8	-3.89965E-001	3.80984E-004	0.00000E+000	-3.90001E-001	-3.90078E-001	8	...........
	442	177.2	-3.79965E-001	3.85107E-004	0.00000E+000	-3.80002E-001	-3.79874E-001	8	...........
	443	177.6	-3.69965E-001	3.89114E-004	0.00000E+000	-3.70003E-001	-3.70070E-001	8	...........
	444	178	-3.60165E-001	3.93037E-004	0.00000E+000	-3.60005E-001	-3.60267E-001	8	...........
	445	178.4	-3.49965E-001	3.96994E-004	0.00000E+000	-3.50006E-001	-3.50063E-001	8	...........
	446	178.8	-3.39965E-001	4.00884E-004	0.00000E+000	-3.40007E-001	-3.40059E-001	8	...........
	447	179.2	-3.29965E-001	4.04306E-004	0.00000E+000	-3.30008E-001	-3.30056E-001	8	...........
	448	179.6	-3.19765E-001	4.08246E-004	0.00000E+000	-3.20010E-001	-3.20252E-001	8	...........
	449	180	-3.10165E-001	4.11351E-004	0.00000E+000	-3.10011E-001	-3.10048E-001	8	...........
	450	180.4	-2.99965E-001	4.15058E-004	0.00000E+000	-3.00012E-001	-3.00045E-001	8	...........
	451	180.8	-2.90165E-001	4.17979E-004	0.00000E+000	-2.90013E-001	-2.89841E-001	8	...........
	452	181.2	-2.80165E-001	4.21268E-004	0.00000E+000	-2.80015E-001	-2.80237E-001	8	...........
	453	181.6	-2.70165E-001	4.24473E-004	0.00000E+000	-2.70016E-001	-2.70233E-001	8	...........
	454	182	-2.60365E-001	4.27312E-004	0.00000E+000	-2.60017E-001	-2.60030E-001	8	...........
	455	182.4	-2.49965E-001	4.30066E-004	0.00000E+000	-2.50018E-001	-2.50226E-001	8	...........
	456	182.8	-2.40165E-001	4.33054E-004	0.00000E+000	-2.40020E-001	-2.40222E-001	8	...........
	457	183.2	-2.30165E-001	4.35959E-004	0.00000E+000	-2.30021E-001	-2.30219E-001	8	...........
	458	183.6	-2.19965E-001	4.38046E-004	0.00000E+000	-2.20022E-001	-2.20215E-001	8	...........
	459	184	-2.10365E-001	4.40467E-004	0.00000E+000	-2.10023E-001	-2.10211E-001	8	...........
	460	184.4	-2.00165E-001	4.42871E-004	0.00000E+000	-2.00025E-001	-2.00408E-001	8	...........
	461	184.8	-1.90165E-001	4.45225E-004	0.00000E+000	-1.89976E-001	-1.90204E-001	8	...........
	462	185.2	-1.79965E-001	4.47707E-004	0.00000E+000	-1.79977E-001	-1.80200E-001	9	...........
	463	185.6	-1.70165E-001	4.49541E-004	0.00000E+000	-1.69979E-001	-1.70197E-001	9	...........
	464	186	-1.60165E-001	4.52042E-004	0.00000E+000	-1.59980E-001	-1.60193E-001	9	...........
	465	186.4	-1.50165E-001	4.53208E-004	0.00000E+000	-1.49981E-001	-1.50189E-001	9	...........
	466	186.8	-1.40165E-001	4.55209E-004	0.00000E+000	-1.39982E-001	-1.40185E-001	9	...........
	467	187.2	-1.30165E-001	4.56709E-004	0.00000E+000	-1.29984E-001	-1.30382E-001	9	...........
	468	187.6	-1.20365E-001	4.57876E-004	0.00000E+000	-1.19985E-001	-1.20178E-001	9	...........
	469	188	-1.10365E-001	4.59376E-004	0.00000E+000	-1.09986E-001	-1.10374E-001	9	...........
	470	188.4	-1.00165E-001	4.60543E-004	0.00000E+000	-9.99874E-002	-1.00171E-001	9	...........
	471	188.8	-9.03651E-002	4.61877E-004	0.00000E+000	-8.99886E-002	-9.03670E-002	9	...........
	472	189.2	-8.03651E-002	4.63377E-004	0.00000E+000	-7.99899E-002	-8.01632E-002	9	...........
	473	189.6	-7.01651E-002	4.64544E-004	0.00000E+000	-6.99912E-002	-7.01595E-002	9	...........
	474	190	-6.01651E-002	4.65544E-004	0.00000E+000	-5.99924E-002	-6.01558E-002	9	...........
	475	190.4	-5.01651E-002	4.66545E-004	0.00000E+000	-4.99937E-002	-5.03522E-002	9	...........
	476	190.8	-4.01651E-002	4.67378E-004	0.00000E+000	-3.99949E-002	-4.03485E-002	9	...........
	477	191.2	-3.03651E-002	4.68545E-004	0.00000E+000	-2.99962E-002	-3.03448E-002	9	...........
	478	191.6	-2.03651E-002	4.69045E-004	0.00000E+000	-1.99975E-002	-2.03411E-002	9	...........
	479	192	-1.01651E-002	4.69379E-004	0.00000E+000	-9.99874E-003	-1.03374E-002	9	...........
	480	192.4	-1.65120E-004	4.70045E-004	0.00000E+000	0.00000E+000	-5.33797E-004	9	...........
	481	192.8	9.83488E-003	4.70879E-004	0.00000E+000	9.99874E-003	9.46990E-003	9	...........
	482	193.2	1.96349E-002	4.71046E-004	0.00000E+000	1.99975E-002	1.96737E-002	9	...........
	483	193.6	2.96349E-002	4.71379E-004	0.00000E+000	2.99962E-002	2.96774E-002	9	...........
	484	194	3.98349E-002	4.71546E-004	0.00000E+000	3.99949E-002	3.96811E-002	9	...........
	485	194.4	4.98349E-002	4.71712E-004	0.00000E+000	4.99937E-002	4.96848E-002	9	...........
	486	194.8	5.96349E-002	4.71546E-004	0.00000E+000	5.99924E-002	5.94884E-002	9	...........
	487	195.2	6.96349E-002	4.72046E-004	0.00000E+000	6.99912E-002	6.94921E-002	9	...........
	488	195.6	7.96349E-002	4.71879E-004	0.00000E+000	7.99899E-002	7.96959E-002	9	...........
	489	196	8.96349E-002	4.72212E-004	0.00000E+000	8.99886E-002	8.94995E-002	9	...........
	490	196.4	9.96349E-002	4.71879E-004	0.00000E+000	9.99874E-002	9.95032E-002	9	...........
	491	196.8	1.09635E-001	4.71379E-004	0.00000E+000	1.09986E-001	1.09507E-001	9	...........
	492	197.2	1.19635E-001	4.71712E-004	0.00000E+000	1.19985E-001	1.19511E-001	9	...........
	493	197.6	1.29635E-001	4.71546E-004	0.00000E+000	1.29984E-001	1.29514E-001	9	...........
	494	198	1.39835E-001	4.70379E-004	0.00000E+000	1.39982E-001	1.39518E-001	9	...........
	495	198.4	1.49635E-001	4.70212E-004	0.00000E+000	1.49981E-001	1.49322E-001	9	...........
	496	198.8	1.59635E-001	4.69712E-004	0.00000E+000	1.59980E-001	1.59525E-001	9	...........
	497	199.2	1.69635E-001	4.69045E-004	0.00000E+000	1.69979E-001	1.69529E-001	9	...........
	498	199.6	1.79635E-001	4.68212E-004	0.00000E+000	1.79977E-001	1.79533E-001	9	...........
	499	200	1.89635E-001	4.67378E-004	0.00000E+000	1.89976E-001	1.89336E-001	9	...........
	500	200.4	1.99635E-001	4.66878E-004	0.00000E+000	2.00025E-001	1.99540E-001	9	...........
	501	200.8	2.09635E-001	4.66044E-004	0.00000E+000	2.10023E-001	2.09344E-001	9	...........
	502	201.2	2.19635E-001	4.65378E-004	0.00000E+000	2.20022E-001	2.19347E-001	9	...........
	503	201.6	2.29635E-001	4.63877E-004	0.00000E+000	2.30021E-001	2.29551E-001	9	...........
	504	202	2.39635E-001	4.62877E-004	0.00000E+000	2.40020E-001	2.39355E-001	9	...........
	505	202.4	2.49635E-001	4.61544E-004	0.00000E+000	2.50018E-001	2.49359E-001	9	...........
	506	202.8	2.59635E-001	4.60877E-004	0.00000E+000	2.60017E-001	2.59562E-001	9	...........
	507	203.2	2.69435E-001	4.58876E-004	0.00000E+000	2.70016E-001	2.69366E-001	9	...........
	508	203.6	2.79635E-001	4.57876E-004	0.00000E+000	2.80015E-001	2.79570E-001	9	...........
	509	204	2.89635E-001	4.56543E-004	0.00000E+000	2.90013E-001	2.89373E-001	9	...........
	510	204.4	2.99635E-001	4.55209E-004	0.00000E+000	3.00012E-001	2.99377E-001	9	...........
	511	204.8	3.09435E-001	4.53709E-004	0.00000E+000	3.10011E-001	3.09381E-001	9	...........
	512	205.2	3.19435E-001	4.52875E-004	0.00000E+000	3.20010E-001	3.19384E-001	9	...........
	513	205.6	3.29635E-001	4.50875E-004	0.00000E+000	3.30008E-001	3.29388E-001	9	...........
	514	206	3.39435E-001	4.49708E-004	0.00000E+000	3.40007E-001	3.39192E-001	9	...........
	515	206.4	3.49435E-001	4.48207E-004	0.00000E+000	3.50006E-001	3.49396E-001	9	...........
	516	206.8	3.59435E-001	4.46707E-004	0.00000E+000	3.60005E-001	3.59399E-001	9	...........
	517	207.2	3.69635E-001	4.45707E-004	0.00000E+000	3.70003E-001	3.69403E-001	9	...........
	518	207.6	3.79435E-001	4.44207E-004	0.00000E+000	3.80002E-001	3.79407E-001	9	...........
	519	208	3.89435E-001	4.43040E-004	0.00000E+000	3.90001E-001	3.89210E-001	9	...........
	520	208.4	3.99435E-001	4.41873E-004	0.00000E+000	3.99999E-001	3.99414E-001	9	...........
	521	208.8	4.09435E-001	4.39872E-004	0.00000E+000	4.09998E-001	4.09418E-001	9	...........
	522	209.2	4.19435E-001	4.39039E-004	0.00000E+000	4.19997E-001	4.19421E-001	9	...........
	523	209.6	4.29435E-001	4.38205E-004	0.00000E+000	4.29996E-001	4.29225E-001	9	...........
	524	210	4.39635E-001	4.37205E-004	0.00000E+000	4.39994E-001	4.39229E-001	9	...........
	525	210.4	4.49235E-001	4.36872E-004	0.00000E+000	4.49993E-001	4.49232E-001	9	...........
	526	210.8	4.59635E-001	4.36038E-004	0.00000E+000	4.59992E-001	4.59036E-001	9	...........
	527	211.2	4.69435E-001	4.35038E-004	0.00000E+000	4.69991E-001	4.69040E-001	9	...........
	528	211.6	4.79435E-001	4.34705E-004	0.00000E+000	4.79989E-001	4.79244E-001	9	...........
	529	212	4.89435E-001	4.34371E-004	0.00000E+000	4.89988E-001	4.89447E-001	9	...........
	530	212.4	4.99435E-001	4.34038E-004	0.00000E+000	4.99987E-001	4.99051E-001	9	...........
	531	212.8	5.09235E-001	4.34538E-004	0.00000E+000	5.09986E-001	5.09055E-001	9	...........
	532	213.2	5.19435E-001	4.34204E-004	0.00000E+000	5.19984E-001	5.19058E-001	9	...........
	533	213.6	5.29435E-001	4.33704E-004	0.00000E+000	5.29983E-001	5.29262E-001	9	...........
	534	214	5.39235E-001	4.34204E-004	0.00000E+000	5.39982E-001	5.39266E-001	9	...........
	535	214.4	5.49235E-001	4.34204E-004	0.00000E+000	5.49981E-001	5.49269E-001	9	...........
	536	214.8	5.59435E-001	4.34038E-004	0.00000E+000	5.59979E-001	5.59073E-001	9	...........
	537	215.2	5.69435E-001	4.34705E-004	0.00000E+000	5.69978E-001	5.69277E-001	9	...........
	538	215.6	5.79435E-001	4.34871E-004	0.00000E+000	5.79977E-001	5.79280E-001	9	...........
	539	216	5.89235E-001	4.35038E-004	0.00000E+000	5.89975E-001	5.89284E-001	9	...........
	540	216.4	5.99435E-001	4.35872E-004	0.00000E+000	6.00024E-001	5.99288E-001	9	...........
	541	216.8	6.09435E-001	4.35872E-004	0.00000E+000	6.10023E-001	6.09092E-001	9	...........
	542	217.2	6.19235E-001	4.35872E-004	0.00000E+000	6.20022E-001	6.19295E-001	9	...........
	543	217.6	6.29435E-001	4.36705E-004	0.00000E+000	6.30020E-001	6.29299E-001	9	...........
	544	218	6.39435E-001	4.37038E-004	0.00000E+000	6.40019E-001	6.39303E-001	9	...........
	545	218.4	6.49235E-001	4.37872E-004	0.00000E+000	6.50018E-001	6.49106E-001	9	...........
	546	218.8	6.59435E-001	4.38039E-004	0.00000E+000	6.60017E-001	6.59110E-001	9	...........
	547	219.2	6.69435E-001	4.38539E-004	0.00000E+000	6.70015E-001	6.69114E-001	9	...........
	548	219.6	6.79435E-001	4.39872E-004	0.00000E+000	6.80014E-001	6.79117E-001	9	...........
	549	220	6.89435E-001	4.40539E-004	0.00000E+000	6.90013E-001	6.89121E-001	9	...........
	550	220.4	6.99235E-001	4.41873E-004	0.00000E+000	7.00012E-001	6.98925E-001	9	...........
	551	220.8	7.09235E-001	4.42873E-004	0.00000E+000	7.10010E-001	7.09129E-001	9	...........
	552	221.2	7.19235E-001	4.44040E-004	0.00000E+000	7.20009E-001	7.19132E-001	9	...........
	553	221.6	7.29435E-001	4.46040E-004	0.00000E+000	7.30008E-001	7.29336E-001	9	...........
	554	222	7.39235E-001	4.47041E-004	0.00000E+000	7.40007E-001	7.39140E-001	9	...........
	555	222.4	7.49235E-001	4.49374E-004	0.00000E+000	7.50005E-001	7.49143E-001	9	...........
	556	222.8	7.59235E-001	4.51375E-004	0.00000E+000	7.60004E-001	7.59147E-001	9	...........
	557	223.2	7.69235E-001	4.53709E-004	0.00000E+000	7.70003E-001	7.68951E-001	9	...........
	558	223.6	7.79435E-001	4.56543E-004	0.00000E+000	7.80001E-001	7.79154E-001	9	...........
	559	224	7.89235E-001	4.59543E-004	0.00000E+000	7.90000E-001	7.89158E-001	9	...........
	560	224.4	7.99235E-001	4.62710E-004	0.00000E+000	7.99999E-001	7.98962E-001	9	...........
CURVE3	TABLE
	Pt	T	Vf	Im	Vu	Sig	Ach	IERange	Over
	#	s	V vs. Ref.	A	V	V	V	#	bits
	561	224.8	7.89235E-001	2.78005E-004	0.00000E+000	7.90000E-001	7.89158E-001	9	...........
	562	225.2	7.79235E-001	1.54955E-004	0.00000E+000	7.80001E-001	7.78954E-001	8	...........
	563	225.6	7.69235E-001	6.87934E-005	0.00000E+000	7.70003E-001	7.69151E-001	8	...........
	564	226	7.59435E-001	6.42210E-006	0.00000E+000	7.60004E-001	7.59147E-001	8	...........
	565	226.4	7.49435E-001	-3.98912E-005	0.00000E+000	7.50005E-001	7.49343E-001	7	...........
	566	226.8	7.39435E-001	-5.47442E-005	0.00000E+000	7.40007E-001	7.39140E-001	7	....ih..i..
	567	227.2	7.29435E-001	-1.02177E-004	0.00000E+000	7.30008E-001	7.29136E-001	8	...........
	568	227.6	7.19035E-001	-1.23479E-004	0.00000E+000	7.20009E-001	7.19132E-001	8	...........
	569	228	7.09235E-001	-1.40274E-004	0.00000E+000	7.10010E-001	7.08928E-001	8	...........
	570	228.4	6.99235E-001	-1.53763E-004	0.00000E+000	7.00012E-001	6.98925E-001	8	...........
	571	228.8	6.89235E-001	-1.65116E-004	0.00000E+000	6.90013E-001	6.89121E-001	8	...........
	572	229.2	6.79235E-001	-1.74732E-004	0.00000E+000	6.80014E-001	6.79318E-001	8	...........
	573	229.6	6.69235E-001	-1.82244E-004	0.00000E+000	6.70015E-001	6.69114E-001	8	...........
	574	230	6.59235E-001	-1.89039E-004	0.00000E+000	6.60017E-001	6.59310E-001	8	...........
	575	230.4	6.49235E-001	-1.95016E-004	0.00000E+000	6.50018E-001	6.49106E-001	8	...........
	576	230.8	6.39435E-001	-2.00892E-004	0.00000E+000	6.40019E-001	6.39103E-001	8	...........
	577	231.2	6.29435E-001	-2.05734E-004	0.00000E+000	6.30020E-001	6.29299E-001	8	...........
	578	231.6	6.19235E-001	-2.10692E-004	0.00000E+000	6.20022E-001	6.19095E-001	8	...........
	579	232	6.09235E-001	-2.14949E-004	0.00000E+000	6.10023E-001	6.09292E-001	8	...........
	580	232.4	5.99435E-001	-2.19006E-004	0.00000E+000	6.00024E-001	5.99288E-001	8	...........
	581	232.8	5.89235E-001	-2.24215E-004	0.00000E+000	5.89975E-001	5.89284E-001	8	...........
	582	233.2	5.79635E-001	-2.27587E-004	0.00000E+000	5.79977E-001	5.79280E-001	8	...........
	583	233.6	5.69435E-001	-2.31627E-004	0.00000E+000	5.69978E-001	5.69277E-001	8	...........
	584	234	5.59235E-001	-2.35768E-004	0.00000E+000	5.59979E-001	5.59073E-001	8	...........
	585	234.4	5.49435E-001	-2.39390E-004	0.00000E+000	5.49981E-001	5.49269E-001	8	...........
	586	234.8	5.39435E-001	-2.43681E-004	0.00000E+000	5.39982E-001	5.39066E-001	8	...........
	587	235.2	5.29435E-001	-2.47721E-004	0.00000E+000	5.29983E-001	5.29262E-001	8	...........
	588	235.6	5.19235E-001	-2.51377E-004	0.00000E+000	5.19984E-001	5.19258E-001	8	...........
	589	236	5.09435E-001	-2.55567E-004	0.00000E+000	5.09986E-001	5.09055E-001	8	...........
	590	236.4	4.99235E-001	-2.59608E-004	0.00000E+000	4.99987E-001	4.99251E-001	8	...........
	591	236.8	4.89235E-001	-2.63664E-004	0.00000E+000	4.89988E-001	4.89247E-001	8	...........
	592	237.2	4.79635E-001	-2.67688E-004	0.00000E+000	4.79989E-001	4.79043E-001	8	...........
	593	237.6	4.69435E-001	-2.71311E-004	0.00000E+000	4.69991E-001	4.69440E-001	8	...........
	594	238	4.59435E-001	-2.75551E-004	0.00000E+000	4.59992E-001	4.59236E-001	8	...........
	595	238.4	4.49635E-001	-2.79591E-004	0.00000E+000	4.49993E-001	4.49232E-001	8	...........
	596	238.8	4.39435E-001	-2.83848E-004	0.00000E+000	4.39994E-001	4.39429E-001	8	...........
	597	239.2	4.29835E-001	-2.87604E-004	0.00000E+000	4.29996E-001	4.29225E-001	8	...........
	598	239.6	4.19435E-001	-2.91778E-004	0.00000E+000	4.19997E-001	4.19421E-001	8	...........
	599	240	4.09635E-001	-2.95785E-004	0.00000E+000	4.09998E-001	4.09418E-001	8	...........
	600	240.4	3.99635E-001	-3.00176E-004	0.00000E+000	3.99999E-001	3.99414E-001	8	...........
	601	240.8	3.89435E-001	-3.03865E-004	0.00000E+000	3.90001E-001	3.89410E-001	8	...........
	602	241.2	3.79435E-001	-3.08256E-004	0.00000E+000	3.80002E-001	3.79207E-001	8	...........
	603	241.6	3.69635E-001	-3.11812E-004	0.00000E+000	3.70003E-001	3.69203E-001	8	...........
	604	242	3.59635E-001	-3.16069E-004	0.00000E+000	3.60005E-001	3.59399E-001	8	...........
	605	242.4	3.49635E-001	-3.19775E-004	0.00000E+000	3.50006E-001	3.49396E-001	8	...........
	606	242.8	3.39635E-001	-3.23915E-004	0.00000E+000	3.40007E-001	3.39392E-001	8	...........
	607	243.2	3.29435E-001	-3.27638E-004	0.00000E+000	3.30008E-001	3.29388E-001	8	...........
	608	243.6	3.19435E-001	-3.31779E-004	0.00000E+000	3.20010E-001	3.19585E-001	8	...........
	609	244	3.09435E-001	-3.35685E-004	0.00000E+000	3.10011E-001	3.09581E-001	8	...........
	610	244.4	2.99635E-001	-3.39875E-004	0.00000E+000	3.00012E-001	2.99377E-001	8	...........
	611	244.8	2.89635E-001	-3.43699E-004	0.00000E+000	2.90013E-001	2.89373E-001	8	...........
	612	245.2	2.79635E-001	-3.47722E-004	0.00000E+000	2.80015E-001	2.79370E-001	8	...........
	613	245.6	2.69635E-001	-3.51862E-004	0.00000E+000	2.70016E-001	2.69366E-001	8	...........
	614	246	2.59835E-001	-3.55168E-004	0.00000E+000	2.60017E-001	2.59562E-001	8	...........
	615	246.4	2.49635E-001	-3.59341E-004	0.00000E+000	2.50018E-001	2.49359E-001	8	...........
	616	246.8	2.39635E-001	-3.63482E-004	0.00000E+000	2.40020E-001	2.39555E-001	8	...........
	617	247.2	2.29635E-001	-3.66887E-004	0.00000E+000	2.30021E-001	2.29351E-001	8	...........
	618	247.6	2.19635E-001	-3.70494E-004	0.00000E+000	2.20022E-001	2.19548E-001	8	...........
	619	248	2.09435E-001	-3.74567E-004	0.00000E+000	2.10023E-001	2.09544E-001	8	...........
	620	248.4	1.99635E-001	-3.78407E-004	0.00000E+000	2.00025E-001	1.99540E-001	8	...........
	621	248.8	1.89435E-001	-3.82380E-004	0.00000E+000	1.89976E-001	1.89536E-001	8	...........
	622	249.2	1.79635E-001	-3.85702E-004	0.00000E+000	1.79977E-001	1.79533E-001	8	...........
	623	249.6	1.69635E-001	-3.89776E-004	0.00000E+000	1.69979E-001	1.69329E-001	8	...........
	624	250	1.59635E-001	-3.92781E-004	0.00000E+000	1.59980E-001	1.59725E-001	8	...........
	625	250.4	1.49435E-001	-3.95986E-004	0.00000E+000	1.49981E-001	1.49522E-001	8	...........
	626	250.8	1.39635E-001	-3.99492E-004	0.00000E+000	1.39982E-001	1.39518E-001	8	...........
	627	251.2	1.29635E-001	-4.03048E-004	0.00000E+000	1.29984E-001	1.29714E-001	8	...........
	628	251.6	1.19635E-001	-4.06020E-004	0.00000E+000	1.19985E-001	1.19711E-001	8	...........
	629	252	1.09835E-001	-4.09776E-004	0.00000E+000	1.09986E-001	1.09507E-001	8	...........
	630	252.4	9.98349E-002	-4.12981E-004	0.00000E+000	9.99874E-002	9.95032E-002	8	...........
	631	252.8	8.96349E-002	-4.15986E-004	0.00000E+000	8.99886E-002	8.94995E-002	8	...........
	632	253.2	7.94349E-002	-4.19359E-004	0.00000E+000	7.99899E-002	7.96959E-002	8	...........
	633	253.6	6.96349E-002	-4.22080E-004	0.00000E+000	6.99912E-002	6.96922E-002	8	...........
	634	254	5.96349E-002	-4.25519E-004	0.00000E+000	5.99924E-002	5.96885E-002	8	...........
	635	254.4	4.98349E-002	-4.28808E-004	0.00000E+000	4.99937E-002	4.94847E-002	8	...........
	636	254.8	3.96349E-002	-4.31462E-004	0.00000E+000	3.99949E-002	3.96811E-002	8	...........
	637	255.2	2.96349E-002	-4.34468E-004	0.00000E+000	2.99962E-002	2.96774E-002	8	...........
	638	255.6	1.98349E-002	-4.37706E-004	0.00000E+000	1.99975E-002	1.96737E-002	8	...........
	639	256	9.83488E-003	-4.40761E-004	0.00000E+000	9.99874E-003	9.66997E-003	8	...........
	640	256.4	-3.65120E-004	-4.43232E-004	0.00000E+000	0.00000E+000	-3.33723E-004	8	...........
	641	256.8	-1.03651E-002	-4.45953E-004	0.00000E+000	-9.99874E-003	-1.03374E-002	8	...........
	642	257.2	-2.01651E-002	-4.48981E-004	0.00000E+000	-1.99975E-002	-2.01410E-002	9	...........
	643	257.6	-3.01651E-002	-4.51815E-004	0.00000E+000	-2.99962E-002	-3.03448E-002	9	...........
	644	258	-4.01651E-002	-4.54482E-004	0.00000E+000	-3.99949E-002	-4.01484E-002	9	...........
	645	258.4	-5.01651E-002	-4.57149E-004	0.00000E+000	-4.99937E-002	-5.03522E-002	9	...........
	646	258.8	-6.01651E-002	-4.59817E-004	0.00000E+000	-5.99924E-002	-6.03559E-002	9	...........
	647	259.2	-7.01651E-002	-4.62651E-004	0.00000E+000	-6.99912E-002	-7.01595E-002	9	...........
	648	259.6	-8.01651E-002	-4.65318E-004	0.00000E+000	-7.99899E-002	-8.03633E-002	9	...........
	649	260	-9.03651E-002	-4.68318E-004	0.00000E+000	-8.99886E-002	-9.03670E-002	9	...........
	650	260.4	-1.00165E-001	-4.70319E-004	0.00000E+000	-9.99874E-002	-1.00171E-001	9	...........
	651	260.8	-1.10365E-001	-4.72986E-004	0.00000E+000	-1.09986E-001	-1.10374E-001	9	...........
	652	261.2	-1.19965E-001	-4.75487E-004	0.00000E+000	-1.19985E-001	-1.20378E-001	9	...........
	653	261.6	-1.30165E-001	-4.77654E-004	0.00000E+000	-1.29984E-001	-1.30182E-001	9	...........
	654	262	-1.40165E-001	-4.79988E-004	0.00000E+000	-1.39982E-001	-1.40385E-001	9	...........
	655	262.4	-1.49965E-001	-4.82988E-004	0.00000E+000	-1.49981E-001	-1.49989E-001	9	...........
	656	262.8	-1.60165E-001	-4.85322E-004	0.00000E+000	-1.59980E-001	-1.60193E-001	9	...........
	657	263.2	-1.70165E-001	-4.87322E-004	0.00000E+000	-1.69979E-001	-1.70397E-001	9	...........
	658	263.6	-1.79965E-001	-4.89656E-004	0.00000E+000	-1.79977E-001	-1.80200E-001	9	...........
	659	264	-1.90365E-001	-4.91990E-004	0.00000E+000	-1.89976E-001	-1.90204E-001	9	...........
	660	264.4	-2.00165E-001	-4.95157E-004	0.00000E+000	-2.00025E-001	-2.00008E-001	9	...........
	661	264.8	-2.10165E-001	-4.96491E-004	0.00000E+000	-2.10023E-001	-2.10011E-001	9	...........
	662	265.2	-2.20165E-001	-4.98491E-004	0.00000E+000	-2.20022E-001	-2.20015E-001	9	...........
	663	265.6	-2.30165E-001	-5.00659E-004	0.00000E+000	-2.30021E-001	-2.30219E-001	9	...........
	664	266	-2.40165E-001	-5.02326E-004	0.00000E+000	-2.40020E-001	-2.40222E-001	9	...........
	665	266.4	-2.50165E-001	-5.03993E-004	0.00000E+000	-2.50018E-001	-2.50226E-001	9	...........
	666	266.8	-2.60165E-001	-5.06326E-004	0.00000E+000	-2.60017E-001	-2.60030E-001	9	...........
	667	267.2	-2.70165E-001	-5.08494E-004	0.00000E+000	-2.70016E-001	-2.70233E-001	9	...........
	668	267.6	-2.79965E-001	-5.10161E-004	0.00000E+000	-2.80015E-001	-2.80037E-001	9	...........
	669	268	-2.89965E-001	-5.12161E-004	0.00000E+000	-2.90013E-001	-2.90241E-001	9	...........
	670	268.4	-2.99965E-001	-5.13161E-004	0.00000E+000	-3.00012E-001	-3.00045E-001	9	...........
	671	268.8	-3.09965E-001	-5.15328E-004	0.00000E+000	-3.10011E-001	-3.10048E-001	9	...........
	672	269.2	-3.19965E-001	-5.16829E-004	0.00000E+000	-3.20010E-001	-3.20252E-001	9	...........
	673	269.6	-3.29965E-001	-5.18329E-004	0.00000E+000	-3.30008E-001	-3.30056E-001	9	...........
	674	270	-3.39965E-001	-5.19663E-004	0.00000E+000	-3.40007E-001	-3.40059E-001	9	...........
	675	270.4	-3.50165E-001	-5.20996E-004	0.00000E+000	-3.50006E-001	-3.49863E-001	9	...........
	676	270.8	-3.60165E-001	-5.22497E-004	0.00000E+000	-3.60005E-001	-3.59867E-001	9	...........
	677	271.2	-3.69965E-001	-5.23330E-004	0.00000E+000	-3.70003E-001	-3.69870E-001	9	...........
	678	271.6	-3.80165E-001	-5.24330E-004	0.00000E+000	-3.80002E-001	-3.79874E-001	9	...........
	679	272	-3.90165E-001	-5.25664E-004	0.00000E+000	-3.90001E-001	-3.90078E-001	9	...........
	680	272.4	-3.99965E-001	-5.26831E-004	0.00000E+000	-3.99999E-001	-3.99881E-001	9	...........
	681	272.8	-4.09765E-001	-5.27831E-004	0.00000E+000	-4.09998E-001	-4.10085E-001	9	...........
	682	273.2	-4.19965E-001	-5.28498E-004	0.00000E+000	-4.19997E-001	-4.20089E-001	9	...........
	683	273.6	-4.29965E-001	-5.29165E-004	0.00000E+000	-4.29996E-001	-4.29893E-001	9	...........
	684	274	-4.39965E-001	-5.30332E-004	0.00000E+000	-4.39994E-001	-4.39896E-001	9	...........
	685	274.4	-4.49765E-001	-5.30998E-004	0.00000E+000	-4.49993E-001	-4.49900E-001	9	...........
	686	274.8	-4.59765E-001	-5.31832E-004	0.00000E+000	-4.59992E-001	-4.59904E-001	9	...........
	687	275.2	-4.69965E-001	-5.32499E-004	0.00000E+000	-4.69991E-001	-4.69907E-001	9	...........
	688	275.6	-4.79765E-001	-5.33332E-004	0.00000E+000	-4.79989E-001	-4.79911E-001	9	...........
	689	276	-4.89965E-001	-5.34166E-004	0.00000E+000	-4.89988E-001	-4.89915E-001	9	...........
	690	276.4	-4.99965E-001	-5.35166E-004	0.00000E+000	-4.99987E-001	-5.00118E-001	9	...........
	691	276.8	-5.10165E-001	-5.35833E-004	0.00000E+000	-5.09986E-001	-5.09922E-001	9	...........
	692	277.2	-5.19765E-001	-5.37333E-004	0.00000E+000	-5.19984E-001	-5.19926E-001	9	...........
	693	277.6	-5.29965E-001	-5.38333E-004	0.00000E+000	-5.29983E-001	-5.29729E-001	9	...........
	694	278	-5.39765E-001	-5.40000E-004	0.00000E+000	-5.39982E-001	-5.39933E-001	9	...........
	695	278.4	-5.49765E-001	-5.40667E-004	0.00000E+000	-5.49981E-001	-5.49937E-001	9	...........
	696	278.8	-5.59965E-001	-5.42334E-004	0.00000E+000	-5.59979E-001	-5.59741E-001	9	...........
	697	279.2	-5.69965E-001	-5.44334E-004	0.00000E+000	-5.69978E-001	-5.69744E-001	9	...........
	698	279.6	-5.79965E-001	-5.46335E-004	0.00000E+000	-5.79977E-001	-5.79948E-001	9	...........
	699	280	-5.89765E-001	-5.48335E-004	0.00000E+000	-5.89975E-001	-5.89952E-001	9	...........
	700	280.4	-5.99965E-001	-5.51336E-004	0.00000E+000	-6.00024E-001	-5.99955E-001	9	...........
	701	280.8	-6.09965E-001	-5.54170E-004	0.00000E+000	-6.10023E-001	-6.09759E-001	9	...........
	702	281.2	-6.20165E-001	-5.57337E-004	0.00000E+000	-6.20022E-001	-6.19963E-001	9	...........
	703	281.6	-6.29765E-001	-5.60171E-004	0.00000E+000	-6.30020E-001	-6.29766E-001	9	...........
	704	282	-6.39765E-001	-5.64005E-004	0.00000E+000	-6.40019E-001	-6.39770E-001	9	...........
	705	282.4	-6.49765E-001	-5.68339E-004	0.00000E+000	-6.50018E-001	-6.49774E-001	9	...........
	706	282.8	-6.59765E-001	-5.72340E-004	0.00000E+000	-6.60017E-001	-6.59777E-001	9	...........
	707	283.2	-6.69965E-001	-5.77341E-004	0.00000E+000	-6.70015E-001	-6.69781E-001	9	...........
	708	283.6	-6.79765E-001	-5.83343E-004	0.00000E+000	-6.80014E-001	-6.79785E-001	9	...........
	709	284	-6.89765E-001	-5.88677E-004	0.00000E+000	-6.90013E-001	-6.89989E-001	9	...........
	710	284.4	-6.99765E-001	-5.95845E-004	0.00000E+000	-7.00012E-001	-6.99592E-001	9	...........
	711	284.8	-7.09765E-001	-6.03180E-004	0.00000E+000	-7.10010E-001	-7.09796E-001	9	...........
	712	285.2	-7.19965E-001	-6.11182E-004	0.00000E+000	-7.20009E-001	-7.20000E-001	9	...........
	713	285.6	-7.29765E-001	-6.20017E-004	0.00000E+000	-7.30008E-001	-7.29803E-001	9	...........
	714	286	-7.39565E-001	-6.30853E-004	0.00000E+000	-7.40007E-001	-7.40007E-001	9	...........
	715	286.4	-7.49965E-001	-6.41021E-004	0.00000E+000	-7.50005E-001	-7.49811E-001	9	...........
	716	286.8	-7.59765E-001	-6.53191E-004	0.00000E+000	-7.60004E-001	-7.59614E-001	9	...........
	717	287.2	-7.69765E-001	-6.66693E-004	0.00000E+000	-7.70003E-001	-7.69618E-001	9	...........
	718	287.6	-7.79765E-001	-6.81863E-004	0.00000E+000	-7.80001E-001	-7.79622E-001	9	...........
	719	288	-7.89765E-001	-6.98200E-004	0.00000E+000	-7.90000E-001	-7.89825E-001	9	...........
	720	288.4	-7.99765E-001	-7.15037E-004	0.00000E+000	-7.99999E-001	-7.99629E-001	9	...........
	721	288.8	-7.89765E-001	-4.89156E-004	0.00000E+000	-7.90000E-001	-7.89625E-001	9	...........
	722	289.2	-7.79765E-001	-3.30956E-004	0.00000E+000	-7.80001E-001	-7.79622E-001	9	...........
	723	289.6	-7.69765E-001	-2.14048E-004	0.00000E+000	-7.70003E-001	-7.69818E-001	8	...........
	724	290	-7.59765E-001	-1.23796E-004	0.00000E+000	-7.60004E-001	-7.59614E-001	8	...........
	725	290.4	-7.49565E-001	-5.25101E-005	0.00000E+000	-7.50005E-001	-7.49811E-001	8	...........
	726	290.8	-7.39765E-001	5.01975E-006	0.00000E+000	-7.40007E-001	-7.39807E-001	8	...........
	727	291.2	-7.29765E-001	5.16182E-005	0.00000E+000	-7.30008E-001	-7.29603E-001	7	.....h.....
	728	291.6	-7.19765E-001	8.99455E-005	0.00000E+000	-7.20009E-001	-7.19800E-001	8	...........
	729	292	-7.09765E-001	1.21999E-004	0.00000E+000	-7.10010E-001	-7.09996E-001	8	...........
	730	292.4	-6.99765E-001	1.48694E-004	0.00000E+000	-7.00012E-001	-6.99792E-001	8	...........
	731	292.8	-6.89765E-001	1.71616E-004	0.00000E+000	-6.90013E-001	-6.89789E-001	8	...........
	732	293.2	-6.79765E-001	1.90281E-004	0.00000E+000	-6.80014E-001	-6.79785E-001	8	...........
	733	293.6	-6.69765E-001	2.07009E-004	0.00000E+000	-6.70015E-001	-6.69581E-001	8	...........
	734	294	-6.59965E-001	2.20932E-004	0.00000E+000	-6.60017E-001	-6.59978E-001	8	...........
	735	294.4	-6.49965E-001	2.33536E-004	0.00000E+000	-6.50018E-001	-6.49774E-001	8	...........
	736	294.8	-6.39965E-001	2.44305E-004	0.00000E+000	-6.40019E-001	-6.39770E-001	8	...........
	737	295.2	-6.29765E-001	2.54472E-004	0.00000E+000	-6.30020E-001	-6.29966E-001	8	...........
	738	295.6	-6.19765E-001	2.62769E-004	0.00000E+000	-6.20022E-001	-6.19963E-001	8	...........
	739	296	-6.09965E-001	2.70465E-004	0.00000E+000	-6.10023E-001	-6.09759E-001	8	...........
	740	296.4	-5.99965E-001	2.77711E-004	0.00000E+000	-6.00024E-001	-5.99955E-001	8	...........
	741	296.8	-5.89765E-001	2.85190E-004	0.00000E+000	-5.89975E-001	-5.89952E-001	8	...........
	742	297.2	-5.79965E-001	2.91317E-004	0.00000E+000	-5.79977E-001	-5.79948E-001	8	...........
	743	297.6	-5.69965E-001	2.97427E-004	0.00000E+000	-5.69978E-001	-5.69944E-001	8	...........
	744	298	-5.59765E-001	3.03003E-004	0.00000E+000	-5.59979E-001	-5.59741E-001	8	...........
	745	298.4	-5.49765E-001	3.08195E-004	0.00000E+000	-5.49981E-001	-5.49737E-001	8	...........
	746	298.8	-5.39965E-001	3.13921E-004	0.00000E+000	-5.39982E-001	-5.39933E-001	8	...........
	747	299.2	-5.29765E-001	3.18746E-004	0.00000E+000	-5.29983E-001	-5.29729E-001	8	...........
	748	299.6	-5.19965E-001	3.23571E-004	0.00000E+000	-5.19984E-001	-5.19926E-001	8	...........
	749	300	-5.09765E-001	3.28245E-004	0.00000E+000	-5.09986E-001	-5.09922E-001	8	...........
	750	300.4	-4.99965E-001	3.33471E-004	0.00000E+000	-4.99987E-001	-4.99918E-001	8	...........
	751	300.8	-4.89965E-001	3.38062E-004	0.00000E+000	-4.89988E-001	-4.89715E-001	8	...........
	752	301.2	-4.79765E-001	3.43087E-004	0.00000E+000	-4.79989E-001	-4.79911E-001	8	...........
	753	301.6	-4.69765E-001	3.47745E-004	0.00000E+000	-4.69991E-001	-4.70107E-001	8	...........
	754	302	-4.59965E-001	3.51802E-004	0.00000E+000	-4.59992E-001	-4.59904E-001	8	...........
	755	302.4	-4.49765E-001	3.56660E-004	0.00000E+000	-4.49993E-001	-4.49900E-001	8	...........
	756	302.8	-4.39765E-001	3.60917E-004	0.00000E+000	-4.39994E-001	-4.40096E-001	8	...........
	757	303.2	-4.29965E-001	3.65174E-004	0.00000E+000	-4.29996E-001	-4.29893E-001	8	...........
	758	303.6	-4.19965E-001	3.69348E-004	0.00000E+000	-4.19997E-001	-4.19889E-001	8	...........
	759	304	-4.09765E-001	3.73438E-004	0.00000E+000	-4.09998E-001	-4.10085E-001	8	...........
	760	304.4	-3.99965E-001	3.77595E-004	0.00000E+000	-3.99999E-001	-4.00081E-001	8	...........
	761	304.8	-3.89965E-001	3.81935E-004	0.00000E+000	-3.90001E-001	-3.89878E-001	8	...........
	762	305.2	-3.79965E-001	3.86526E-004	0.00000E+000	-3.80002E-001	-3.80074E-001	8	...........
	763	305.6	-3.69965E-001	3.89949E-004	0.00000E+000	-3.70003E-001	-3.70070E-001	8	...........
	764	306	-3.60165E-001	3.93839E-004	0.00000E+000	-3.60005E-001	-3.60067E-001	8	...........
	765	306.4	-3.50165E-001	3.97762E-004	0.00000E+000	-3.50006E-001	-3.50063E-001	8	...........
	766	306.8	-3.40165E-001	4.01735E-004	0.00000E+000	-3.40007E-001	-3.40059E-001	8	...........
	767	307.2	-3.29965E-001	4.05108E-004	0.00000E+000	-3.30008E-001	-3.30256E-001	8	...........
	768	307.6	-3.19965E-001	4.08747E-004	0.00000E+000	-3.20010E-001	-3.19852E-001	8	...........
	769	308	-3.09965E-001	4.12203E-004	0.00000E+000	-3.10011E-001	-3.09848E-001	8	...........
	770	308.4	-3.00165E-001	4.15659E-004	0.00000E+000	-3.00012E-001	-3.00245E-001	8	...........
	771	308.8	-2.90165E-001	4.18847E-004	0.00000E+000	-2.90013E-001	-2.90241E-001	8	...........
	772	309.2	-2.79965E-001	4.22136E-004	0.00000E+000	-2.80015E-001	-2.80237E-001	8	...........
	773	309.6	-2.70165E-001	4.25542E-004	0.00000E+000	-2.70016E-001	-2.70233E-001	8	...........
	774	310	-2.60165E-001	4.28413E-004	0.00000E+000	-2.60017E-001	-2.60230E-001	8	...........
	775	310.4	-2.49965E-001	4.31619E-004	0.00000E+000	-2.50018E-001	-2.50026E-001	8	...........
	776	310.8	-2.40165E-001	4.34323E-004	0.00000E+000	-2.40020E-001	-2.40022E-001	8	...........
	777	311.2	-2.30365E-001	4.36978E-004	0.00000E+000	-2.30021E-001	-2.30219E-001	8	...........
	778	311.6	-2.20365E-001	4.39482E-004	0.00000E+000	-2.20022E-001	-2.20215E-001	8	...........
	779	312	-2.10165E-001	4.41886E-004	0.00000E+000	-2.10023E-001	-2.10411E-001	8	...........
	780	312.4	-2.00165E-001	4.44023E-004	0.00000E+000	-2.00025E-001	-2.00208E-001	8	...........
	781	312.8	-1.90165E-001	4.46978E-004	0.00000E+000	-1.89976E-001	-1.90204E-001	8	...........
	782	313.2	-1.80365E-001	4.49374E-004	0.00000E+000	-1.79977E-001	-1.80200E-001	9	...........
	783	313.6	-1.70165E-001	4.51541E-004	0.00000E+000	-1.69979E-001	-1.70197E-001	9	...........
	784	314	-1.60165E-001	4.53375E-004	0.00000E+000	-1.59980E-001	-1.60193E-001	9	...........
	785	314.4	-1.50165E-001	4.55209E-004	0.00000E+000	-1.49981E-001	-1.49989E-001	9	...........
	786	314.8	-1.40165E-001	4.56376E-004	0.00000E+000	-1.39982E-001	-1.40185E-001	9	...........
	787	315.2	-1.30165E-001	4.58543E-004	0.00000E+000	-1.29984E-001	-1.30182E-001	9	...........
	788	315.6	-1.20165E-001	4.60210E-004	0.00000E+000	-1.19985E-001	-1.20178E-001	9	...........
	789	316	-1.10165E-001	4.61710E-004	0.00000E+000	-1.09986E-001	-1.10174E-001	9	...........
	790	316.4	-1.00165E-001	4.63044E-004	0.00000E+000	-9.99874E-002	-1.00371E-001	9	...........
	791	316.8	-9.01651E-002	4.64544E-004	0.00000E+000	-8.99886E-002	-9.01669E-002	9	...........
	792	317.2	-8.01651E-002	4.66044E-004	0.00000E+000	-7.99899E-002	-8.01632E-002	9	...........
	793	317.6	-7.01651E-002	4.67211E-004	0.00000E+000	-6.99912E-002	-7.03596E-002	9	...........
	794	318	-6.01651E-002	4.68212E-004	0.00000E+000	-5.99924E-002	-6.01558E-002	9	...........
	795	318.4	-5.01651E-002	4.68878E-004	0.00000E+000	-4.99937E-002	-5.01521E-002	9	...........
	796	318.8	-4.03651E-002	4.70379E-004	0.00000E+000	-3.99949E-002	-4.03485E-002	9	...........
	797	319.2	-3.01651E-002	4.70379E-004	0.00000E+000	-2.99962E-002	-3.03448E-002	9	...........
	798	319.6	-2.01651E-002	4.71212E-004	0.00000E+000	-1.99975E-002	-2.03411E-002	9	...........
	799	320	-1.01651E-002	4.72546E-004	0.00000E+000	-9.99874E-003	-1.05375E-002	9	...........
	800	320.4	3.48799E-005	4.72713E-004	0.00000E+000	0.00000E+000	-3.33723E-004	9	...........
	801	320.8	9.83488E-003	4.73546E-004	0.00000E+000	9.99874E-003	9.66997E-003	9	...........
	802	321.2	1.98349E-002	4.73379E-004	0.00000E+000	1.99975E-002	1.96737E-002	9	...........
	803	321.6	2.96349E-002	4.74046E-004	0.00000E+000	2.99962E-002	2.96774E-002	9	...........
	804	322	3.96349E-002	4.73880E-004	0.00000E+000	3.99949E-002	3.94810E-002	9	...........
	805	322.4	4.96349E-002	4.74880E-004	0.00000E+000	4.99937E-002	4.96848E-002	9	...........
	806	322.8	5.96349E-002	4.74880E-004	0.00000E+000	5.99924E-002	5.96885E-002	9	...........
	807	323.2	6.98349E-002	4.74880E-004	0.00000E+000	6.99912E-002	6.94921E-002	9	...........
	808	323.6	7.98349E-002	4.74713E-004	0.00000E+000	7.99899E-002	7.96959E-002	9	...........
	809	324	8.96349E-002	4.75046E-004	0.00000E+000	8.99886E-002	8.96996E-002	9	...........
	810	324.4	9.96349E-002	4.75046E-004	0.00000E+000	9.99874E-002	9.95032E-002	9	...........
	811	324.8	1.09835E-001	4.74713E-004	0.00000E+000	1.09986E-001	1.09507E-001	9	...........
	812	325.2	1.19635E-001	4.74213E-004	0.00000E+000	1.19985E-001	1.19511E-001	9	...........
	813	325.6	1.29635E-001	4.74380E-004	0.00000E+000	1.29984E-001	1.29514E-001	9	...........
	814	326	1.39635E-001	4.74213E-004	0.00000E+000	1.39982E-001	1.39318E-001	9	...........
	815	326.4	1.49635E-001	4.73880E-004	0.00000E+000	1.49981E-001	1.49322E-001	9	...........
	816	326.8	1.59635E-001	4.73379E-004	0.00000E+000	1.59980E-001	1.59725E-001	9	...........
	817	327.2	1.69835E-001	4.72713E-004	0.00000E+000	1.69979E-001	1.69529E-001	9	...........
	818	327.6	1.79635E-001	4.71879E-004	0.00000E+000	1.79977E-001	1.79533E-001	9	...........
	819	328	1.89635E-001	4.71546E-004	0.00000E+000	1.89976E-001	1.89536E-001	9	...........
	820	328.4	1.99635E-001	4.71212E-004	0.00000E+000	2.00025E-001	1.99540E-001	9	...........
	821	328.8	2.09835E-001	4.70212E-004	0.00000E+000	2.10023E-001	2.09544E-001	9	...........
	822	329.2	2.19435E-001	4.69045E-004	0.00000E+000	2.20022E-001	2.19548E-001	9	...........
	823	329.6	2.29635E-001	4.68712E-004	0.00000E+000	2.30021E-001	2.29551E-001	9	...........
	824	330	2.39635E-001	4.67211E-004	0.00000E+000	2.40020E-001	2.39555E-001	9	...........
	825	330.4	2.49635E-001	4.66044E-004	0.00000E+000	2.50018E-001	2.49359E-001	9	...........
	826	330.8	2.59635E-001	4.64711E-004	0.00000E+000	2.60017E-001	2.59562E-001	9	...........
	827	331.2	2.69435E-001	4.63877E-004	0.00000E+000	2.70016E-001	2.69566E-001	9	...........
	828	331.6	2.79635E-001	4.62210E-004	0.00000E+000	2.80015E-001	2.79570E-001	9	...........
	829	332	2.89835E-001	4.61043E-004	0.00000E+000	2.90013E-001	2.89373E-001	9	...........
	830	332.4	2.99635E-001	4.59543E-004	0.00000E+000	3.00012E-001	2.99377E-001	9	...........
	831	332.8	3.09635E-001	4.58376E-004	0.00000E+000	3.10011E-001	3.09581E-001	9	...........
	832	333.2	3.19435E-001	4.57209E-004	0.00000E+000	3.20010E-001	3.19384E-001	9	...........
	833	333.6	3.29635E-001	4.55876E-004	0.00000E+000	3.30008E-001	3.29188E-001	9	...........
	834	334	3.39435E-001	4.54375E-004	0.00000E+000	3.40007E-001	3.39592E-001	9	...........
	835	334.4	3.49635E-001	4.52708E-004	0.00000E+000	3.50006E-001	3.49396E-001	9	...........
	836	334.8	3.59435E-001	4.50875E-004	0.00000E+000	3.60005E-001	3.59399E-001	9	...........
	837	335.2	3.69435E-001	4.49874E-004	0.00000E+000	3.70003E-001	3.69403E-001	9	...........
	838	335.6	3.79635E-001	4.48207E-004	0.00000E+000	3.80002E-001	3.79607E-001	9	...........
	839	336	3.89435E-001	4.46874E-004	0.00000E+000	3.90001E-001	3.89410E-001	9	...........
	840	336.4	3.99435E-001	4.45374E-004	0.00000E+000	3.99999E-001	3.99414E-001	9	...........
	841	336.8	4.09435E-001	4.43540E-004	0.00000E+000	4.09998E-001	4.09418E-001	9	...........
	842	337.2	4.19435E-001	4.42873E-004	0.00000E+000	4.19997E-001	4.19421E-001	9	...........
	843	337.6	4.29435E-001	4.41539E-004	0.00000E+000	4.29996E-001	4.29025E-001	9	...........
	844	338	4.39435E-001	4.40539E-004	0.00000E+000	4.39994E-001	4.39429E-001	9	...........
	845	338.4	4.49435E-001	4.39372E-004	0.00000E+000	4.49993E-001	4.49232E-001	9	...........
	846	338.8	4.59435E-001	4.38205E-004	0.00000E+000	4.59992E-001	4.59036E-001	9	...........
	847	339.2	4.69435E-001	4.37538E-004	0.00000E+000	4.69991E-001	4.69440E-001	9	...........
	848	339.6	4.79435E-001	4.36205E-004	0.00000E+000	4.79989E-001	4.79244E-001	9	...........
	849	340	4.89435E-001	4.35371E-004	0.00000E+000	4.89988E-001	4.89247E-001	9	...........
	850	340.4	4.99635E-001	4.34705E-004	0.00000E+000	4.99987E-001	4.99051E-001	9	...........
	851	340.8	5.09235E-001	4.34204E-004	0.00000E+000	5.09986E-001	5.09055E-001	9	...........
	852	341.2	5.19435E-001	4.33704E-004	0.00000E+000	5.19984E-001	5.19258E-001	9	...........
	853	341.6	5.29435E-001	4.33538E-004	0.00000E+000	5.29983E-001	5.29062E-001	9	...........
	854	342	5.39435E-001	4.33371E-004	0.00000E+000	5.39982E-001	5.39266E-001	9	...........
	855	342.4	5.49435E-001	4.33038E-004	0.00000E+000	5.49981E-001	5.49269E-001	9	...........
	856	342.8	5.59235E-001	4.32871E-004	0.00000E+000	5.59979E-001	5.59073E-001	9	...........
	857	343.2	5.69435E-001	4.32871E-004	0.00000E+000	5.69978E-001	5.69077E-001	9	...........
	858	343.6	5.79235E-001	4.32537E-004	0.00000E+000	5.79977E-001	5.79080E-001	9	...........
	859	344	5.89435E-001	4.32537E-004	0.00000E+000	5.89975E-001	5.89284E-001	9	...........
	860	344.4	5.99235E-001	4.33538E-004	0.00000E+000	6.00024E-001	5.99288E-001	9	...........
	861	344.8	6.09435E-001	4.33371E-004	0.00000E+000	6.10023E-001	6.09292E-001	9	...........
	862	345.2	6.19435E-001	4.33704E-004	0.00000E+000	6.20022E-001	6.19295E-001	9	...........
	863	345.6	6.29435E-001	4.33704E-004	0.00000E+000	6.30020E-001	6.29099E-001	9	...........
	864	346	6.39435E-001	4.34204E-004	0.00000E+000	6.40019E-001	6.39303E-001	9	...........
	865	346.4	6.49235E-001	4.34371E-004	0.00000E+000	6.50018E-001	6.49106E-001	9	...........
	866	346.8	6.59435E-001	4.34705E-004	0.00000E+000	6.60017E-001	6.59310E-001	9	...........
	867	347.2	6.69435E-001	4.34871E-004	0.00000E+000	6.70015E-001	6.69114E-001	9	...........
	868	347.6	6.79235E-001	4.35705E-004	0.00000E+000	6.80014E-001	6.79117E-001	9	...........
	869	348	6.89435E-001	4.35872E-004	0.00000E+000	6.90013E-001	6.89121E-001	9	...........
	870	348.4	6.99235E-001	4.37038E-004	0.00000E+000	7.00012E-001	6.99125E-001	9	...........
	871	348.8	7.09235E-001	4.37872E-004	0.00000E+000	7.10010E-001	7.08928E-001	9	...........
	872	349.2	7.19435E-001	4.39039E-004	0.00000E+000	7.20009E-001	7.18932E-001	9	...........
	873	349.6	7.29235E-001	4.40039E-004	0.00000E+000	7.30008E-001	7.29136E-001	9	...........
	874	350	7.39235E-001	4.41706E-004	0.00000E+000	7.40007E-001	7.39140E-001	9	...........
	875	350.4	7.49235E-001	4.43040E-004	0.00000E+000	7.50005E-001	7.49143E-001	9	...........
	876	350.8	7.59435E-001	4.44540E-004	0.00000E+000	7.60004E-001	7.59147E-001	9	...........
	877	351.2	7.69235E-001	4.46707E-004	0.00000E+000	7.70003E-001	7.69151E-001	9	...........
	878	351.6	7.79235E-001	4.49708E-004	0.00000E+000	7.80001E-001	7.78954E-001	9	...........
	879	352	7.89235E-001	4.52542E-004	0.00000E+000	7.90000E-001	7.89158E-001	9	...........
	880	352.4	7.99235E-001	4.55709E-004	0.00000E+000	7.99999E-001	7.98962E-001	9	...........
CURVE4	TABLE
	Pt	T	Vf	Im	Vu	Sig	Ach	IERange	Over
	#	s	V vs. Ref.	A	V	V	V	#	bits
	881	352.8	7.89235E-001	2.69337E-004	0.00000E+000	7.90000E-001	7.89158E-001	9	...........
	882	353.2	7.79235E-001	1.45722E-004	0.00000E+000	7.80001E-001	7.79154E-001	8	...........
	883	353.6	7.69235E-001	6.00120E-005	0.00000E+000	7.70003E-001	7.69151E-001	8	...........
	884	354	7.59435E-001	-1.35762E-006	0.00000E+000	7.60004E-001	7.59147E-001	8	...........
	885	354.4	7.49235E-001	-4.72918E-005	0.00000E+000	7.50005E-001	7.49143E-001	7	...........
	886	354.8	7.39235E-001	-8.17759E-005	0.00000E+000	7.40007E-001	7.39140E-001	8	...........
	887	355.2	7.29435E-001	-1.08087E-004	0.00000E+000	7.30008E-001	7.29136E-001	8	...........
	888	355.6	7.19235E-001	-1.28972E-004	0.00000E+000	7.20009E-001	7.19132E-001	8	...........
	889	356	7.09235E-001	-1.45115E-004	0.00000E+000	7.10010E-001	7.09129E-001	8	...........
	890	356.4	6.99235E-001	-1.58404E-004	0.00000E+000	7.00012E-001	6.99125E-001	8	...........
	891	356.8	6.89235E-001	-1.69390E-004	0.00000E+000	6.90013E-001	6.89121E-001	8	...........
	892	357.2	6.79435E-001	-1.78622E-004	0.00000E+000	6.80014E-001	6.79117E-001	8	...........
	893	357.6	6.69235E-001	-1.85951E-004	0.00000E+000	6.70015E-001	6.69114E-001	8	...........
	894	358	6.59235E-001	-1.92779E-004	0.00000E+000	6.60017E-001	6.59110E-001	8	...........
	895	358.4	6.49235E-001	-1.98989E-004	0.00000E+000	6.50018E-001	6.49306E-001	8	...........
	896	358.8	6.39435E-001	-2.04215E-004	0.00000E+000	6.40019E-001	6.39303E-001	8	...........
	897	359.2	6.29435E-001	-2.09006E-004	0.00000E+000	6.30020E-001	6.29299E-001	8	...........
	898	359.6	6.19235E-001	-2.14081E-004	0.00000E+000	6.20022E-001	6.19095E-001	8	...........
	899	360	6.09635E-001	-2.18655E-004	0.00000E+000	6.10023E-001	6.09292E-001	8	...........
	900	360.4	5.99435E-001	-2.23063E-004	0.00000E+000	6.00024E-001	5.99288E-001	8	...........
	901	360.8	5.89435E-001	-2.27704E-004	0.00000E+000	5.89975E-001	5.89284E-001	8	...........
	902	361.2	5.79235E-001	-2.31744E-004	0.00000E+000	5.79977E-001	5.79280E-001	8	...........
	903	361.6	5.69235E-001	-2.35500E-004	0.00000E+000	5.69978E-001	5.69077E-001	8	...........
	904	362	5.59235E-001	-2.40142E-004	0.00000E+000	5.59979E-001	5.59073E-001	8	...........
	905	362.4	5.49435E-001	-2.43831E-004	0.00000E+000	5.49981E-001	5.49269E-001	8	...........
	906	362.8	5.39235E-001	-2.48172E-004	0.00000E+000	5.39982E-001	5.39066E-001	8	...........
	907	363.2	5.29435E-001	-2.51778E-004	0.00000E+000	5.29983E-001	5.29062E-001	8	...........
	908	363.6	5.19235E-001	-2.56118E-004	0.00000E+000	5.19984E-001	5.19058E-001	8	...........
	909	364	5.09435E-001	-2.60476E-004	0.00000E+000	5.09986E-001	5.09255E-001	8	...........
	910	364.4	4.99435E-001	-2.64816E-004	0.00000E+000	4.99987E-001	4.99251E-001	8	...........
	911	364.8	4.89635E-001	-2.68723E-004	0.00000E+000	4.89988E-001	4.89447E-001	8	...........
	912	365.2	4.79435E-001	-2.72813E-004	0.00000E+000	4.79989E-001	4.79244E-001	8	...........
	913	365.6	4.69435E-001	-2.77037E-004	0.00000E+000	4.69991E-001	4.69240E-001	8	...........
	914	366	4.59435E-001	-2.81361E-004	0.00000E+000	4.59992E-001	4.59236E-001	8	...........
	915	366.4	4.49635E-001	-2.85234E-004	0.00000E+000	4.49993E-001	4.49433E-001	8	...........
	916	366.8	4.39635E-001	-2.89875E-004	0.00000E+000	4.39994E-001	4.39229E-001	8	...........
	917	367.2	4.29435E-001	-2.93832E-004	0.00000E+000	4.29996E-001	4.29225E-001	8	...........
	918	367.6	4.19635E-001	-2.97838E-004	0.00000E+000	4.19997E-001	4.19221E-001	8	...........
	919	368	4.09435E-001	-3.02129E-004	0.00000E+000	4.09998E-001	4.09418E-001	8	...........
	920	368.4	3.99435E-001	-3.06353E-004	0.00000E+000	3.99999E-001	3.99214E-001	8	...........
	921	368.8	3.89435E-001	-3.10176E-004	0.00000E+000	3.90001E-001	3.89410E-001	8	...........
	922	369.2	3.79235E-001	-3.14783E-004	0.00000E+000	3.80002E-001	3.79207E-001	8	...........
	923	369.6	3.69235E-001	-3.18640E-004	0.00000E+000	3.70003E-001	3.69403E-001	8	...........
	924	370	3.59435E-001	-3.22613E-004	0.00000E+000	3.60005E-001	3.59399E-001	8	...........
	925	370.4	3.49635E-001	-3.26620E-004	0.00000E+000	3.50006E-001	3.49396E-001	8	...........
	926	370.8	3.39435E-001	-3.31144E-004	0.00000E+000	3.40007E-001	3.39392E-001	8	...........
	927	371.2	3.29435E-001	-3.35034E-004	0.00000E+000	3.30008E-001	3.29388E-001	8	...........
	928	371.6	3.19635E-001	-3.39325E-004	0.00000E+000	3.20010E-001	3.19384E-001	8	...........
	929	372	3.09435E-001	-3.43148E-004	0.00000E+000	3.10011E-001	3.09581E-001	8	...........
	930	372.4	2.99635E-001	-3.47204E-004	0.00000E+000	3.00012E-001	2.99377E-001	8	...........
	931	372.8	2.89635E-001	-3.51495E-004	0.00000E+000	2.90013E-001	2.89373E-001	8	...........
	932	373.2	2.79435E-001	-3.55602E-004	0.00000E+000	2.80015E-001	2.79570E-001	8	...........
	933	373.6	2.69635E-001	-3.59058E-004	0.00000E+000	2.70016E-001	2.69566E-001	8	...........
	934	374	2.59435E-001	-3.63749E-004	0.00000E+000	2.60017E-001	2.59562E-001	8	...........
	935	374.4	2.49635E-001	-3.67739E-004	0.00000E+000	2.50018E-001	2.49359E-001	8	...........
	936	374.8	2.39635E-001	-3.71362E-004	0.00000E+000	2.40020E-001	2.39555E-001	8	...........
	937	375.2	2.29835E-001	-3.75285E-004	0.00000E+000	2.30021E-001	2.29551E-001	8	...........
	938	375.6	2.19435E-001	-3.78724E-004	0.00000E+000	2.20022E-001	2.19548E-001	8	...........
	939	376	2.09635E-001	-3.82764E-004	0.00000E+000	2.10023E-001	2.09544E-001	8	...........
	940	376.4	1.99435E-001	-3.86370E-004	0.00000E+000	2.00025E-001	1.99540E-001	8	...........
	941	376.8	1.89635E-001	-3.90343E-004	0.00000E+000	1.89976E-001	1.89536E-001	8	...........
	942	377.2	1.79635E-001	-3.94000E-004	0.00000E+000	1.79977E-001	1.79533E-001	8	...........
	943	377.6	1.69635E-001	-3.97255E-004	0.00000E+000	1.69979E-001	1.69329E-001	8	...........
	944	378	1.59635E-001	-4.00544E-004	0.00000E+000	1.59980E-001	1.59525E-001	8	...........
	945	378.4	1.49635E-001	-4.04183E-004	0.00000E+000	1.49981E-001	1.49522E-001	8	...........
	946	378.8	1.39635E-001	-4.07572E-004	0.00000E+000	1.39982E-001	1.39518E-001	8	...........
	947	379.2	1.29635E-001	-4.10928E-004	0.00000E+000	1.29984E-001	1.29514E-001	8	...........
	948	379.6	1.19635E-001	-4.13900E-004	0.00000E+000	1.19985E-001	1.19511E-001	8	...........
	949	380	1.09635E-001	-4.17739E-004	0.00000E+000	1.09986E-001	1.09507E-001	8	...........
	950	380.4	9.96349E-002	-4.20277E-004	0.00000E+000	9.99874E-002	9.95032E-002	8	...........
	951	380.8	8.98349E-002	-4.23816E-004	0.00000E+000	8.99886E-002	8.94995E-002	8	...........
	952	381.2	7.96349E-002	-4.26671E-004	0.00000E+000	7.99899E-002	7.94958E-002	8	...........
	953	381.6	6.96349E-002	-4.30060E-004	0.00000E+000	6.99912E-002	6.96922E-002	8	...........
	954	382	5.96349E-002	-4.32715E-004	0.00000E+000	5.99924E-002	5.94884E-002	8	...........
	955	382.4	4.98349E-002	-4.35636E-004	0.00000E+000	4.99937E-002	4.96848E-002	8	...........
	956	382.8	3.96349E-002	-4.38641E-004	0.00000E+000	3.99949E-002	3.96811E-002	8	...........
	957	383.2	2.98349E-002	-4.41630E-004	0.00000E+000	2.99962E-002	2.98774E-002	8	...........
	958	383.6	1.96349E-002	-4.44401E-004	0.00000E+000	1.99975E-002	1.96737E-002	8	...........
	959	384	9.63488E-003	-4.47005E-004	0.00000E+000	9.99874E-003	9.66997E-003	8	...........
	960	384.4	-3.65120E-004	-4.49981E-004	0.00000E+000	0.00000E+000	-3.33723E-004	9	...........
