EXPLAIN
TAG	CV
TITLE	LABEL	Cyclic Voltammetry	Test Identifier
DATE	LABEL	22-6-2017	Date
TIME	LABEL	15:14:33	Time
NOTES	NOTES	1	Notes...
	0.6mg

PSTAT	PSTAT	IFC5000-01520	Potentiostat
VINIT	POTEN	0.00000E+000	F	Initial E (V)
VLIMIT1	POTEN	-8.00000E-001	F	Scan Limit 1 (V)
VLIMIT2	POTEN	8.00000E-001	F	Scan Limit 2 (V)
VFINAL	POTEN	0.00000E+000	F	Final E (V)
SCANRATE	QUANT	2.00000E+002	A Real Number
STEPSIZE	QUANT	1.00000E+001	Step Size (mV)
CYCLES	IQUANT	3	Cycles (#)
IMODE	SELECTOR	0	I/E Range Mode
IRANGE	QUANT	2.50000E+002	Max Current (mA)
AREA	QUANT	3.84845E-001	A Real Number
EQDELAY	QUANT	1.00000E+000	Equil. Time (s)
IRCOMP	SELECTOR	0	IRComp
PFCOR	QUANT	2.50000E+002	PF Corr. (ohm)
SAMPLINGMODE	SELECTOR	0	Sampling Mode
EOC	QUANT	0	Open Circuit (V)
SEQUENCER	TOGGLE	TRUE	Run as Sequence
PSTATMODEL	IQUANT	53	Pstat Model
PSTATSECTION	LABEL	IFC5000-01520	Pstat Section
PSTATSERIALNO	LABEL	01520	Pstat Serial Number
CTRLMODE	IQUANT	1	Control Mode
ELECTROMETER	IQUANT	0	RE=0 or CS=1
IESTAB	IQUANT	2	I/E Stability
CASPEED	IQUANT	4	Control Amp Speed
CONVENTION	IQUANT	1	Current Convention
ICHRANGE	IQUANT	2	Ich Range
ICHRANGEMODE	TOGGLE	F	Ich Auto Range
ICHOFFSETENABLE	TOGGLE	F	Ich Offset Enable
ICHOFFSET	QUANT	0	Ich Offset (V)
ICHFILTER	IQUANT	3	Ich Filter
VCHRANGE	IQUANT	2	Vch Range
VCHRANGEMODE	TOGGLE	F	Vch Auto Range
VCHOFFSETENABLE	TOGGLE	F	Vch Offset Enable
VCHOFFSET	QUANT	0	Vch Offset (V)
VCHFILTER	IQUANT	3	Vch Filter
IERANGELOWERLIMIT	IQUANT	7	I/E Range Lower Limit
IERANGEMODE	TOGGLE	T	I/E AutoRange
IERANGE	IQUANT	11	I/E Range
ACHSELECT	IQUANT	1	Ach Select
ACHRANGE	IQUANT	2	Ach Range
ACHOFFSETENABLE	TOGGLE	F	Ach Offset Enable
ACHOFFSET	QUANT	0	Ach Offset (V)
ACHFILTER	IQUANT	1	Ach Filter
CABLEID	IQUANT	14	Cable ID
DCCALDATE	LABEL	20-10-2016	DC Calibration Date
ACCALDATE	LABEL	12/3/2015	AC Calibration Date
FRAMEWORKVERSION	QUANT	7.01	Framework Version
INSTRUMENTVERSION	LABEL	4.00	Instrument Version
CURVE1	TABLE
	Pt	T	Vf	Im	Vu	Sig	Ach	IERange	Over
	#	s	V vs. Ref.	A	V	V	V	#	bits
	0	0.05	-5.32160E-004	-1.08378E-003	0.00000E+000	0.00000E+000	-6.55718E+000	11	..........a
	1	0.1	-1.03322E-002	-1.13992E-003	0.00000E+000	-9.99874E-003	-6.55718E+000	10	..........a
	2	0.15	-2.05322E-002	-1.21826E-003	0.00000E+000	-1.99975E-002	-6.55718E+000	9	..........a
	3	0.2	-3.03322E-002	-1.29745E-003	0.00000E+000	-2.99962E-002	-6.55718E+000	9	..........a
	4	0.25	-4.03322E-002	-1.37513E-003	0.00000E+000	-3.99949E-002	-6.55718E+000	9	..........a
	5	0.3	-5.05322E-002	-1.44998E-003	0.00000E+000	-4.99937E-002	-6.55718E+000	9	..........a
	6	0.35	-6.05322E-002	-1.52266E-003	0.00000E+000	-5.99924E-002	-6.55718E+000	9	..........a
	7	0.4	-7.03321E-002	-1.59384E-003	0.00000E+000	-6.99912E-002	-6.55718E+000	9	..........a
	8	0.45	-8.03321E-002	-1.66252E-003	0.00000E+000	-7.99899E-002	-6.55718E+000	9	..........a
	9	0.5	-9.03321E-002	-1.73120E-003	0.00000E+000	-8.99886E-002	-6.55718E+000	9	..........a
	10	0.55	-1.00532E-001	-1.79655E-003	0.00000E+000	-9.99874E-002	-6.55718E+000	9	..........a
	11	0.6	-1.10332E-001	-1.85990E-003	0.00000E+000	-1.09986E-001	-6.55718E+000	9	..........a
	12	0.65	-1.20532E-001	-1.92258E-003	0.00000E+000	-1.19985E-001	-6.55718E+000	9	..........a
	13	0.7	-1.30332E-001	-1.98359E-003	0.00000E+000	-1.29984E-001	-6.55718E+000	9	..........a
	14	0.75	-1.40532E-001	-2.04344E-003	0.00000E+000	-1.39982E-001	-6.55718E+000	9	..........a
	15	0.8	-1.50332E-001	-2.10178E-003	0.00000E+000	-1.49981E-001	-6.55718E+000	9	..........a
	16	0.85	-1.60332E-001	-2.15846E-003	0.00000E+000	-1.59980E-001	-6.55718E+000	9	..........a
	17	0.9	-1.70332E-001	-2.21531E-003	0.00000E+000	-1.69979E-001	-6.55718E+000	9	..........a
	18	0.95	-1.80332E-001	-2.26848E-003	0.00000E+000	-1.79977E-001	-6.55718E+000	9	..........a
	19	1	-1.90132E-001	-2.32149E-003	0.00000E+000	-1.89976E-001	-6.55718E+000	9	..........a
	20	1.05	-2.00332E-001	-2.37434E-003	0.00000E+000	-1.99975E-001	-6.55718E+000	9	..........a
	21	1.1	-2.10332E-001	-2.42668E-003	0.00000E+000	-2.10023E-001	-6.55718E+000	9	..........a
	22	1.15	-2.20332E-001	-2.47519E-003	0.00000E+000	-2.20022E-001	-6.55718E+000	9	..........a
	23	1.2	-2.30332E-001	-2.52504E-003	0.00000E+000	-2.30021E-001	-6.55718E+000	9	..........a
	24	1.25	-2.40332E-001	-2.57321E-003	0.00000E+000	-2.40020E-001	-6.55718E+000	9	..........a
	25	1.3	-2.50332E-001	-2.62072E-003	0.00000E+000	-2.50018E-001	-6.55718E+000	9	..........a
	26	1.35	-2.60332E-001	-2.66657E-003	0.00000E+000	-2.60017E-001	-6.55718E+000	9	..........a
	27	1.4	-2.70332E-001	-2.70991E-003	0.00000E+000	-2.70016E-001	-6.55718E+000	9	..........a
	28	1.45	-2.80332E-001	-2.75559E-003	0.00000E+000	-2.80015E-001	-6.55718E+000	9	..........a
	29	1.5	-2.90332E-001	-2.79626E-003	0.00000E+000	-2.90013E-001	-6.55718E+000	9	..........a
	30	1.55	-3.00332E-001	-2.83894E-003	0.00000E+000	-3.00012E-001	-6.55718E+000	9	..........a
	31	1.6	-3.10332E-001	-2.88061E-003	0.00000E+000	-3.10011E-001	-6.55718E+000	9	..........a
	32	1.65	-3.20332E-001	-2.92062E-003	0.00000E+000	-3.20010E-001	-6.55718E+000	9	..........a
	33	1.7	-3.30532E-001	-2.96113E-003	0.00000E+000	-3.30008E-001	-6.55718E+000	9	..........a
	34	1.75	-3.40132E-001	-2.99964E-003	0.00000E+000	-3.40007E-001	-6.55718E+000	9	..........a
	35	1.8	-3.50332E-001	-3.03748E-003	0.00000E+000	-3.50006E-001	-6.55718E+000	9	..........a
	36	1.85	-3.59932E-001	-3.07465E-003	0.00000E+000	-3.60005E-001	-6.55718E+000	9	..........a
	37	1.9	-3.70132E-001	-3.11199E-003	0.00000E+000	-3.70003E-001	-6.55718E+000	9	..........a
	38	1.95	-3.80132E-001	-3.14800E-003	0.00000E+000	-3.80002E-001	-6.55718E+000	9	..........a
	39	2	-3.90332E-001	-3.18301E-003	0.00000E+000	-3.90001E-001	-6.55718E+000	9	..........a
	40	2.05	-4.00132E-001	-3.21768E-003	0.00000E+000	-3.99999E-001	-6.55718E+000	9	..........a
	41	2.1	-4.10332E-001	-3.25086E-003	0.00000E+000	-4.09998E-001	-6.55718E+000	9	..........a
	42	2.15	-4.20132E-001	-3.28320E-003	0.00000E+000	-4.19997E-001	-6.55718E+000	9	..........a
	43	2.2	-4.30132E-001	-3.31570E-003	0.00000E+000	-4.29996E-001	-6.55718E+000	9	..........a
	44	2.25	-4.40132E-001	-3.34704E-003	0.00000E+000	-4.39994E-001	-6.55718E+000	9	..........a
	45	2.3	-4.50332E-001	-3.37955E-003	0.00000E+000	-4.49993E-001	-6.55718E+000	9	..........a
	46	2.35	-4.60132E-001	-3.41006E-003	0.00000E+000	-4.59992E-001	-6.55718E+000	9	..........a
	47	2.4	-4.70132E-001	-3.43990E-003	0.00000E+000	-4.69991E-001	-6.55718E+000	9	..........a
	48	2.45	-4.80132E-001	-3.46857E-003	0.00000E+000	-4.79989E-001	-6.55718E+000	9	..........a
	49	2.5	-4.90132E-001	-3.49641E-003	0.00000E+000	-4.89988E-001	-6.55718E+000	9	..........a
	50	2.55	-5.00132E-001	-3.52475E-003	0.00000E+000	-4.99987E-001	-6.55718E+000	9	..........a
	51	2.6	-5.10132E-001	-3.55109E-003	0.00000E+000	-5.09986E-001	-6.55718E+000	9	..........a
	52	2.65	-5.20132E-001	-3.57776E-003	0.00000E+000	-5.19984E-001	-6.55718E+000	9	..........a
	53	2.7	-5.29932E-001	-3.60410E-003	0.00000E+000	-5.29983E-001	-6.55718E+000	9	..........a
	54	2.75	-5.40132E-001	-3.62844E-003	0.00000E+000	-5.39982E-001	-6.55718E+000	9	..........a
	55	2.8	-5.49932E-001	-3.65227E-003	0.00000E+000	-5.49981E-001	-6.55718E+000	9	..........a
	56	2.85	-5.60132E-001	-3.67561E-003	0.00000E+000	-5.59979E-001	-6.55718E+000	9	..........a
	57	2.9	-5.69932E-001	-3.69862E-003	0.00000E+000	-5.69978E-001	-6.55718E+000	9	..........a
	58	2.95	-5.80132E-001	-3.72112E-003	0.00000E+000	-5.79977E-001	-6.55718E+000	9	..........a
	59	3	-5.90132E-001	-3.74296E-003	0.00000E+000	-5.89975E-001	-6.55718E+000	9	..........a
	60	3.05	-6.00132E-001	-3.76480E-003	0.00000E+000	-5.99974E-001	-6.55718E+000	9	..........a
	61	3.1	-6.10132E-001	-3.78647E-003	0.00000E+000	-6.10023E-001	-6.55718E+000	9	..........a
	62	3.15	-6.19932E-001	-3.80464E-003	0.00000E+000	-6.20022E-001	-6.55718E+000	9	..........a
	63	3.2	-6.30132E-001	-3.82581E-003	0.00000E+000	-6.30020E-001	-6.55718E+000	9	..........a
	64	3.25	-6.40132E-001	-3.84515E-003	0.00000E+000	-6.40019E-001	-6.55718E+000	9	..........a
	65	3.3	-6.50132E-001	-3.86482E-003	0.00000E+000	-6.50018E-001	-6.55718E+000	9	..........a
	66	3.35	-6.60132E-001	-3.88132E-003	0.00000E+000	-6.60017E-001	-6.55718E+000	9	..........a
	67	3.4	-6.69732E-001	-3.89749E-003	0.00000E+000	-6.70015E-001	-6.55718E+000	9	..........a
	68	3.45	-6.79932E-001	-3.91416E-003	0.00000E+000	-6.80014E-001	-6.55718E+000	9	..........a
	69	3.5	-6.90132E-001	-3.92867E-003	0.00000E+000	-6.90013E-001	-6.55718E+000	9	..........a
	70	3.55	-6.99932E-001	-3.94484E-003	0.00000E+000	-7.00012E-001	-6.55718E+000	9	..........a
	71	3.6	-7.09932E-001	-3.96001E-003	0.00000E+000	-7.10010E-001	-6.55718E+000	9	..........a
	72	3.65	-7.19932E-001	-3.97484E-003	0.00000E+000	-7.20009E-001	-6.55718E+000	9	..........a
	73	3.7	-7.30132E-001	-3.98734E-003	0.00000E+000	-7.30008E-001	-6.55718E+000	9	..........a
	74	3.75	-7.40132E-001	-4.00185E-003	0.00000E+000	-7.40007E-001	-6.55718E+000	9	..........a
	75	3.8	-7.50132E-001	-4.01685E-003	0.00000E+000	-7.50005E-001	-6.55718E+000	9	..........a
	76	3.85	-7.59932E-001	-4.02885E-003	0.00000E+000	-7.60004E-001	-6.55718E+000	9	..........a
	77	3.9	-7.69932E-001	-4.04252E-003	0.00000E+000	-7.70003E-001	-6.55718E+000	9	..........a
	78	3.95	-7.79932E-001	-4.05402E-003	0.00000E+000	-7.80001E-001	-6.55718E+000	9	..........a
	79	4	-7.89932E-001	-4.06803E-003	0.00000E+000	-7.90000E-001	-6.55718E+000	9	..........a
	80	4.05	-8.00132E-001	-4.07970E-003	0.00000E+000	-7.99999E-001	-6.55718E+000	9	..........a
	81	4.1	-7.89932E-001	-3.70278E-003	0.00000E+000	-7.90000E-001	-6.55718E+000	9	..........a
	82	4.15	-7.80132E-001	-3.36705E-003	0.00000E+000	-7.80001E-001	-6.55718E+000	9	..........a
	83	4.2	-7.70132E-001	-3.06032E-003	0.00000E+000	-7.70003E-001	-6.55718E+000	9	..........a
	84	4.25	-7.59932E-001	-2.77942E-003	0.00000E+000	-7.60004E-001	-6.55718E+000	9	..........a
	85	4.3	-7.50132E-001	-2.52220E-003	0.00000E+000	-7.50005E-001	-6.55718E+000	9	..........a
	86	4.35	-7.40132E-001	-2.28299E-003	0.00000E+000	-7.40007E-001	-6.55718E+000	9	..........a
	87	4.4	-7.29932E-001	-2.05944E-003	0.00000E+000	-7.30008E-001	-6.55718E+000	9	..........a
	88	4.45	-7.19932E-001	-1.85206E-003	0.00000E+000	-7.20009E-001	-6.55718E+000	9	..........a
	89	4.5	-7.09932E-001	-1.65735E-003	0.00000E+000	-7.10010E-001	-6.55718E+000	9	..........a
	90	4.55	-7.00132E-001	-1.47498E-003	0.00000E+000	-7.00012E-001	-6.55718E+000	9	..........a
	91	4.6	-6.90132E-001	-1.30328E-003	0.00000E+000	-6.90013E-001	-6.55718E+000	9	..........a
	92	4.65	-6.79932E-001	-1.14108E-003	0.00000E+000	-6.80014E-001	-6.55718E+000	9	..........a
	93	4.7	-6.70132E-001	-9.87047E-004	0.00000E+000	-6.70015E-001	-6.55718E+000	9	..........a
	94	4.75	-6.60132E-001	-8.40850E-004	0.00000E+000	-6.60017E-001	-6.55718E+000	9	..........a
	95	4.8	-6.50132E-001	-7.02321E-004	0.00000E+000	-6.50018E-001	-6.55718E+000	9	..........a
	96	4.85	-6.39932E-001	-5.70460E-004	0.00000E+000	-6.40019E-001	-6.55718E+000	9	..........a
	97	4.9	-6.29932E-001	-4.43600E-004	0.00000E+000	-6.30020E-001	-6.55718E+000	9	..........a
	98	4.95	-6.20132E-001	-3.22741E-004	0.00000E+000	-6.20022E-001	-6.55718E+000	9	..........a
	99	5	-6.10132E-001	-2.07949E-004	0.00000E+000	-6.10023E-001	-6.55718E+000	8	..........a
	100	5.05	-5.99932E-001	-9.58782E-005	0.00000E+000	-5.99974E-001	-6.55718E+000	8	..........a
	101	5.1	-5.90132E-001	1.09678E-005	0.00000E+000	-5.89975E-001	-6.55718E+000	8	..........a
	102	5.15	-5.79932E-001	5.47102E-005	0.00000E+000	-5.79977E-001	-6.55718E+000	7	....ih..i.a
	103	5.2	-5.69932E-001	2.12022E-004	0.00000E+000	-5.69978E-001	-6.55718E+000	8	..........a
	104	5.25	-5.60132E-001	3.07465E-004	0.00000E+000	-5.59979E-001	-6.55718E+000	8	..........a
	105	5.3	-5.50132E-001	4.00121E-004	0.00000E+000	-5.49981E-001	-6.55718E+000	8	..........a
	106	5.35	-5.40132E-001	4.88853E-004	0.00000E+000	-5.39982E-001	-6.55718E+000	8	..........a
	107	5.4	-5.29932E-001	5.76115E-004	0.00000E+000	-5.29983E-001	-6.55718E+000	9	..........a
	108	5.45	-5.20132E-001	6.59465E-004	0.00000E+000	-5.19984E-001	-6.55718E+000	9	..........a
	109	5.5	-5.10132E-001	7.39982E-004	0.00000E+000	-5.09986E-001	-6.55718E+000	9	..........a
	110	5.55	-5.00132E-001	8.18499E-004	0.00000E+000	-4.99987E-001	-6.55718E+000	9	..........a
	111	5.6	-4.90132E-001	8.94182E-004	0.00000E+000	-4.89988E-001	-6.55718E+000	9	..........a
	112	5.65	-4.80132E-001	9.67030E-004	0.00000E+000	-4.79989E-001	-6.55718E+000	9	..........a
	113	5.7	-4.70132E-001	1.03805E-003	0.00000E+000	-4.69991E-001	-6.55718E+000	9	..........a
	114	5.75	-4.60132E-001	1.10723E-003	0.00000E+000	-4.59992E-001	-6.55718E+000	9	..........a
	115	5.8	-4.50332E-001	1.17341E-003	0.00000E+000	-4.49993E-001	-6.55718E+000	9	..........a
	116	5.85	-4.40132E-001	1.23909E-003	0.00000E+000	-4.39994E-001	-6.55718E+000	9	..........a
	117	5.9	-4.30132E-001	1.30127E-003	0.00000E+000	-4.29996E-001	-6.55718E+000	9	..........a
	118	5.95	-4.20132E-001	1.36311E-003	0.00000E+000	-4.19997E-001	-6.55718E+000	9	..........a
	119	6	-4.10132E-001	1.42129E-003	0.00000E+000	-4.09998E-001	-6.55718E+000	9	..........a
	120	6.05	-4.00332E-001	1.47864E-003	0.00000E+000	-3.99999E-001	-6.55718E+000	9	..........a
	121	6.1	-3.90132E-001	1.53532E-003	0.00000E+000	-3.90001E-001	-6.55718E+000	9	..........a
	122	6.15	-3.80332E-001	1.58833E-003	0.00000E+000	-3.80002E-001	-6.55718E+000	9	..........a
	123	6.2	-3.70332E-001	1.64117E-003	0.00000E+000	-3.70003E-001	-6.55718E+000	9	..........a
	124	6.25	-3.60332E-001	1.69285E-003	0.00000E+000	-3.60005E-001	-6.55718E+000	9	..........a
	125	6.3	-3.50332E-001	1.74203E-003	0.00000E+000	-3.50006E-001	-6.55718E+000	9	..........a
	126	6.35	-3.40132E-001	1.79037E-003	0.00000E+000	-3.40007E-001	-6.55718E+000	9	..........a
	127	6.4	-3.30332E-001	1.83655E-003	0.00000E+000	-3.30008E-001	-6.55718E+000	9	..........a
	128	6.45	-3.20332E-001	1.88222E-003	0.00000E+000	-3.20010E-001	-6.55718E+000	9	..........a
	129	6.5	-3.10332E-001	1.92807E-003	0.00000E+000	-3.10011E-001	-6.55718E+000	9	..........a
	130	6.55	-3.00132E-001	1.97107E-003	0.00000E+000	-3.00012E-001	-6.55718E+000	9	..........a
	131	6.6	-2.90332E-001	2.01258E-003	0.00000E+000	-2.90013E-001	-6.55718E+000	9	..........a
	132	6.65	-2.80332E-001	2.05309E-003	0.00000E+000	-2.80015E-001	-6.55718E+000	9	..........a
	133	6.7	-2.70532E-001	2.09393E-003	0.00000E+000	-2.70016E-001	-6.55718E+000	9	..........a
	134	6.75	-2.60332E-001	2.13394E-003	0.00000E+000	-2.60017E-001	-6.55718E+000	9	..........a
	135	6.8	-2.50332E-001	2.17178E-003	0.00000E+000	-2.50018E-001	-6.55718E+000	9	..........a
	136	6.85	-2.40332E-001	2.21012E-003	0.00000E+000	-2.40020E-001	-6.55718E+000	9	..........a
	137	6.9	-2.30332E-001	2.24763E-003	0.00000E+000	-2.30021E-001	-6.55718E+000	9	..........a
	138	6.95	-2.20332E-001	2.28247E-003	0.00000E+000	-2.20022E-001	-6.55718E+000	9	..........a
	139	7	-2.10532E-001	2.31831E-003	0.00000E+000	-2.10023E-001	-6.55718E+000	9	..........a
	140	7.05	-2.00332E-001	2.35415E-003	0.00000E+000	-1.99975E-001	-6.55718E+000	9	..........a
	141	7.1	-1.90132E-001	2.38750E-003	0.00000E+000	-1.89976E-001	-6.55718E+000	9	..........a
	142	7.15	-1.80532E-001	2.42184E-003	0.00000E+000	-1.79977E-001	-6.55718E+000	9	..........a
	143	7.2	-1.70332E-001	2.45534E-003	0.00000E+000	-1.69979E-001	-6.55718E+000	9	..........a
	144	7.25	-1.60532E-001	2.48735E-003	0.00000E+000	-1.59980E-001	-6.55718E+000	9	..........a
	145	7.3	-1.50532E-001	2.51936E-003	0.00000E+000	-1.49981E-001	-6.55718E+000	9	..........a
	146	7.35	-1.40532E-001	2.54936E-003	0.00000E+000	-1.39982E-001	-6.55718E+000	9	..........a
	147	7.4	-1.30332E-001	2.58104E-003	0.00000E+000	-1.29984E-001	-6.55718E+000	9	..........a
	148	7.45	-1.20532E-001	2.60921E-003	0.00000E+000	-1.19985E-001	-6.55718E+000	9	..........a
	149	7.5	-1.10532E-001	2.63938E-003	0.00000E+000	-1.09986E-001	-6.55718E+000	9	..........a
	150	7.55	-1.00532E-001	2.66689E-003	0.00000E+000	-9.99874E-002	-6.55718E+000	9	..........a
	151	7.6	-9.03321E-002	2.69639E-003	0.00000E+000	-8.99886E-002	-6.55718E+000	9	..........a
	152	7.65	-8.05321E-002	2.72390E-003	0.00000E+000	-7.99899E-002	-6.55718E+000	9	..........a
	153	7.7	-7.03321E-002	2.75207E-003	0.00000E+000	-6.99912E-002	-6.55718E+000	9	..........a
	154	7.75	-6.05322E-002	2.77958E-003	0.00000E+000	-5.99924E-002	-6.55718E+000	9	..........a
	155	7.8	-5.03322E-002	2.80525E-003	0.00000E+000	-4.99937E-002	-6.55718E+000	9	..........a
	156	7.85	-4.05322E-002	2.83342E-003	0.00000E+000	-3.99949E-002	-6.55718E+000	9	..........a
	157	7.9	-3.03322E-002	2.85809E-003	0.00000E+000	-2.99962E-002	-6.55718E+000	9	..........a
	158	7.95	-2.05322E-002	2.88343E-003	0.00000E+000	-1.99975E-002	-6.55718E+000	9	..........a
	159	8	-1.05322E-002	2.90977E-003	0.00000E+000	-9.99874E-003	-6.55718E+000	9	..........a
	160	8.05	-5.32160E-004	2.93361E-003	0.00000E+000	0.00000E+000	-6.55718E+000	9	..........a
	161	8.1	9.46784E-003	2.95762E-003	0.00000E+000	9.99874E-003	-6.55718E+000	9	..........a
	162	8.15	1.96678E-002	2.98129E-003	0.00000E+000	1.99975E-002	-6.55718E+000	9	..........a
	163	8.2	2.92678E-002	3.00562E-003	0.00000E+000	2.99962E-002	-6.55718E+000	9	..........a
	164	8.25	3.94678E-002	3.02796E-003	0.00000E+000	3.99949E-002	-6.55718E+000	9	..........a
	165	8.3	4.96678E-002	3.04913E-003	0.00000E+000	4.99937E-002	-6.55718E+000	9	..........a
	166	8.35	5.94678E-002	3.07247E-003	0.00000E+000	5.99924E-002	-6.55718E+000	9	..........a
	167	8.4	6.92678E-002	3.09281E-003	0.00000E+000	6.99912E-002	-6.55718E+000	9	..........a
	168	8.45	7.94678E-002	3.11315E-003	0.00000E+000	7.99899E-002	-6.55718E+000	9	..........a
	169	8.5	8.94678E-002	3.13299E-003	0.00000E+000	8.99886E-002	-6.55718E+000	9	..........a
	170	8.55	9.94678E-002	3.15382E-003	0.00000E+000	9.99874E-002	-6.55718E+000	9	..........a
	171	8.6	1.09468E-001	3.17399E-003	0.00000E+000	1.09986E-001	-6.55718E+000	9	..........a
	172	8.65	1.19468E-001	3.19183E-003	0.00000E+000	1.19985E-001	-6.55718E+000	9	..........a
	173	8.7	1.29468E-001	3.21384E-003	0.00000E+000	1.29984E-001	-6.55718E+000	9	..........a
	174	8.75	1.39268E-001	3.23067E-003	0.00000E+000	1.39982E-001	-6.55718E+000	9	..........a
	175	8.8	1.49468E-001	3.25001E-003	0.00000E+000	1.49981E-001	-6.55718E+000	9	..........a
	176	8.85	1.59468E-001	3.26585E-003	0.00000E+000	1.59980E-001	-6.55718E+000	9	..........a
	177	8.9	1.69268E-001	3.28452E-003	0.00000E+000	1.69979E-001	-6.55718E+000	9	..........a
	178	8.95	1.79268E-001	3.30085E-003	0.00000E+000	1.79977E-001	-6.55718E+000	9	..........a
	179	9	1.89268E-001	3.31586E-003	0.00000E+000	1.89976E-001	-6.55718E+000	9	..........a
	180	9.05	1.99268E-001	3.33269E-003	0.00000E+000	1.99975E-001	-6.55718E+000	9	..........a
	181	9.1	2.09468E-001	3.34836E-003	0.00000E+000	2.10023E-001	-6.55718E+000	9	..........a
	182	9.15	2.19468E-001	3.36387E-003	0.00000E+000	2.20022E-001	-6.55718E+000	9	..........a
	183	9.2	2.29468E-001	3.37854E-003	0.00000E+000	2.30021E-001	-6.55718E+000	9	..........a
	184	9.25	2.39268E-001	3.39304E-003	0.00000E+000	2.40020E-001	-6.55718E+000	9	..........a
	185	9.3	2.49268E-001	3.40654E-003	0.00000E+000	2.50018E-001	-6.55718E+000	9	..........a
	186	9.35	2.59468E-001	3.41955E-003	0.00000E+000	2.60017E-001	-6.55718E+000	9	..........a
	187	9.4	2.69468E-001	3.43388E-003	0.00000E+000	2.70016E-001	-6.55718E+000	9	..........a
	188	9.45	2.79268E-001	3.44772E-003	0.00000E+000	2.80015E-001	-6.55718E+000	9	..........a
	189	9.5	2.89468E-001	3.46055E-003	0.00000E+000	2.90013E-001	-6.55718E+000	9	..........a
	190	9.55	2.99468E-001	3.47289E-003	0.00000E+000	3.00012E-001	-6.55718E+000	9	..........a
	191	9.6	3.09268E-001	3.48623E-003	0.00000E+000	3.10011E-001	-6.55718E+000	9	..........a
	192	9.65	3.19468E-001	3.49856E-003	0.00000E+000	3.20010E-001	-6.55718E+000	9	..........a
	193	9.7	3.29468E-001	3.51140E-003	0.00000E+000	3.30008E-001	-6.55718E+000	9	..........a
	194	9.75	3.39268E-001	3.52307E-003	0.00000E+000	3.40007E-001	-6.55718E+000	9	..........a
	195	9.8	3.49268E-001	3.53557E-003	0.00000E+000	3.50006E-001	-6.55718E+000	9	..........a
	196	9.85	3.59468E-001	3.55007E-003	0.00000E+000	3.60005E-001	-6.55718E+000	9	..........a
	197	9.9	3.69268E-001	3.56107E-003	0.00000E+000	3.70003E-001	-6.55718E+000	9	..........a
	198	9.95	3.79268E-001	3.57224E-003	0.00000E+000	3.80002E-001	-6.55718E+000	9	..........a
	199	10	3.89268E-001	3.58425E-003	0.00000E+000	3.90001E-001	-6.55718E+000	9	..........a
	200	10.05	3.99268E-001	3.59575E-003	0.00000E+000	3.99999E-001	-6.55718E+000	9	..........a
	201	10.1	4.09268E-001	3.60725E-003	0.00000E+000	4.09998E-001	-6.55718E+000	9	..........a
	202	10.15	4.19268E-001	3.61759E-003	0.00000E+000	4.19997E-001	-6.55718E+000	9	..........a
	203	10.2	4.29068E-001	3.62776E-003	0.00000E+000	4.29996E-001	-6.55718E+000	9	..........a
	204	10.25	4.39268E-001	3.63842E-003	0.00000E+000	4.39994E-001	-6.55718E+000	9	..........a
	205	10.3	4.49268E-001	3.65009E-003	0.00000E+000	4.49993E-001	-6.55718E+000	9	..........a
	206	10.35	4.59068E-001	3.66093E-003	0.00000E+000	4.59992E-001	-6.55718E+000	9	..........a
	207	10.4	4.69268E-001	3.67176E-003	0.00000E+000	4.69991E-001	-6.55718E+000	9	..........a
	208	10.45	4.79068E-001	3.68443E-003	0.00000E+000	4.79989E-001	-6.55718E+000	9	..........a
	209	10.5	4.89268E-001	3.69227E-003	0.00000E+000	4.89988E-001	-6.55718E+000	9	..........a
	210	10.55	4.99268E-001	3.70361E-003	0.00000E+000	4.99987E-001	-6.55718E+000	9	..........a
	211	10.6	5.09268E-001	3.71211E-003	0.00000E+000	5.09986E-001	-6.55718E+000	9	..........a
	212	10.65	5.19268E-001	3.72111E-003	0.00000E+000	5.19984E-001	-6.55718E+000	9	..........a
	213	10.7	5.29068E-001	3.73128E-003	0.00000E+000	5.29983E-001	-6.55718E+000	9	..........a
	214	10.75	5.39068E-001	3.73861E-003	0.00000E+000	5.39982E-001	-6.55718E+000	9	..........a
	215	10.8	5.49268E-001	3.74728E-003	0.00000E+000	5.49981E-001	-6.55718E+000	9	..........a
	216	10.85	5.59068E-001	3.75512E-003	0.00000E+000	5.59979E-001	-6.55718E+000	9	..........a
	217	10.9	5.69268E-001	3.76428E-003	0.00000E+000	5.69978E-001	-6.55718E+000	9	..........a
	218	10.95	5.79268E-001	3.76945E-003	0.00000E+000	5.79977E-001	-6.55718E+000	9	..........a
	219	11	5.89068E-001	3.77629E-003	0.00000E+000	5.89975E-001	-6.55718E+000	9	..........a
	220	11.05	5.99068E-001	3.78229E-003	0.00000E+000	5.99974E-001	-6.55718E+000	9	..........a
	221	11.1	6.09068E-001	3.78962E-003	0.00000E+000	6.10023E-001	-6.55718E+000	9	..........a
	222	11.15	6.19068E-001	3.79579E-003	0.00000E+000	6.20022E-001	-6.55718E+000	9	..........a
	223	11.2	6.29068E-001	3.80063E-003	0.00000E+000	6.30020E-001	-6.55718E+000	9	..........a
	224	11.25	6.39068E-001	3.80446E-003	0.00000E+000	6.40019E-001	-6.55718E+000	9	..........a
	225	11.3	6.49268E-001	3.80813E-003	0.00000E+000	6.50018E-001	-6.55718E+000	9	..........a
	226	11.35	6.59068E-001	3.81363E-003	0.00000E+000	6.60017E-001	-6.55718E+000	9	..........a
	227	11.4	6.69068E-001	3.81746E-003	0.00000E+000	6.70015E-001	-6.55718E+000	9	..........a
	228	11.45	6.79068E-001	3.82263E-003	0.00000E+000	6.80014E-001	-6.55718E+000	9	..........a
	229	11.5	6.88868E-001	3.82446E-003	0.00000E+000	6.90013E-001	-6.55718E+000	9	..........a
	230	11.55	6.99068E-001	3.82796E-003	0.00000E+000	7.00012E-001	-6.55718E+000	9	..........a
	231	11.6	7.09068E-001	3.83230E-003	0.00000E+000	7.10010E-001	-6.55718E+000	9	..........a
	232	11.65	7.18868E-001	3.83430E-003	0.00000E+000	7.20009E-001	-6.55718E+000	9	..........a
	233	11.7	7.29068E-001	3.83830E-003	0.00000E+000	7.30008E-001	-6.55718E+000	9	..........a
	234	11.75	7.38868E-001	3.83963E-003	0.00000E+000	7.40007E-001	-6.55718E+000	9	..........a
	235	11.8	7.49068E-001	3.84130E-003	0.00000E+000	7.50005E-001	-6.55718E+000	9	..........a
	236	11.85	7.59068E-001	3.84547E-003	0.00000E+000	7.60004E-001	-6.55718E+000	9	..........a
	237	11.9	7.69068E-001	3.84747E-003	0.00000E+000	7.70003E-001	-6.55718E+000	9	..........a
	238	11.95	7.79068E-001	3.85080E-003	0.00000E+000	7.80001E-001	-6.55718E+000	9	..........a
	239	12	7.89068E-001	3.85430E-003	0.00000E+000	7.90000E-001	-6.55718E+000	9	..........a
	240	12.05	7.98868E-001	3.85747E-003	0.00000E+000	7.99999E-001	-6.55718E+000	9	..........a
CURVE2	TABLE
	Pt	T	Vf	Im	Vu	Sig	Ach	IERange	Over
	#	s	V vs. Ref.	A	V	V	V	#	bits
	241	12.1	7.89068E-001	3.48523E-003	0.00000E+000	7.90000E-001	-6.55718E+000	9	..........a
	242	12.15	7.79068E-001	3.15482E-003	0.00000E+000	7.80001E-001	-6.55718E+000	9	..........a
	243	12.2	7.69068E-001	2.85526E-003	0.00000E+000	7.70003E-001	-6.55718E+000	9	..........a
	244	12.25	7.59068E-001	2.58204E-003	0.00000E+000	7.60004E-001	-6.55718E+000	9	..........a
	245	12.3	7.49068E-001	2.33148E-003	0.00000E+000	7.50005E-001	-6.55718E+000	9	..........a
	246	12.35	7.39068E-001	2.09993E-003	0.00000E+000	7.40007E-001	-6.55718E+000	9	..........a
	247	12.4	7.29068E-001	1.88739E-003	0.00000E+000	7.30008E-001	-6.55718E+000	9	..........a
	248	12.45	7.19068E-001	1.68818E-003	0.00000E+000	7.20009E-001	-6.55718E+000	9	..........a
	249	12.5	7.09268E-001	1.50298E-003	0.00000E+000	7.10010E-001	-6.55718E+000	9	..........a
	250	12.55	6.99068E-001	1.32844E-003	0.00000E+000	7.00012E-001	-6.55718E+000	9	..........a
	251	12.6	6.88868E-001	1.16624E-003	0.00000E+000	6.90013E-001	-6.55718E+000	9	..........a
	252	12.65	6.79068E-001	1.01204E-003	0.00000E+000	6.80014E-001	-6.55718E+000	9	..........a
	253	12.7	6.69268E-001	8.68176E-004	0.00000E+000	6.70015E-001	-6.55718E+000	9	..........a
	254	12.75	6.59268E-001	7.30647E-004	0.00000E+000	6.60017E-001	-6.55718E+000	9	..........a
	255	12.8	6.49268E-001	6.00620E-004	0.00000E+000	6.50018E-001	-6.55718E+000	9	..........a
	256	12.85	6.39268E-001	4.76927E-004	0.00000E+000	6.40019E-001	-6.55718E+000	9	..........a
	257	12.9	6.29068E-001	3.58902E-004	0.00000E+000	6.30020E-001	-6.55718E+000	9	..........a
	258	12.95	6.19068E-001	2.45278E-004	0.00000E+000	6.20022E-001	-6.55718E+000	8	..........a
	259	13	6.09268E-001	1.37714E-004	0.00000E+000	6.10023E-001	-6.55718E+000	8	..........a
	260	13.05	5.99268E-001	3.49914E-005	0.00000E+000	6.00024E-001	-6.55718E+000	8	..........a
	261	13.1	5.89268E-001	-5.47454E-005	0.00000E+000	5.89975E-001	-6.55718E+000	7	....ih..i.a
	262	13.15	5.79068E-001	-1.59702E-004	0.00000E+000	5.79977E-001	-6.55718E+000	8	..........a
	263	13.2	5.69068E-001	-2.51038E-004	0.00000E+000	5.69978E-001	-6.55718E+000	8	..........a
	264	13.25	5.59268E-001	-3.39938E-004	0.00000E+000	5.59979E-001	-6.55718E+000	8	..........a
	265	13.3	5.49068E-001	-4.24663E-004	0.00000E+000	5.49981E-001	-6.55718E+000	8	..........a
	266	13.35	5.39068E-001	-5.06317E-004	0.00000E+000	5.39982E-001	-6.55718E+000	8	..........a
	267	13.4	5.29068E-001	-5.85963E-004	0.00000E+000	5.29983E-001	-6.55718E+000	9	..........a
	268	13.45	5.19068E-001	-6.62812E-004	0.00000E+000	5.19984E-001	-6.55718E+000	9	..........a
	269	13.5	5.09268E-001	-7.36995E-004	0.00000E+000	5.09986E-001	-6.55718E+000	9	..........a
	270	13.55	4.99268E-001	-8.09176E-004	0.00000E+000	4.99987E-001	-6.55718E+000	9	..........a
	271	13.6	4.89468E-001	-8.78691E-004	0.00000E+000	4.89988E-001	-6.55718E+000	9	..........a
	272	13.65	4.79268E-001	-9.46039E-004	0.00000E+000	4.79989E-001	-6.55718E+000	9	..........a
	273	13.7	4.69268E-001	-1.01072E-003	0.00000E+000	4.69991E-001	-6.55718E+000	9	..........a
	274	13.75	4.59268E-001	-1.07407E-003	0.00000E+000	4.59992E-001	-6.55718E+000	9	..........a
	275	13.8	4.49268E-001	-1.13474E-003	0.00000E+000	4.49993E-001	-6.55718E+000	9	..........a
	276	13.85	4.39268E-001	-1.19476E-003	0.00000E+000	4.39994E-001	-6.55718E+000	9	..........a
	277	13.9	4.29068E-001	-1.25227E-003	0.00000E+000	4.29996E-001	-6.55718E+000	9	..........a
	278	13.95	4.19268E-001	-1.30728E-003	0.00000E+000	4.19997E-001	-6.55718E+000	9	..........a
	279	14	4.09268E-001	-1.36213E-003	0.00000E+000	4.09998E-001	-6.55718E+000	9	..........a
	280	14.05	3.99268E-001	-1.41464E-003	0.00000E+000	3.99999E-001	-6.55718E+000	9	..........a
	281	14.1	3.89268E-001	-1.46648E-003	0.00000E+000	3.90001E-001	-6.55718E+000	9	..........a
	282	14.15	3.79268E-001	-1.51599E-003	0.00000E+000	3.80002E-001	-6.55718E+000	9	..........a
	283	14.2	3.69268E-001	-1.56350E-003	0.00000E+000	3.70003E-001	-6.55718E+000	9	..........a
	284	14.25	3.59268E-001	-1.61068E-003	0.00000E+000	3.60005E-001	-6.55718E+000	9	..........a
	285	14.3	3.49268E-001	-1.65652E-003	0.00000E+000	3.50006E-001	-6.55718E+000	9	..........a
	286	14.35	3.39268E-001	-1.70136E-003	0.00000E+000	3.40007E-001	-6.55718E+000	9	..........a
	287	14.4	3.29468E-001	-1.74454E-003	0.00000E+000	3.30008E-001	-6.55718E+000	9	..........a
	288	14.45	3.19268E-001	-1.78788E-003	0.00000E+000	3.20010E-001	-6.55718E+000	9	..........a
	289	14.5	3.09268E-001	-1.82939E-003	0.00000E+000	3.10011E-001	-6.55718E+000	9	..........a
	290	14.55	2.99268E-001	-1.86973E-003	0.00000E+000	3.00012E-001	-6.55718E+000	9	..........a
	291	14.6	2.89468E-001	-1.90874E-003	0.00000E+000	2.90013E-001	-6.55718E+000	9	..........a
	292	14.65	2.79468E-001	-1.94858E-003	0.00000E+000	2.80015E-001	-6.55718E+000	9	..........a
	293	14.7	2.69268E-001	-1.98642E-003	0.00000E+000	2.70016E-001	-6.55718E+000	9	..........a
	294	14.75	2.59468E-001	-2.02410E-003	0.00000E+000	2.60017E-001	-6.55718E+000	9	..........a
	295	14.8	2.49468E-001	-2.06027E-003	0.00000E+000	2.50018E-001	-6.55718E+000	9	..........a
	296	14.85	2.39268E-001	-2.09545E-003	0.00000E+000	2.40020E-001	-6.55718E+000	9	..........a
	297	14.9	2.29668E-001	-2.13095E-003	0.00000E+000	2.30021E-001	-6.55718E+000	9	..........a
	298	14.95	2.19468E-001	-2.16646E-003	0.00000E+000	2.20022E-001	-6.55718E+000	9	..........a
	299	15	2.09268E-001	-2.19914E-003	0.00000E+000	2.10023E-001	-6.55718E+000	9	..........a
	300	15.05	1.99268E-001	-2.23464E-003	0.00000E+000	2.00025E-001	-6.55718E+000	9	..........a
	301	15.1	1.89668E-001	-2.26798E-003	0.00000E+000	1.90026E-001	-6.55718E+000	9	..........a
	302	15.15	1.79468E-001	-2.30049E-003	0.00000E+000	1.79977E-001	-6.55718E+000	9	..........a
	303	15.2	1.69668E-001	-2.33333E-003	0.00000E+000	1.69979E-001	-6.55718E+000	9	..........a
	304	15.25	1.59468E-001	-2.36517E-003	0.00000E+000	1.59980E-001	-6.55718E+000	9	..........a
	305	15.3	1.49468E-001	-2.39668E-003	0.00000E+000	1.49981E-001	-6.55718E+000	9	..........a
	306	15.35	1.39468E-001	-2.42618E-003	0.00000E+000	1.39982E-001	-6.55718E+000	9	..........a
	307	15.4	1.29468E-001	-2.45836E-003	0.00000E+000	1.29984E-001	-6.55718E+000	9	..........a
	308	15.45	1.19268E-001	-2.48836E-003	0.00000E+000	1.19985E-001	-6.55718E+000	9	..........a
	309	15.5	1.09268E-001	-2.51754E-003	0.00000E+000	1.09986E-001	-6.55718E+000	9	..........a
	310	15.55	9.94678E-002	-2.54704E-003	0.00000E+000	9.99874E-002	-6.55718E+000	9	..........a
	311	15.6	8.94678E-002	-2.57521E-003	0.00000E+000	8.99886E-002	-6.55718E+000	9	..........a
	312	15.65	7.94678E-002	-2.60439E-003	0.00000E+000	7.99899E-002	-6.55718E+000	9	..........a
	313	15.7	6.94678E-002	-2.63373E-003	0.00000E+000	6.99912E-002	-6.55718E+000	9	..........a
	314	15.75	5.94678E-002	-2.66107E-003	0.00000E+000	5.99924E-002	-6.55718E+000	9	..........a
	315	15.8	4.96678E-002	-2.68874E-003	0.00000E+000	4.99937E-002	-6.55718E+000	9	..........a
	316	15.85	3.94678E-002	-2.71691E-003	0.00000E+000	3.99949E-002	-6.55718E+000	9	..........a
	317	15.9	2.94678E-002	-2.74442E-003	0.00000E+000	2.99962E-002	-6.55718E+000	9	..........a
	318	15.95	1.96678E-002	-2.77226E-003	0.00000E+000	1.99975E-002	-6.55718E+000	9	..........a
	319	16	9.66784E-003	-2.79726E-003	0.00000E+000	9.99874E-003	-6.55718E+000	9	..........a
	320	16.05	-3.32160E-004	-2.82327E-003	0.00000E+000	0.00000E+000	-6.55718E+000	9	..........a
	321	16.1	-1.05322E-002	-2.84894E-003	0.00000E+000	-9.99874E-003	-6.55718E+000	9	..........a
	322	16.15	-2.05322E-002	-2.87394E-003	0.00000E+000	-1.99975E-002	-6.55718E+000	9	..........a
	323	16.2	-3.05322E-002	-2.89945E-003	0.00000E+000	-2.99962E-002	-6.55718E+000	9	..........a
	324	16.25	-4.05322E-002	-2.92395E-003	0.00000E+000	-3.99949E-002	-6.55718E+000	9	..........a
	325	16.3	-5.05322E-002	-2.94796E-003	0.00000E+000	-4.99937E-002	-6.55718E+000	9	..........a
	326	16.35	-6.03322E-002	-2.97230E-003	0.00000E+000	-5.99924E-002	-6.55718E+000	9	..........a
	327	16.4	-7.01321E-002	-2.99497E-003	0.00000E+000	-6.99912E-002	-6.55718E+000	9	..........a
	328	16.45	-8.05321E-002	-3.01847E-003	0.00000E+000	-7.99899E-002	-6.55718E+000	9	..........a
	329	16.5	-9.03321E-002	-3.04014E-003	0.00000E+000	-8.99886E-002	-6.55718E+000	9	..........a
	330	16.55	-1.00532E-001	-3.06115E-003	0.00000E+000	-9.99874E-002	-6.55718E+000	9	..........a
	331	16.6	-1.10332E-001	-3.08465E-003	0.00000E+000	-1.09986E-001	-6.55718E+000	9	..........a
	332	16.65	-1.20532E-001	-3.10483E-003	0.00000E+000	-1.19985E-001	-6.55718E+000	9	..........a
	333	16.7	-1.30532E-001	-3.12650E-003	0.00000E+000	-1.29984E-001	-6.55718E+000	9	..........a
	334	16.75	-1.40332E-001	-3.14567E-003	0.00000E+000	-1.39982E-001	-6.55718E+000	9	..........a
	335	16.8	-1.50332E-001	-3.16784E-003	0.00000E+000	-1.49981E-001	-6.55718E+000	9	..........a
	336	16.85	-1.60332E-001	-3.18634E-003	0.00000E+000	-1.59980E-001	-6.55718E+000	9	..........a
	337	16.9	-1.70332E-001	-3.20735E-003	0.00000E+000	-1.69979E-001	-6.55718E+000	9	..........a
	338	16.95	-1.80332E-001	-3.22452E-003	0.00000E+000	-1.79977E-001	-6.55718E+000	9	..........a
	339	17	-1.90332E-001	-3.24535E-003	0.00000E+000	-1.89976E-001	-6.55718E+000	9	..........a
	340	17.05	-2.00332E-001	-3.26353E-003	0.00000E+000	-1.99975E-001	-6.55718E+000	9	..........a
	341	17.1	-2.10532E-001	-3.28370E-003	0.00000E+000	-2.09973E-001	-6.55718E+000	9	..........a
	342	17.15	-2.20332E-001	-3.30137E-003	0.00000E+000	-2.20022E-001	-6.55718E+000	9	..........a
	343	17.2	-2.30332E-001	-3.31987E-003	0.00000E+000	-2.30021E-001	-6.55718E+000	9	..........a
	344	17.25	-2.40332E-001	-3.33837E-003	0.00000E+000	-2.40020E-001	-6.55718E+000	9	..........a
	345	17.3	-2.50332E-001	-3.35638E-003	0.00000E+000	-2.50018E-001	-6.55718E+000	9	..........a
	346	17.35	-2.60332E-001	-3.37288E-003	0.00000E+000	-2.60017E-001	-6.55718E+000	9	..........a
	347	17.4	-2.70332E-001	-3.39055E-003	0.00000E+000	-2.70016E-001	-6.55718E+000	9	..........a
	348	17.45	-2.80332E-001	-3.40922E-003	0.00000E+000	-2.80015E-001	-6.55718E+000	9	..........a
	349	17.5	-2.90332E-001	-3.42639E-003	0.00000E+000	-2.90013E-001	-6.55718E+000	9	..........a
	350	17.55	-3.00332E-001	-3.44390E-003	0.00000E+000	-3.00012E-001	-6.55718E+000	9	..........a
	351	17.6	-3.10332E-001	-3.46240E-003	0.00000E+000	-3.10011E-001	-6.55718E+000	9	..........a
	352	17.65	-3.20132E-001	-3.47774E-003	0.00000E+000	-3.20010E-001	-6.55718E+000	9	..........a
	353	17.7	-3.30132E-001	-3.49524E-003	0.00000E+000	-3.30008E-001	-6.55718E+000	9	..........a
	354	17.75	-3.40332E-001	-3.51424E-003	0.00000E+000	-3.40007E-001	-6.55718E+000	9	..........a
	355	17.8	-3.49932E-001	-3.53041E-003	0.00000E+000	-3.50006E-001	-6.55718E+000	9	..........a
	356	17.85	-3.60332E-001	-3.54742E-003	0.00000E+000	-3.60005E-001	-6.55718E+000	9	..........a
	357	17.9	-3.70332E-001	-3.56409E-003	0.00000E+000	-3.70003E-001	-6.55718E+000	9	..........a
	358	17.95	-3.80332E-001	-3.57992E-003	0.00000E+000	-3.80002E-001	-6.55718E+000	9	..........a
	359	18	-3.90332E-001	-3.59776E-003	0.00000E+000	-3.90001E-001	-6.55718E+000	9	..........a
	360	18.05	-4.00132E-001	-3.61093E-003	0.00000E+000	-3.99999E-001	-6.55718E+000	9	..........a
	361	18.1	-4.10132E-001	-3.62743E-003	0.00000E+000	-4.09998E-001	-6.55718E+000	9	..........a
	362	18.15	-4.20132E-001	-3.64361E-003	0.00000E+000	-4.19997E-001	-6.55718E+000	9	..........a
	363	18.2	-4.30132E-001	-3.66094E-003	0.00000E+000	-4.29996E-001	-6.55718E+000	9	..........a
	364	18.25	-4.40132E-001	-3.67695E-003	0.00000E+000	-4.39994E-001	-6.55718E+000	9	..........a
	365	18.3	-4.50132E-001	-3.69212E-003	0.00000E+000	-4.49993E-001	-6.55718E+000	9	..........a
	366	18.35	-4.60132E-001	-3.70712E-003	0.00000E+000	-4.59992E-001	-6.55718E+000	9	..........a
	367	18.4	-4.70132E-001	-3.72379E-003	0.00000E+000	-4.69991E-001	-6.55718E+000	9	..........a
	368	18.45	-4.80132E-001	-3.73896E-003	0.00000E+000	-4.79989E-001	-6.55718E+000	9	..........a
	369	18.5	-4.90132E-001	-3.75263E-003	0.00000E+000	-4.89988E-001	-6.55718E+000	9	..........a
	370	18.55	-5.00132E-001	-3.76830E-003	0.00000E+000	-4.99987E-001	-6.55718E+000	9	..........a
	371	18.6	-5.10132E-001	-3.78380E-003	0.00000E+000	-5.09986E-001	-6.55718E+000	9	..........a
	372	18.65	-5.20332E-001	-3.79680E-003	0.00000E+000	-5.19984E-001	-6.55718E+000	9	..........a
	373	18.7	-5.30332E-001	-3.81197E-003	0.00000E+000	-5.29983E-001	-6.55718E+000	9	..........a
	374	18.75	-5.39932E-001	-3.82331E-003	0.00000E+000	-5.39982E-001	-6.55718E+000	9	..........a
	375	18.8	-5.50132E-001	-3.83798E-003	0.00000E+000	-5.49981E-001	-6.55718E+000	9	..........a
	376	18.85	-5.60132E-001	-3.85198E-003	0.00000E+000	-5.59979E-001	-6.55718E+000	9	..........a
	377	18.9	-5.70332E-001	-3.86482E-003	0.00000E+000	-5.69978E-001	-6.55718E+000	9	..........a
	378	18.95	-5.80132E-001	-3.87699E-003	0.00000E+000	-5.79977E-001	-6.55718E+000	9	..........a
	379	19	-5.90132E-001	-3.88916E-003	0.00000E+000	-5.89975E-001	-6.55718E+000	9	..........a
	380	19.05	-5.99932E-001	-3.90033E-003	0.00000E+000	-5.99974E-001	-6.55718E+000	9	..........a
	381	19.1	-6.10132E-001	-3.91149E-003	0.00000E+000	-6.09973E-001	-6.55718E+000	9	..........a
	382	19.15	-6.20132E-001	-3.92400E-003	0.00000E+000	-6.20022E-001	-6.55718E+000	9	..........a
	383	19.2	-6.30332E-001	-3.93617E-003	0.00000E+000	-6.30020E-001	-6.55718E+000	9	..........a
	384	19.25	-6.39932E-001	-3.94700E-003	0.00000E+000	-6.40019E-001	-6.55718E+000	9	..........a
	385	19.3	-6.49932E-001	-3.95534E-003	0.00000E+000	-6.50018E-001	-6.55718E+000	9	..........a
	386	19.35	-6.60132E-001	-3.96551E-003	0.00000E+000	-6.60017E-001	-6.55718E+000	9	..........a
	387	19.4	-6.70132E-001	-3.97617E-003	0.00000E+000	-6.70015E-001	-6.55718E+000	9	..........a
	388	19.45	-6.79932E-001	-3.98651E-003	0.00000E+000	-6.80014E-001	-6.55718E+000	9	..........a
	389	19.5	-6.89932E-001	-3.99301E-003	0.00000E+000	-6.90013E-001	-6.55718E+000	9	..........a
	390	19.55	-6.99932E-001	-4.00485E-003	0.00000E+000	-7.00012E-001	-6.55718E+000	9	..........a
	391	19.6	-7.10132E-001	-4.01285E-003	0.00000E+000	-7.10010E-001	-6.55718E+000	9	..........a
	392	19.65	-7.20132E-001	-4.02068E-003	0.00000E+000	-7.20009E-001	-6.55718E+000	9	..........a
	393	19.7	-7.29932E-001	-4.02769E-003	0.00000E+000	-7.30008E-001	-6.55718E+000	9	..........a
	394	19.75	-7.39932E-001	-4.03819E-003	0.00000E+000	-7.40007E-001	-6.55718E+000	9	..........a
	395	19.8	-7.49932E-001	-4.04469E-003	0.00000E+000	-7.50005E-001	-6.55718E+000	9	..........a
	396	19.85	-7.59932E-001	-4.05102E-003	0.00000E+000	-7.60004E-001	-6.55718E+000	9	..........a
	397	19.9	-7.69932E-001	-4.05869E-003	0.00000E+000	-7.70003E-001	-6.55718E+000	9	..........a
	398	19.95	-7.79932E-001	-4.06703E-003	0.00000E+000	-7.80001E-001	-6.55718E+000	9	..........a
	399	20	-7.89932E-001	-4.07603E-003	0.00000E+000	-7.90000E-001	-6.55718E+000	9	..........a
	400	20.05	-7.99932E-001	-4.08386E-003	0.00000E+000	-7.99999E-001	-6.55718E+000	9	..........a
	401	20.1	-7.89932E-001	-3.70412E-003	0.00000E+000	-7.90000E-001	-6.55718E+000	9	..........a
	402	20.15	-7.79932E-001	-3.36421E-003	0.00000E+000	-7.80001E-001	-6.55718E+000	9	..........a
	403	20.2	-7.69932E-001	-3.05948E-003	0.00000E+000	-7.70003E-001	-6.55718E+000	9	..........a
	404	20.25	-7.59732E-001	-2.77859E-003	0.00000E+000	-7.60004E-001	-6.55718E+000	9	..........a
	405	20.3	-7.50132E-001	-2.51804E-003	0.00000E+000	-7.50005E-001	-6.55718E+000	9	..........a
	406	20.35	-7.40132E-001	-2.27782E-003	0.00000E+000	-7.40007E-001	-6.55718E+000	9	..........a
	407	20.4	-7.29932E-001	-2.05444E-003	0.00000E+000	-7.30008E-001	-6.55718E+000	9	..........a
	408	20.45	-7.19932E-001	-1.84689E-003	0.00000E+000	-7.20009E-001	-6.55718E+000	9	..........a
	409	20.5	-7.09932E-001	-1.65169E-003	0.00000E+000	-7.10010E-001	-6.55718E+000	9	..........a
	410	20.55	-6.99932E-001	-1.46915E-003	0.00000E+000	-7.00012E-001	-6.55718E+000	9	..........a
	411	20.6	-6.90132E-001	-1.29778E-003	0.00000E+000	-6.90013E-001	-6.55718E+000	9	..........a
	412	20.65	-6.80132E-001	-1.13441E-003	0.00000E+000	-6.80014E-001	-6.55718E+000	9	..........a
	413	20.7	-6.69932E-001	-9.82379E-004	0.00000E+000	-6.70015E-001	-6.55718E+000	9	..........a
	414	20.75	-6.60132E-001	-8.36849E-004	0.00000E+000	-6.60017E-001	-6.55718E+000	9	..........a
	415	20.8	-6.50132E-001	-6.97486E-004	0.00000E+000	-6.50018E-001	-6.55718E+000	9	..........a
	416	20.85	-6.40132E-001	-5.65458E-004	0.00000E+000	-6.40019E-001	-6.55718E+000	9	..........a
	417	20.9	-6.30132E-001	-4.39765E-004	0.00000E+000	-6.30020E-001	-6.55718E+000	9	..........a
	418	20.95	-6.20132E-001	-3.19574E-004	0.00000E+000	-6.20022E-001	-6.55718E+000	9	..........a
	419	21	-6.09932E-001	-2.04343E-004	0.00000E+000	-6.09973E-001	-6.55718E+000	8	..........a
	420	21.05	-6.00132E-001	-9.38247E-005	0.00000E+000	-5.99974E-001	-6.55718E+000	8	..........a
	421	21.1	-5.90132E-001	1.20362E-005	0.00000E+000	-5.89975E-001	-6.55718E+000	8	..........a
	422	21.15	-5.79932E-001	5.47102E-005	0.00000E+000	-5.79977E-001	-6.55718E+000	7	....ih..i.a
	423	21.2	-5.70132E-001	2.13224E-004	0.00000E+000	-5.69978E-001	-6.55718E+000	8	..........a
	424	21.25	-5.59932E-001	3.08150E-004	0.00000E+000	-5.59979E-001	-6.55718E+000	8	..........a
	425	21.3	-5.50132E-001	3.99670E-004	0.00000E+000	-5.49981E-001	-6.55718E+000	8	..........a
	426	21.35	-5.40332E-001	4.88452E-004	0.00000E+000	-5.39982E-001	-6.55718E+000	8	..........a
	427	21.4	-5.30132E-001	5.75281E-004	0.00000E+000	-5.29983E-001	-6.55718E+000	9	..........a
	428	21.45	-5.20132E-001	6.58299E-004	0.00000E+000	-5.19984E-001	-6.55718E+000	9	..........a
	429	21.5	-5.09932E-001	7.38815E-004	0.00000E+000	-5.09986E-001	-6.55718E+000	9	..........a
	430	21.55	-4.99932E-001	8.17165E-004	0.00000E+000	-4.99987E-001	-6.55718E+000	9	..........a
	431	21.6	-4.90132E-001	8.91514E-004	0.00000E+000	-4.89988E-001	-6.55718E+000	9	..........a
	432	21.65	-4.80132E-001	9.64863E-004	0.00000E+000	-4.79989E-001	-6.55718E+000	9	..........a
	433	21.7	-4.70332E-001	1.03588E-003	0.00000E+000	-4.69991E-001	-6.55718E+000	9	..........a
	434	21.75	-4.60132E-001	1.10439E-003	0.00000E+000	-4.59992E-001	-6.55718E+000	9	..........a
	435	21.8	-4.50132E-001	1.17041E-003	0.00000E+000	-4.49993E-001	-6.55718E+000	9	..........a
	436	21.85	-4.40132E-001	1.23459E-003	0.00000E+000	-4.39994E-001	-6.55718E+000	9	..........a
	437	21.9	-4.30332E-001	1.29727E-003	0.00000E+000	-4.29996E-001	-6.55718E+000	9	..........a
	438	21.95	-4.20132E-001	1.35695E-003	0.00000E+000	-4.19997E-001	-6.55718E+000	9	..........a
	439	22	-4.10132E-001	1.41612E-003	0.00000E+000	-4.09998E-001	-6.55718E+000	9	..........a
	440	22.05	-4.00132E-001	1.47314E-003	0.00000E+000	-3.99999E-001	-6.55718E+000	9	..........a
	441	22.1	-3.90132E-001	1.52815E-003	0.00000E+000	-3.90001E-001	-6.55718E+000	9	..........a
	442	22.15	-3.80332E-001	1.58266E-003	0.00000E+000	-3.80002E-001	-6.55718E+000	9	..........a
	443	22.2	-3.70132E-001	1.63367E-003	0.00000E+000	-3.70003E-001	-6.55718E+000	9	..........a
	444	22.25	-3.60332E-001	1.68435E-003	0.00000E+000	-3.60005E-001	-6.55718E+000	9	..........a
	445	22.3	-3.50132E-001	1.73502E-003	0.00000E+000	-3.50006E-001	-6.55718E+000	9	..........a
	446	22.35	-3.40332E-001	1.78153E-003	0.00000E+000	-3.40007E-001	-6.55718E+000	9	..........a
	447	22.4	-3.30332E-001	1.82838E-003	0.00000E+000	-3.30008E-001	-6.55718E+000	9	..........a
	448	22.45	-3.20132E-001	1.87339E-003	0.00000E+000	-3.20010E-001	-6.55718E+000	9	..........a
	449	22.5	-3.10532E-001	1.91806E-003	0.00000E+000	-3.10011E-001	-6.55718E+000	9	..........a
	450	22.55	-3.00332E-001	1.96141E-003	0.00000E+000	-3.00012E-001	-6.55718E+000	9	..........a
	451	22.6	-2.90532E-001	2.00275E-003	0.00000E+000	-2.90013E-001	-6.55718E+000	9	..........a
	452	22.65	-2.80332E-001	2.04376E-003	0.00000E+000	-2.80015E-001	-6.55718E+000	9	..........a
	453	22.7	-2.70532E-001	2.08426E-003	0.00000E+000	-2.70016E-001	-6.55718E+000	9	..........a
	454	22.75	-2.60332E-001	2.12327E-003	0.00000E+000	-2.60017E-001	-6.55718E+000	9	..........a
	455	22.8	-2.50332E-001	2.16111E-003	0.00000E+000	-2.50018E-001	-6.55718E+000	9	..........a
	456	22.85	-2.40332E-001	2.19846E-003	0.00000E+000	-2.40020E-001	-6.55718E+000	9	..........a
	457	22.9	-2.30332E-001	2.23613E-003	0.00000E+000	-2.30021E-001	-6.55718E+000	9	..........a
	458	22.95	-2.20332E-001	2.27130E-003	0.00000E+000	-2.20022E-001	-6.55718E+000	9	..........a
	459	23	-2.10332E-001	2.30698E-003	0.00000E+000	-2.09973E-001	-6.55718E+000	9	..........a
	460	23.05	-2.00332E-001	2.34132E-003	0.00000E+000	-1.99975E-001	-6.55718E+000	9	..........a
	461	23.1	-1.90532E-001	2.37499E-003	0.00000E+000	-1.89976E-001	-6.55718E+000	9	..........a
	462	23.15	-1.80332E-001	2.40850E-003	0.00000E+000	-1.79977E-001	-6.55718E+000	9	..........a
	463	23.2	-1.70332E-001	2.44134E-003	0.00000E+000	-1.69979E-001	-6.55718E+000	9	..........a
	464	23.25	-1.60532E-001	2.47251E-003	0.00000E+000	-1.59980E-001	-6.55718E+000	9	..........a
	465	23.3	-1.50332E-001	2.50535E-003	0.00000E+000	-1.49981E-001	-6.55718E+000	9	..........a
	466	23.35	-1.40532E-001	2.53536E-003	0.00000E+000	-1.39982E-001	-6.55718E+000	9	..........a
	467	23.4	-1.30532E-001	2.56570E-003	0.00000E+000	-1.29984E-001	-6.55718E+000	9	..........a
	468	23.45	-1.20332E-001	2.59421E-003	0.00000E+000	-1.19985E-001	-6.55718E+000	9	..........a
	469	23.5	-1.10532E-001	2.62388E-003	0.00000E+000	-1.09986E-001	-6.55718E+000	9	..........a
	470	23.55	-1.00332E-001	2.65355E-003	0.00000E+000	-9.99874E-002	-6.55718E+000	9	..........a
	471	23.6	-9.03321E-002	2.68206E-003	0.00000E+000	-8.99886E-002	-6.55718E+000	9	..........a
	472	23.65	-8.03321E-002	2.71073E-003	0.00000E+000	-7.99899E-002	-6.55718E+000	9	..........a
	473	23.7	-7.05322E-002	2.73740E-003	0.00000E+000	-6.99912E-002	-6.55718E+000	9	..........a
	474	23.75	-6.05322E-002	2.76491E-003	0.00000E+000	-5.99924E-002	-6.55718E+000	9	..........a
	475	23.8	-5.03322E-002	2.79241E-003	0.00000E+000	-4.99937E-002	-6.55718E+000	9	..........a
	476	23.85	-4.03322E-002	2.81725E-003	0.00000E+000	-3.99949E-002	-6.55718E+000	9	..........a
	477	23.9	-3.05322E-002	2.84342E-003	0.00000E+000	-2.99962E-002	-6.55718E+000	9	..........a
	478	23.95	-2.03322E-002	2.86776E-003	0.00000E+000	-1.99975E-002	-6.55718E+000	9	..........a
	479	24	-1.07322E-002	2.89277E-003	0.00000E+000	-9.99874E-003	-6.55718E+000	9	..........a
	480	24.05	-5.32160E-004	2.91744E-003	0.00000E+000	0.00000E+000	-6.55718E+000	9	..........a
	481	24.1	9.66784E-003	2.94128E-003	0.00000E+000	9.99874E-003	-6.55718E+000	9	..........a
	482	24.15	1.94678E-002	2.96495E-003	0.00000E+000	1.99975E-002	-6.55718E+000	9	..........a
	483	24.2	2.96678E-002	2.98879E-003	0.00000E+000	2.99962E-002	-6.55718E+000	9	..........a
	484	24.25	3.94678E-002	3.01146E-003	0.00000E+000	3.99949E-002	-6.55718E+000	9	..........a
	485	24.3	4.94678E-002	3.03330E-003	0.00000E+000	4.99937E-002	-6.55718E+000	9	..........a
	486	24.35	5.96678E-002	3.05480E-003	0.00000E+000	5.99924E-002	-6.55718E+000	9	..........a
	487	24.4	6.94678E-002	3.07847E-003	0.00000E+000	6.99912E-002	-6.55718E+000	9	..........a
	488	24.45	7.94678E-002	3.09781E-003	0.00000E+000	7.99899E-002	-6.55718E+000	9	..........a
	489	24.5	8.94678E-002	3.11948E-003	0.00000E+000	8.99886E-002	-6.55718E+000	9	..........a
	490	24.55	9.94678E-002	3.13799E-003	0.00000E+000	9.99874E-002	-6.55718E+000	9	..........a
	491	24.6	1.09468E-001	3.15916E-003	0.00000E+000	1.09986E-001	-6.55718E+000	9	..........a
	492	24.65	1.19468E-001	3.17649E-003	0.00000E+000	1.19985E-001	-6.55718E+000	9	..........a
	493	24.7	1.29468E-001	3.19516E-003	0.00000E+000	1.29984E-001	-6.55718E+000	9	..........a
	494	24.75	1.39468E-001	3.21317E-003	0.00000E+000	1.39982E-001	-6.55718E+000	9	..........a
	495	24.8	1.49468E-001	3.23201E-003	0.00000E+000	1.49981E-001	-6.55718E+000	9	..........a
	496	24.85	1.59268E-001	3.25034E-003	0.00000E+000	1.59980E-001	-6.55718E+000	9	..........a
	497	24.9	1.69268E-001	3.26735E-003	0.00000E+000	1.69979E-001	-6.55718E+000	9	..........a
	498	24.95	1.79268E-001	3.28468E-003	0.00000E+000	1.79977E-001	-6.55718E+000	9	..........a
	499	25	1.89668E-001	3.30185E-003	0.00000E+000	1.90026E-001	-6.55718E+000	9	..........a
	500	25.05	1.99268E-001	3.31736E-003	0.00000E+000	2.00025E-001	-6.55718E+000	9	..........a
	501	25.1	2.09468E-001	3.33319E-003	0.00000E+000	2.10023E-001	-6.55718E+000	9	..........a
	502	25.15	2.19468E-001	3.34836E-003	0.00000E+000	2.20022E-001	-6.55718E+000	9	..........a
	503	25.2	2.29268E-001	3.36387E-003	0.00000E+000	2.30021E-001	-6.55718E+000	9	..........a
	504	25.25	2.39268E-001	3.37704E-003	0.00000E+000	2.40020E-001	-6.55718E+000	9	..........a
	505	25.3	2.49468E-001	3.39137E-003	0.00000E+000	2.50018E-001	-6.55718E+000	9	..........a
	506	25.35	2.59468E-001	3.40554E-003	0.00000E+000	2.60017E-001	-6.55718E+000	9	..........a
	507	25.4	2.69468E-001	3.41871E-003	0.00000E+000	2.70016E-001	-6.55718E+000	9	..........a
	508	25.45	2.79468E-001	3.43271E-003	0.00000E+000	2.80015E-001	-6.55718E+000	9	..........a
	509	25.5	2.89468E-001	3.44488E-003	0.00000E+000	2.90013E-001	-6.55718E+000	9	..........a
	510	25.55	2.99268E-001	3.46022E-003	0.00000E+000	3.00012E-001	-6.55718E+000	9	..........a
	511	25.6	3.09468E-001	3.47239E-003	0.00000E+000	3.10011E-001	-6.55718E+000	9	..........a
	512	25.65	3.19268E-001	3.48456E-003	0.00000E+000	3.20010E-001	-6.55718E+000	9	..........a
	513	25.7	3.29268E-001	3.49489E-003	0.00000E+000	3.30008E-001	-6.55718E+000	9	..........a
	514	25.75	3.39468E-001	3.50973E-003	0.00000E+000	3.40007E-001	-6.55718E+000	9	..........a
	515	25.8	3.49268E-001	3.52240E-003	0.00000E+000	3.50006E-001	-6.55718E+000	9	..........a
	516	25.85	3.59268E-001	3.53224E-003	0.00000E+000	3.60005E-001	-6.55718E+000	9	..........a
	517	25.9	3.69468E-001	3.54557E-003	0.00000E+000	3.70003E-001	-6.55718E+000	9	..........a
	518	25.95	3.79268E-001	3.55607E-003	0.00000E+000	3.80002E-001	-6.55718E+000	9	..........a
	519	26	3.89268E-001	3.56791E-003	0.00000E+000	3.90001E-001	-6.55718E+000	9	..........a
	520	26.05	3.99268E-001	3.57825E-003	0.00000E+000	3.99999E-001	-6.55718E+000	9	..........a
	521	26.1	4.09268E-001	3.59091E-003	0.00000E+000	4.09998E-001	-6.55718E+000	9	..........a
	522	26.15	4.19268E-001	3.60108E-003	0.00000E+000	4.19997E-001	-6.55718E+000	9	..........a
	523	26.2	4.29268E-001	3.61209E-003	0.00000E+000	4.29996E-001	-6.55718E+000	9	..........a
	524	26.25	4.39268E-001	3.62342E-003	0.00000E+000	4.39994E-001	-6.55718E+000	9	..........a
	525	26.3	4.49268E-001	3.63426E-003	0.00000E+000	4.49993E-001	-6.55718E+000	9	..........a
	526	26.35	4.59268E-001	3.64443E-003	0.00000E+000	4.59992E-001	-6.55718E+000	9	..........a
	527	26.4	4.69268E-001	3.65526E-003	0.00000E+000	4.69991E-001	-6.55718E+000	9	..........a
	528	26.45	4.78868E-001	3.66460E-003	0.00000E+000	4.79989E-001	-6.55718E+000	9	..........a
	529	26.5	4.89068E-001	3.67560E-003	0.00000E+000	4.89988E-001	-6.55718E+000	9	..........a
	530	26.55	4.99268E-001	3.68393E-003	0.00000E+000	4.99987E-001	-6.55718E+000	9	..........a
	531	26.6	5.09068E-001	3.69427E-003	0.00000E+000	5.09986E-001	-6.55718E+000	9	..........a
	532	26.65	5.19068E-001	3.70427E-003	0.00000E+000	5.19984E-001	-6.55718E+000	9	..........a
	533	26.7	5.29068E-001	3.71311E-003	0.00000E+000	5.29983E-001	-6.55718E+000	9	..........a
	534	26.75	5.39268E-001	3.72161E-003	0.00000E+000	5.39982E-001	-6.55718E+000	9	..........a
	535	26.8	5.49268E-001	3.73128E-003	0.00000E+000	5.49981E-001	-6.55718E+000	9	..........a
	536	26.85	5.59068E-001	3.73811E-003	0.00000E+000	5.59979E-001	-6.55718E+000	9	..........a
	537	26.9	5.69068E-001	3.74645E-003	0.00000E+000	5.69978E-001	-6.55718E+000	9	..........a
	538	26.95	5.79068E-001	3.75278E-003	0.00000E+000	5.79977E-001	-6.55718E+000	9	..........a
	539	27	5.89068E-001	3.75962E-003	0.00000E+000	5.89975E-001	-6.55718E+000	9	..........a
	540	27.05	5.99068E-001	3.76645E-003	0.00000E+000	6.00024E-001	-6.55718E+000	9	..........a
	541	27.1	6.09068E-001	3.77362E-003	0.00000E+000	6.10023E-001	-6.55718E+000	9	..........a
	542	27.15	6.19068E-001	3.78029E-003	0.00000E+000	6.20022E-001	-6.55718E+000	9	..........a
	543	27.2	6.29268E-001	3.78295E-003	0.00000E+000	6.30020E-001	-6.55718E+000	9	..........a
	544	27.25	6.39068E-001	3.78829E-003	0.00000E+000	6.40019E-001	-6.55718E+000	9	..........a
	545	27.3	6.49268E-001	3.79179E-003	0.00000E+000	6.50018E-001	-6.55718E+000	9	..........a
	546	27.35	6.59268E-001	3.79696E-003	0.00000E+000	6.60017E-001	-6.55718E+000	9	..........a
	547	27.4	6.69268E-001	3.79896E-003	0.00000E+000	6.70015E-001	-6.55718E+000	9	..........a
	548	27.45	6.79268E-001	3.80296E-003	0.00000E+000	6.80014E-001	-6.55718E+000	9	..........a
	549	27.5	6.88868E-001	3.80463E-003	0.00000E+000	6.90013E-001	-6.55718E+000	9	..........a
	550	27.55	6.99068E-001	3.80696E-003	0.00000E+000	7.00012E-001	-6.55718E+000	9	..........a
	551	27.6	7.09068E-001	3.81096E-003	0.00000E+000	7.10010E-001	-6.55718E+000	9	..........a
	552	27.65	7.19068E-001	3.81463E-003	0.00000E+000	7.20009E-001	-6.55718E+000	9	..........a
	553	27.7	7.29068E-001	3.81496E-003	0.00000E+000	7.30008E-001	-6.55718E+000	9	..........a
	554	27.75	7.39068E-001	3.81646E-003	0.00000E+000	7.40007E-001	-6.55718E+000	9	..........a
	555	27.8	7.49068E-001	3.82113E-003	0.00000E+000	7.50005E-001	-6.55718E+000	9	..........a
	556	27.85	7.59068E-001	3.82413E-003	0.00000E+000	7.60004E-001	-6.55718E+000	9	..........a
	557	27.9	7.69068E-001	3.82663E-003	0.00000E+000	7.70003E-001	-6.55718E+000	9	..........a
	558	27.95	7.78868E-001	3.82946E-003	0.00000E+000	7.80001E-001	-6.55718E+000	9	..........a
	559	28	7.88868E-001	3.83413E-003	0.00000E+000	7.90000E-001	-6.55718E+000	9	..........a
	560	28.05	7.99068E-001	3.83880E-003	0.00000E+000	7.99999E-001	-6.55718E+000	9	..........a
CURVE3	TABLE
	Pt	T	Vf	Im	Vu	Sig	Ach	IERange	Over
	#	s	V vs. Ref.	A	V	V	V	#	bits
	561	28.1	7.89068E-001	3.46889E-003	0.00000E+000	7.90000E-001	-6.55718E+000	9	..........a
	562	28.15	7.79068E-001	3.14049E-003	0.00000E+000	7.80001E-001	-6.55718E+000	9	..........a
	563	28.2	7.69068E-001	2.84226E-003	0.00000E+000	7.70003E-001	-6.55718E+000	9	..........a
	564	28.25	7.58868E-001	2.57120E-003	0.00000E+000	7.60004E-001	-6.55718E+000	9	..........a
	565	28.3	7.49068E-001	2.32181E-003	0.00000E+000	7.50005E-001	-6.55718E+000	9	..........a
	566	28.35	7.39068E-001	2.09277E-003	0.00000E+000	7.40007E-001	-6.55718E+000	9	..........a
	567	28.4	7.29068E-001	1.87989E-003	0.00000E+000	7.30008E-001	-6.55718E+000	9	..........a
	568	28.45	7.19068E-001	1.68151E-003	0.00000E+000	7.20009E-001	-6.55718E+000	9	..........a
	569	28.5	7.09068E-001	1.49664E-003	0.00000E+000	7.10010E-001	-6.55718E+000	9	..........a
	570	28.55	6.99068E-001	1.32377E-003	0.00000E+000	7.00012E-001	-6.55718E+000	9	..........a
	571	28.6	6.89268E-001	1.16074E-003	0.00000E+000	6.90013E-001	-6.55718E+000	9	..........a
	572	28.65	6.79068E-001	1.00904E-003	0.00000E+000	6.80014E-001	-6.55718E+000	9	..........a
	573	28.7	6.69068E-001	8.64675E-004	0.00000E+000	6.70015E-001	-6.55718E+000	9	..........a
	574	28.75	6.59068E-001	7.27647E-004	0.00000E+000	6.60017E-001	-6.55718E+000	9	..........a
	575	28.8	6.49268E-001	5.98286E-004	0.00000E+000	6.50018E-001	-6.55718E+000	9	..........a
	576	28.85	6.39268E-001	4.75260E-004	0.00000E+000	6.40019E-001	-6.55718E+000	9	..........a
	577	28.9	6.29268E-001	3.57402E-004	0.00000E+000	6.30020E-001	-6.55718E+000	9	..........a
	578	28.95	6.19268E-001	2.44276E-004	0.00000E+000	6.20022E-001	-6.55718E+000	8	..........a
	579	29	6.09068E-001	1.37196E-004	0.00000E+000	6.10023E-001	-6.55718E+000	8	..........a
	580	29.05	5.99268E-001	3.45740E-005	0.00000E+000	6.00024E-001	-6.55718E+000	8	..........a
	581	29.1	5.88868E-001	-5.47454E-005	0.00000E+000	5.89975E-001	-6.55718E+000	7	....ih..i.a
	582	29.15	5.79068E-001	-1.59435E-004	0.00000E+000	5.79977E-001	-6.55718E+000	8	..........a
	583	29.2	5.69268E-001	-2.50805E-004	0.00000E+000	5.69978E-001	-6.55718E+000	8	..........a
	584	29.25	5.59068E-001	-3.38786E-004	0.00000E+000	5.59979E-001	-6.55718E+000	8	..........a
	585	29.3	5.49268E-001	-4.23878E-004	0.00000E+000	5.49981E-001	-6.55718E+000	8	..........a
	586	29.35	5.39268E-001	-5.05899E-004	0.00000E+000	5.39982E-001	-6.55718E+000	8	..........a
	587	29.4	5.29268E-001	-5.84796E-004	0.00000E+000	5.29983E-001	-6.55718E+000	9	..........a
	588	29.45	5.19268E-001	-6.61145E-004	0.00000E+000	5.19984E-001	-6.55718E+000	9	..........a
	589	29.5	5.09068E-001	-7.34994E-004	0.00000E+000	5.09986E-001	-6.55718E+000	9	..........a
	590	29.55	4.99268E-001	-8.06342E-004	0.00000E+000	4.99987E-001	-6.55718E+000	9	..........a
	591	29.6	4.89268E-001	-8.75357E-004	0.00000E+000	4.89988E-001	-6.55718E+000	9	..........a
	592	29.65	4.79268E-001	-9.42538E-004	0.00000E+000	4.79989E-001	-6.55718E+000	9	..........a
	593	29.7	4.69268E-001	-1.00772E-003	0.00000E+000	4.69991E-001	-6.55718E+000	9	..........a
	594	29.75	4.59268E-001	-1.07006E-003	0.00000E+000	4.59992E-001	-6.55718E+000	9	..........a
	595	29.8	4.49268E-001	-1.13074E-003	0.00000E+000	4.49993E-001	-6.55718E+000	9	..........a
	596	29.85	4.39268E-001	-1.18976E-003	0.00000E+000	4.39994E-001	-6.55718E+000	9	..........a
	597	29.9	4.29268E-001	-1.24710E-003	0.00000E+000	4.29996E-001	-6.55718E+000	9	..........a
	598	29.95	4.19268E-001	-1.30245E-003	0.00000E+000	4.19997E-001	-6.55718E+000	9	..........a
	599	30	4.09268E-001	-1.35629E-003	0.00000E+000	4.09998E-001	-6.55718E+000	9	..........a
	600	30.05	3.99268E-001	-1.40814E-003	0.00000E+000	3.99999E-001	-6.55718E+000	9	..........a
	601	30.1	3.89268E-001	-1.45865E-003	0.00000E+000	3.90001E-001	-6.55718E+000	9	..........a
	602	30.15	3.79268E-001	-1.50816E-003	0.00000E+000	3.80002E-001	-6.55718E+000	9	..........a
	603	30.2	3.69468E-001	-1.55533E-003	0.00000E+000	3.70003E-001	-6.55718E+000	9	..........a
	604	30.25	3.59268E-001	-1.60251E-003	0.00000E+000	3.60005E-001	-6.55718E+000	9	..........a
	605	30.3	3.49268E-001	-1.64819E-003	0.00000E+000	3.50006E-001	-6.55718E+000	9	..........a
	606	30.35	3.39468E-001	-1.69220E-003	0.00000E+000	3.40007E-001	-6.55718E+000	9	..........a
	607	30.4	3.29468E-001	-1.73570E-003	0.00000E+000	3.30008E-001	-6.55718E+000	9	..........a
	608	30.45	3.19268E-001	-1.77805E-003	0.00000E+000	3.20010E-001	-6.55718E+000	9	..........a
	609	30.5	3.09268E-001	-1.81939E-003	0.00000E+000	3.10011E-001	-6.55718E+000	9	..........a
	610	30.55	2.99468E-001	-1.85856E-003	0.00000E+000	3.00012E-001	-6.55718E+000	9	..........a
	611	30.6	2.89268E-001	-1.89824E-003	0.00000E+000	2.90013E-001	-6.55718E+000	9	..........a
	612	30.65	2.79468E-001	-1.93708E-003	0.00000E+000	2.80015E-001	-6.55718E+000	9	..........a
	613	30.7	2.69268E-001	-1.97492E-003	0.00000E+000	2.70016E-001	-6.55718E+000	9	..........a
	614	30.75	2.59468E-001	-2.01243E-003	0.00000E+000	2.60017E-001	-6.55718E+000	9	..........a
	615	30.8	2.49268E-001	-2.04827E-003	0.00000E+000	2.50018E-001	-6.55718E+000	9	..........a
	616	30.85	2.39268E-001	-2.08478E-003	0.00000E+000	2.40020E-001	-6.55718E+000	9	..........a
	617	30.9	2.29468E-001	-2.11979E-003	0.00000E+000	2.30021E-001	-6.55718E+000	9	..........a
	618	30.95	2.19468E-001	-2.15479E-003	0.00000E+000	2.20022E-001	-6.55718E+000	9	..........a
	619	31	2.09468E-001	-2.18930E-003	0.00000E+000	2.10023E-001	-6.55718E+000	9	..........a
	620	31.05	1.99468E-001	-2.22247E-003	0.00000E+000	2.00025E-001	-6.55718E+000	9	..........a
	621	31.1	1.89268E-001	-2.25431E-003	0.00000E+000	1.90026E-001	-6.55718E+000	9	..........a
	622	31.15	1.79468E-001	-2.28782E-003	0.00000E+000	1.79977E-001	-6.55718E+000	9	..........a
	623	31.2	1.69268E-001	-2.32016E-003	0.00000E+000	1.69979E-001	-6.55718E+000	9	..........a
	624	31.25	1.59468E-001	-2.35167E-003	0.00000E+000	1.59980E-001	-6.55718E+000	9	..........a
	625	31.3	1.49468E-001	-2.38301E-003	0.00000E+000	1.49981E-001	-6.55718E+000	9	..........a
	626	31.35	1.39668E-001	-2.41451E-003	0.00000E+000	1.39982E-001	-6.55718E+000	9	..........a
	627	31.4	1.29468E-001	-2.44385E-003	0.00000E+000	1.29984E-001	-6.55718E+000	9	..........a
	628	31.45	1.19468E-001	-2.47603E-003	0.00000E+000	1.19985E-001	-6.55718E+000	9	..........a
	629	31.5	1.09468E-001	-2.50437E-003	0.00000E+000	1.09986E-001	-6.55718E+000	9	..........a
	630	31.55	9.94678E-002	-2.53404E-003	0.00000E+000	9.99874E-002	-6.55718E+000	9	..........a
	631	31.6	8.94678E-002	-2.56421E-003	0.00000E+000	8.99886E-002	-6.55718E+000	9	..........a
	632	31.65	7.92678E-002	-2.59255E-003	0.00000E+000	7.99899E-002	-6.55718E+000	9	..........a
	633	31.7	6.94678E-002	-2.62172E-003	0.00000E+000	6.99912E-002	-6.55718E+000	9	..........a
	634	31.75	5.94678E-002	-2.64706E-003	0.00000E+000	5.99924E-002	-6.55718E+000	9	..........a
	635	31.8	4.96678E-002	-2.67557E-003	0.00000E+000	4.99937E-002	-6.55718E+000	9	..........a
	636	31.85	3.94678E-002	-2.70257E-003	0.00000E+000	3.99949E-002	-6.55718E+000	9	..........a
	637	31.9	2.96678E-002	-2.72925E-003	0.00000E+000	2.99962E-002	-6.55718E+000	9	..........a
	638	31.95	1.96678E-002	-2.75675E-003	0.00000E+000	1.99975E-002	-6.55718E+000	9	..........a
	639	32	9.46784E-003	-2.78376E-003	0.00000E+000	9.99874E-003	-6.55718E+000	9	..........a
	640	32.05	-5.32160E-004	-2.80976E-003	0.00000E+000	0.00000E+000	-6.55718E+000	9	..........a
	641	32.1	-1.03322E-002	-2.83544E-003	0.00000E+000	-9.99874E-003	-6.55718E+000	9	..........a
	642	32.15	-2.05322E-002	-2.86161E-003	0.00000E+000	-1.99975E-002	-6.55718E+000	9	..........a
	643	32.2	-3.03322E-002	-2.88661E-003	0.00000E+000	-2.99962E-002	-6.55718E+000	9	..........a
	644	32.25	-4.05322E-002	-2.91095E-003	0.00000E+000	-3.99949E-002	-6.55718E+000	9	..........a
	645	32.3	-5.03322E-002	-2.93446E-003	0.00000E+000	-4.99937E-002	-6.55718E+000	9	..........a
	646	32.35	-6.05322E-002	-2.95813E-003	0.00000E+000	-5.99924E-002	-6.55718E+000	9	..........a
	647	32.4	-7.03321E-002	-2.98047E-003	0.00000E+000	-6.99912E-002	-6.55718E+000	9	..........a
	648	32.45	-8.05321E-002	-3.00497E-003	0.00000E+000	-7.99899E-002	-6.55718E+000	9	..........a
	649	32.5	-9.05321E-002	-3.02698E-003	0.00000E+000	-8.99886E-002	-6.55718E+000	9	..........a
	650	32.55	-1.00332E-001	-3.04798E-003	0.00000E+000	-9.99874E-002	-6.55718E+000	9	..........a
	651	32.6	-1.10332E-001	-3.06815E-003	0.00000E+000	-1.09986E-001	-6.55718E+000	9	..........a
	652	32.65	-1.20332E-001	-3.08999E-003	0.00000E+000	-1.19985E-001	-6.55718E+000	9	..........a
	653	32.7	-1.30332E-001	-3.11083E-003	0.00000E+000	-1.29984E-001	-6.55718E+000	9	..........a
	654	32.75	-1.40532E-001	-3.13100E-003	0.00000E+000	-1.39982E-001	-6.55718E+000	9	..........a
	655	32.8	-1.50532E-001	-3.15167E-003	0.00000E+000	-1.49981E-001	-6.55718E+000	9	..........a
	656	32.85	-1.60332E-001	-3.17201E-003	0.00000E+000	-1.59980E-001	-6.55718E+000	9	..........a
	657	32.9	-1.70332E-001	-3.19201E-003	0.00000E+000	-1.69979E-001	-6.55718E+000	9	..........a
	658	32.95	-1.80332E-001	-3.21101E-003	0.00000E+000	-1.79977E-001	-6.55718E+000	9	..........a
	659	33	-1.90132E-001	-3.23035E-003	0.00000E+000	-1.89976E-001	-6.55718E+000	9	..........a
	660	33.05	-2.00332E-001	-3.24802E-003	0.00000E+000	-1.99975E-001	-6.55718E+000	9	..........a
	661	33.1	-2.10332E-001	-3.26619E-003	0.00000E+000	-2.09973E-001	-6.55718E+000	9	..........a
	662	33.15	-2.20332E-001	-3.28486E-003	0.00000E+000	-2.20022E-001	-6.55718E+000	9	..........a
	663	33.2	-2.30332E-001	-3.30320E-003	0.00000E+000	-2.30021E-001	-6.55718E+000	9	..........a
	664	33.25	-2.40332E-001	-3.32187E-003	0.00000E+000	-2.40020E-001	-6.55718E+000	9	..........a
	665	33.3	-2.50532E-001	-3.33871E-003	0.00000E+000	-2.50018E-001	-6.55718E+000	9	..........a
	666	33.35	-2.60132E-001	-3.35755E-003	0.00000E+000	-2.60017E-001	-6.55718E+000	9	..........a
	667	33.4	-2.70332E-001	-3.37588E-003	0.00000E+000	-2.70016E-001	-6.55718E+000	9	..........a
	668	33.45	-2.80332E-001	-3.39305E-003	0.00000E+000	-2.80015E-001	-6.55718E+000	9	..........a
	669	33.5	-2.90332E-001	-3.41039E-003	0.00000E+000	-2.90013E-001	-6.55718E+000	9	..........a
	670	33.55	-3.00332E-001	-3.42806E-003	0.00000E+000	-3.00012E-001	-6.55718E+000	9	..........a
	671	33.6	-3.10132E-001	-3.44540E-003	0.00000E+000	-3.10011E-001	-6.55718E+000	9	..........a
	672	33.65	-3.20532E-001	-3.46307E-003	0.00000E+000	-3.20010E-001	-6.55718E+000	9	..........a
	673	33.7	-3.30332E-001	-3.48074E-003	0.00000E+000	-3.30008E-001	-6.55718E+000	9	..........a
	674	33.75	-3.40332E-001	-3.49641E-003	0.00000E+000	-3.40007E-001	-6.55718E+000	9	..........a
	675	33.8	-3.50132E-001	-3.51391E-003	0.00000E+000	-3.50006E-001	-6.55718E+000	9	..........a
	676	33.85	-3.60132E-001	-3.52825E-003	0.00000E+000	-3.60005E-001	-6.55718E+000	9	..........a
	677	33.9	-3.70332E-001	-3.54525E-003	0.00000E+000	-3.70003E-001	-6.55718E+000	9	..........a
	678	33.95	-3.80332E-001	-3.56275E-003	0.00000E+000	-3.80002E-001	-6.55718E+000	9	..........a
	679	34	-3.90332E-001	-3.57809E-003	0.00000E+000	-3.90001E-001	-6.55718E+000	9	..........a
	680	34.05	-4.00332E-001	-3.59576E-003	0.00000E+000	-3.99999E-001	-6.55718E+000	9	..........a
	681	34.1	-4.10132E-001	-3.61277E-003	0.00000E+000	-4.09998E-001	-6.55718E+000	9	..........a
	682	34.15	-4.20332E-001	-3.62727E-003	0.00000E+000	-4.19997E-001	-6.55718E+000	9	..........a
	683	34.2	-4.30132E-001	-3.64277E-003	0.00000E+000	-4.29996E-001	-6.55718E+000	9	..........a
	684	34.25	-4.40132E-001	-3.65911E-003	0.00000E+000	-4.39994E-001	-6.55718E+000	9	..........a
	685	34.3	-4.50132E-001	-3.67495E-003	0.00000E+000	-4.49993E-001	-6.55718E+000	9	..........a
	686	34.35	-4.60132E-001	-3.68861E-003	0.00000E+000	-4.59992E-001	-6.55718E+000	9	..........a
	687	34.4	-4.70332E-001	-3.70545E-003	0.00000E+000	-4.69991E-001	-6.55718E+000	9	..........a
	688	34.45	-4.80132E-001	-3.71979E-003	0.00000E+000	-4.79989E-001	-6.55718E+000	9	..........a
	689	34.5	-4.89932E-001	-3.73412E-003	0.00000E+000	-4.89988E-001	-6.55718E+000	9	..........a
	690	34.55	-5.00332E-001	-3.74863E-003	0.00000E+000	-4.99987E-001	-6.55718E+000	9	..........a
	691	34.6	-5.10132E-001	-3.76413E-003	0.00000E+000	-5.09986E-001	-6.55718E+000	9	..........a
	692	34.65	-5.20132E-001	-3.77847E-003	0.00000E+000	-5.19984E-001	-6.55718E+000	9	..........a
	693	34.7	-5.30132E-001	-3.79330E-003	0.00000E+000	-5.29983E-001	-6.55718E+000	9	..........a
	694	34.75	-5.40132E-001	-3.80697E-003	0.00000E+000	-5.39982E-001	-6.55718E+000	9	..........a
	695	34.8	-5.50132E-001	-3.81998E-003	0.00000E+000	-5.49981E-001	-6.55718E+000	9	..........a
	696	34.85	-5.60132E-001	-3.83264E-003	0.00000E+000	-5.59979E-001	-6.55718E+000	9	..........a
	697	34.9	-5.69932E-001	-3.84665E-003	0.00000E+000	-5.69978E-001	-6.55718E+000	9	..........a
	698	34.95	-5.79932E-001	-3.85998E-003	0.00000E+000	-5.79977E-001	-6.55718E+000	9	..........a
	699	35	-5.90132E-001	-3.87065E-003	0.00000E+000	-5.89975E-001	-6.55718E+000	9	..........a
	700	35.05	-5.99932E-001	-3.88166E-003	0.00000E+000	-5.99974E-001	-6.55718E+000	9	..........a
	701	35.1	-6.10132E-001	-3.89232E-003	0.00000E+000	-6.09973E-001	-6.55718E+000	9	..........a
	702	35.15	-6.20132E-001	-3.90616E-003	0.00000E+000	-6.20022E-001	-6.55718E+000	9	..........a
	703	35.2	-6.29932E-001	-3.91716E-003	0.00000E+000	-6.30020E-001	-6.55718E+000	9	..........a
	704	35.25	-6.39932E-001	-3.92883E-003	0.00000E+000	-6.40019E-001	-6.55718E+000	9	..........a
	705	35.3	-6.49932E-001	-3.93850E-003	0.00000E+000	-6.50018E-001	-6.55718E+000	9	..........a
	706	35.35	-6.59932E-001	-3.94634E-003	0.00000E+000	-6.60017E-001	-6.55718E+000	9	..........a
	707	35.4	-6.69932E-001	-3.95667E-003	0.00000E+000	-6.70015E-001	-6.55718E+000	9	..........a
	708	35.45	-6.79932E-001	-3.96717E-003	0.00000E+000	-6.80014E-001	-6.55718E+000	9	..........a
	709	35.5	-6.89932E-001	-3.97818E-003	0.00000E+000	-6.90013E-001	-6.55718E+000	9	..........a
	710	35.55	-6.99932E-001	-3.98418E-003	0.00000E+000	-7.00012E-001	-6.55718E+000	9	..........a
	711	35.6	-7.10132E-001	-3.99284E-003	0.00000E+000	-7.10010E-001	-6.55718E+000	9	..........a
	712	35.65	-7.19932E-001	-4.00068E-003	0.00000E+000	-7.20009E-001	-6.55718E+000	9	..........a
	713	35.7	-7.29932E-001	-4.01235E-003	0.00000E+000	-7.30008E-001	-6.55718E+000	9	..........a
	714	35.75	-7.40132E-001	-4.01885E-003	0.00000E+000	-7.40007E-001	-6.55718E+000	9	..........a
	715	35.8	-7.49932E-001	-4.02935E-003	0.00000E+000	-7.50005E-001	-6.55718E+000	9	..........a
	716	35.85	-7.59932E-001	-4.03569E-003	0.00000E+000	-7.60004E-001	-6.55718E+000	9	..........a
	717	35.9	-7.69732E-001	-4.04552E-003	0.00000E+000	-7.70003E-001	-6.55718E+000	9	..........a
	718	35.95	-7.80132E-001	-4.05286E-003	0.00000E+000	-7.80001E-001	-6.55718E+000	9	..........a
	719	36	-7.90132E-001	-4.06103E-003	0.00000E+000	-7.90000E-001	-6.55718E+000	9	..........a
	720	36.05	-7.99932E-001	-4.06986E-003	0.00000E+000	-7.99999E-001	-6.55718E+000	9	..........a
	721	36.1	-7.89932E-001	-3.69162E-003	0.00000E+000	-7.90000E-001	-6.55718E+000	9	..........a
	722	36.15	-7.79932E-001	-3.35404E-003	0.00000E+000	-7.80001E-001	-6.55718E+000	9	..........a
	723	36.2	-7.69932E-001	-3.04731E-003	0.00000E+000	-7.70003E-001	-6.55718E+000	9	..........a
	724	36.25	-7.59932E-001	-2.76709E-003	0.00000E+000	-7.60004E-001	-6.55718E+000	9	..........a
	725	36.3	-7.49932E-001	-2.50987E-003	0.00000E+000	-7.50005E-001	-6.55718E+000	9	..........a
	726	36.35	-7.39932E-001	-2.27048E-003	0.00000E+000	-7.40007E-001	-6.55718E+000	9	..........a
	727	36.4	-7.29932E-001	-2.04844E-003	0.00000E+000	-7.30008E-001	-6.55718E+000	9	..........a
	728	36.45	-7.20132E-001	-1.84039E-003	0.00000E+000	-7.20009E-001	-6.55718E+000	9	..........a
	729	36.5	-7.09932E-001	-1.64619E-003	0.00000E+000	-7.10010E-001	-6.55718E+000	9	..........a
	730	36.55	-7.00132E-001	-1.46465E-003	0.00000E+000	-7.00012E-001	-6.55718E+000	9	..........a
	731	36.6	-6.90132E-001	-1.29161E-003	0.00000E+000	-6.90013E-001	-6.55718E+000	9	..........a
	732	36.65	-6.80132E-001	-1.13091E-003	0.00000E+000	-6.80014E-001	-6.55718E+000	9	..........a
	733	36.7	-6.69732E-001	-9.77212E-004	0.00000E+000	-6.70015E-001	-6.55718E+000	9	..........a
	734	36.75	-6.60132E-001	-8.31514E-004	0.00000E+000	-6.60017E-001	-6.55718E+000	9	..........a
	735	36.8	-6.50132E-001	-6.92819E-004	0.00000E+000	-6.50018E-001	-6.55718E+000	9	..........a
	736	36.85	-6.39932E-001	-5.61624E-004	0.00000E+000	-6.40019E-001	-6.55718E+000	9	..........a
	737	36.9	-6.30132E-001	-4.36098E-004	0.00000E+000	-6.30020E-001	-6.55718E+000	9	..........a
	738	36.95	-6.19932E-001	-3.15739E-004	0.00000E+000	-6.20022E-001	-6.55718E+000	9	..........a
	739	37	-6.10132E-001	-2.01088E-004	0.00000E+000	-6.09973E-001	-6.55718E+000	8	..........a
	740	37.05	-5.99932E-001	-9.04190E-005	0.00000E+000	-5.99974E-001	-6.55718E+000	8	..........a
	741	37.1	-5.90132E-001	1.56089E-005	0.00000E+000	-5.89975E-001	-6.55718E+000	8	..........a
	742	37.15	-5.80132E-001	5.47102E-005	0.00000E+000	-5.79977E-001	-6.55718E+000	7	....ih..i.a
	743	37.2	-5.70132E-001	2.16162E-004	0.00000E+000	-5.69978E-001	-6.55718E+000	8	..........a
	744	37.25	-5.59932E-001	3.10871E-004	0.00000E+000	-5.59979E-001	-6.55718E+000	8	..........a
	745	37.3	-5.50132E-001	4.02959E-004	0.00000E+000	-5.49981E-001	-6.55718E+000	8	..........a
	746	37.35	-5.40132E-001	4.90739E-004	0.00000E+000	-5.39982E-001	-6.55718E+000	8	..........a
	747	37.4	-5.30132E-001	5.77448E-004	0.00000E+000	-5.29983E-001	-6.55718E+000	9	..........a
	748	37.45	-5.19932E-001	6.60466E-004	0.00000E+000	-5.19984E-001	-6.55718E+000	9	..........a
	749	37.5	-5.10332E-001	7.39816E-004	0.00000E+000	-5.09986E-001	-6.55718E+000	9	..........a
	750	37.55	-5.00532E-001	8.17665E-004	0.00000E+000	-4.99987E-001	-6.55718E+000	9	..........a
	751	37.6	-4.90132E-001	8.92514E-004	0.00000E+000	-4.89988E-001	-6.55718E+000	9	..........a
	752	37.65	-4.80132E-001	9.65030E-004	0.00000E+000	-4.79989E-001	-6.55718E+000	9	..........a
	753	37.7	-4.69932E-001	1.03554E-003	0.00000E+000	-4.69991E-001	-6.55718E+000	9	..........a
	754	37.75	-4.60132E-001	1.10273E-003	0.00000E+000	-4.59992E-001	-6.55718E+000	9	..........a
	755	37.8	-4.50132E-001	1.16974E-003	0.00000E+000	-4.49993E-001	-6.55718E+000	9	..........a
	756	37.85	-4.40332E-001	1.23292E-003	0.00000E+000	-4.39994E-001	-6.55718E+000	9	..........a
	757	37.9	-4.30132E-001	1.29510E-003	0.00000E+000	-4.29996E-001	-6.55718E+000	9	..........a
	758	37.95	-4.20332E-001	1.35595E-003	0.00000E+000	-4.19997E-001	-6.55718E+000	9	..........a
	759	38	-4.10132E-001	1.41379E-003	0.00000E+000	-4.09998E-001	-6.55718E+000	9	..........a
	760	38.05	-4.00332E-001	1.46997E-003	0.00000E+000	-3.99999E-001	-6.55718E+000	9	..........a
	761	38.1	-3.90332E-001	1.52548E-003	0.00000E+000	-3.90001E-001	-6.55718E+000	9	..........a
	762	38.15	-3.80132E-001	1.57816E-003	0.00000E+000	-3.80002E-001	-6.55718E+000	9	..........a
	763	38.2	-3.70332E-001	1.63050E-003	0.00000E+000	-3.70003E-001	-6.55718E+000	9	..........a
	764	38.25	-3.60332E-001	1.67985E-003	0.00000E+000	-3.60005E-001	-6.55718E+000	9	..........a
	765	38.3	-3.50332E-001	1.72802E-003	0.00000E+000	-3.50006E-001	-6.55718E+000	9	..........a
	766	38.35	-3.40532E-001	1.77587E-003	0.00000E+000	-3.40007E-001	-6.55718E+000	9	..........a
	767	38.4	-3.30132E-001	1.82321E-003	0.00000E+000	-3.30008E-001	-6.55718E+000	9	..........a
	768	38.45	-3.20332E-001	1.86855E-003	0.00000E+000	-3.20010E-001	-6.55718E+000	9	..........a
	769	38.5	-3.10332E-001	1.91256E-003	0.00000E+000	-3.10011E-001	-6.55718E+000	9	..........a
	770	38.55	-3.00132E-001	1.95574E-003	0.00000E+000	-3.00012E-001	-6.55718E+000	9	..........a
	771	38.6	-2.90332E-001	1.99691E-003	0.00000E+000	-2.90013E-001	-6.55718E+000	9	..........a
	772	38.65	-2.80332E-001	2.03742E-003	0.00000E+000	-2.80015E-001	-6.55718E+000	9	..........a
	773	38.7	-2.70332E-001	2.07760E-003	0.00000E+000	-2.70016E-001	-6.55718E+000	9	..........a
	774	38.75	-2.60332E-001	2.11694E-003	0.00000E+000	-2.60017E-001	-6.55718E+000	9	..........a
	775	38.8	-2.50332E-001	2.15511E-003	0.00000E+000	-2.50018E-001	-6.55718E+000	9	..........a
	776	38.85	-2.40332E-001	2.19112E-003	0.00000E+000	-2.40020E-001	-6.55718E+000	9	..........a
	777	38.9	-2.30332E-001	2.22763E-003	0.00000E+000	-2.30021E-001	-6.55718E+000	9	..........a
	778	38.95	-2.20532E-001	2.26397E-003	0.00000E+000	-2.20022E-001	-6.55718E+000	9	..........a
	779	39	-2.10332E-001	2.29864E-003	0.00000E+000	-2.09973E-001	-6.55718E+000	9	..........a
	780	39.05	-2.00332E-001	2.33265E-003	0.00000E+000	-1.99975E-001	-6.55718E+000	9	..........a
	781	39.1	-1.90332E-001	2.36582E-003	0.00000E+000	-1.89976E-001	-6.55718E+000	9	..........a
	782	39.15	-1.80332E-001	2.39866E-003	0.00000E+000	-1.79977E-001	-6.55718E+000	9	..........a
	783	39.2	-1.70332E-001	2.43200E-003	0.00000E+000	-1.69979E-001	-6.55718E+000	9	..........a
	784	39.25	-1.60332E-001	2.46318E-003	0.00000E+000	-1.59980E-001	-6.55718E+000	9	..........a
	785	39.3	-1.50532E-001	2.49352E-003	0.00000E+000	-1.49981E-001	-6.55718E+000	9	..........a
	786	39.35	-1.40332E-001	2.52569E-003	0.00000E+000	-1.39982E-001	-6.55718E+000	9	..........a
	787	39.4	-1.30332E-001	2.55503E-003	0.00000E+000	-1.29984E-001	-6.55718E+000	9	..........a
	788	39.45	-1.20332E-001	2.58404E-003	0.00000E+000	-1.19985E-001	-6.55718E+000	9	..........a
	789	39.5	-1.10332E-001	2.61221E-003	0.00000E+000	-1.09986E-001	-6.55718E+000	9	..........a
	790	39.55	-1.00332E-001	2.64088E-003	0.00000E+000	-9.99874E-002	-6.55718E+000	9	..........a
	791	39.6	-9.03321E-002	2.67089E-003	0.00000E+000	-8.99886E-002	-6.55718E+000	9	..........a
	792	39.65	-8.05321E-002	2.69889E-003	0.00000E+000	-7.99899E-002	-6.55718E+000	9	..........a
	793	39.7	-7.03321E-002	2.72573E-003	0.00000E+000	-6.99912E-002	-6.55718E+000	9	..........a
	794	39.75	-6.03322E-002	2.75374E-003	0.00000E+000	-5.99924E-002	-6.55718E+000	9	..........a
	795	39.8	-5.03322E-002	2.77958E-003	0.00000E+000	-4.99937E-002	-6.55718E+000	9	..........a
	796	39.85	-4.03322E-002	2.80642E-003	0.00000E+000	-3.99949E-002	-6.55718E+000	9	..........a
	797	39.9	-3.03322E-002	2.83226E-003	0.00000E+000	-2.99962E-002	-6.55718E+000	9	..........a
	798	39.95	-2.03322E-002	2.85693E-003	0.00000E+000	-1.99975E-002	-6.55718E+000	9	..........a
	799	40	-1.03322E-002	2.88027E-003	0.00000E+000	-9.99874E-003	-6.55718E+000	9	..........a
	800	40.05	-5.32160E-004	2.90494E-003	0.00000E+000	0.00000E+000	-6.55718E+000	9	..........a
	801	40.1	9.66784E-003	2.92944E-003	0.00000E+000	9.99874E-003	-6.55718E+000	9	..........a
	802	40.15	1.94678E-002	2.95361E-003	0.00000E+000	1.99975E-002	-6.55718E+000	9	..........a
	803	40.2	2.94678E-002	2.97712E-003	0.00000E+000	2.99962E-002	-6.55718E+000	9	..........a
	804	40.25	3.94678E-002	3.00046E-003	0.00000E+000	3.99949E-002	-6.55718E+000	9	..........a
	805	40.3	4.94678E-002	3.02246E-003	0.00000E+000	4.99937E-002	-6.55718E+000	9	..........a
	806	40.35	5.94678E-002	3.04380E-003	0.00000E+000	5.99924E-002	-6.55718E+000	9	..........a
	807	40.4	6.94678E-002	3.06297E-003	0.00000E+000	6.99912E-002	-6.55718E+000	9	..........a
	808	40.45	7.94678E-002	3.08481E-003	0.00000E+000	7.99899E-002	-6.55718E+000	9	..........a
	809	40.5	8.92678E-002	3.10531E-003	0.00000E+000	8.99886E-002	-6.55718E+000	9	..........a
	810	40.55	9.94678E-002	3.12415E-003	0.00000E+000	9.99874E-002	-6.55718E+000	9	..........a
	811	40.6	1.09468E-001	3.14599E-003	0.00000E+000	1.09986E-001	-6.55718E+000	9	..........a
	812	40.65	1.19468E-001	3.16433E-003	0.00000E+000	1.19985E-001	-6.55718E+000	9	..........a
	813	40.7	1.29468E-001	3.18433E-003	0.00000E+000	1.29984E-001	-6.55718E+000	9	..........a
	814	40.75	1.39468E-001	3.20350E-003	0.00000E+000	1.39982E-001	-6.55718E+000	9	..........a
	815	40.8	1.49268E-001	3.22050E-003	0.00000E+000	1.49981E-001	-6.55718E+000	9	..........a
	816	40.85	1.59468E-001	3.23567E-003	0.00000E+000	1.59980E-001	-6.55718E+000	9	..........a
	817	40.9	1.69468E-001	3.25418E-003	0.00000E+000	1.69979E-001	-6.55718E+000	9	..........a
	818	40.95	1.79468E-001	3.27235E-003	0.00000E+000	1.79977E-001	-6.55718E+000	9	..........a
	819	41	1.89268E-001	3.28935E-003	0.00000E+000	1.90026E-001	-6.55718E+000	9	..........a
	820	41.05	1.99468E-001	3.30419E-003	0.00000E+000	2.00025E-001	-6.55718E+000	9	..........a
	821	41.1	2.09268E-001	3.32086E-003	0.00000E+000	2.10023E-001	-6.55718E+000	9	..........a
	822	41.15	2.19268E-001	3.33569E-003	0.00000E+000	2.20022E-001	-6.55718E+000	9	..........a
	823	41.2	2.29268E-001	3.34853E-003	0.00000E+000	2.30021E-001	-6.55718E+000	9	..........a
	824	41.25	2.39268E-001	3.36403E-003	0.00000E+000	2.40020E-001	-6.55718E+000	9	..........a
	825	41.3	2.49268E-001	3.37837E-003	0.00000E+000	2.50018E-001	-6.55718E+000	9	..........a
	826	41.35	2.59268E-001	3.39204E-003	0.00000E+000	2.60017E-001	-6.55718E+000	9	..........a
	827	41.4	2.69268E-001	3.40504E-003	0.00000E+000	2.70016E-001	-6.55718E+000	9	..........a
	828	41.45	2.79268E-001	3.41871E-003	0.00000E+000	2.80015E-001	-6.55718E+000	9	..........a
	829	41.5	2.89268E-001	3.43271E-003	0.00000E+000	2.90013E-001	-6.55718E+000	9	..........a
	830	41.55	2.99268E-001	3.44372E-003	0.00000E+000	3.00012E-001	-6.55718E+000	9	..........a
	831	41.6	3.09468E-001	3.45655E-003	0.00000E+000	3.10011E-001	-6.55718E+000	9	..........a
	832	41.65	3.19468E-001	3.46889E-003	0.00000E+000	3.20010E-001	-6.55718E+000	9	..........a
	833	41.7	3.29268E-001	3.48206E-003	0.00000E+000	3.30008E-001	-6.55718E+000	9	..........a
	834	41.75	3.39268E-001	3.49273E-003	0.00000E+000	3.40007E-001	-6.55718E+000	9	..........a
	835	41.8	3.49268E-001	3.50640E-003	0.00000E+000	3.50006E-001	-6.55718E+000	9	..........a
	836	41.85	3.59468E-001	3.51707E-003	0.00000E+000	3.60005E-001	-6.55718E+000	9	..........a
	837	41.9	3.69468E-001	3.52924E-003	0.00000E+000	3.70003E-001	-6.55718E+000	9	..........a
	838	41.95	3.79268E-001	3.54124E-003	0.00000E+000	3.80002E-001	-6.55718E+000	9	..........a
	839	42	3.89068E-001	3.55307E-003	0.00000E+000	3.90001E-001	-6.55718E+000	9	..........a
	840	42.05	3.99268E-001	3.56541E-003	0.00000E+000	3.99999E-001	-6.55718E+000	9	..........a
	841	42.1	4.09268E-001	3.57575E-003	0.00000E+000	4.09998E-001	-6.55718E+000	9	..........a
	842	42.15	4.19468E-001	3.58741E-003	0.00000E+000	4.19997E-001	-6.55718E+000	9	..........a
	843	42.2	4.29068E-001	3.59925E-003	0.00000E+000	4.29996E-001	-6.55718E+000	9	..........a
	844	42.25	4.39068E-001	3.61042E-003	0.00000E+000	4.39994E-001	-6.55718E+000	9	..........a
	845	42.3	4.49468E-001	3.62025E-003	0.00000E+000	4.49993E-001	-6.55718E+000	9	..........a
	846	42.35	4.59268E-001	3.63159E-003	0.00000E+000	4.59992E-001	-6.55718E+000	9	..........a
	847	42.4	4.69268E-001	3.64276E-003	0.00000E+000	4.69991E-001	-6.55718E+000	9	..........a
	848	42.45	4.79068E-001	3.65326E-003	0.00000E+000	4.79989E-001	-6.55718E+000	9	..........a
	849	42.5	4.89268E-001	3.66310E-003	0.00000E+000	4.89988E-001	-6.55718E+000	9	..........a
	850	42.55	4.99268E-001	3.67210E-003	0.00000E+000	4.99987E-001	-6.55718E+000	9	..........a
	851	42.6	5.09268E-001	3.68177E-003	0.00000E+000	5.09986E-001	-6.55718E+000	9	..........a
	852	42.65	5.19068E-001	3.68910E-003	0.00000E+000	5.19984E-001	-6.55718E+000	9	..........a
	853	42.7	5.29068E-001	3.69894E-003	0.00000E+000	5.29983E-001	-6.55718E+000	9	..........a
	854	42.75	5.39068E-001	3.70694E-003	0.00000E+000	5.39982E-001	-6.55718E+000	9	..........a
	855	42.8	5.49268E-001	3.71394E-003	0.00000E+000	5.49981E-001	-6.55718E+000	9	..........a
	856	42.85	5.59068E-001	3.72294E-003	0.00000E+000	5.59979E-001	-6.55718E+000	9	..........a
	857	42.9	5.69068E-001	3.72961E-003	0.00000E+000	5.69978E-001	-6.55718E+000	9	..........a
	858	42.95	5.79068E-001	3.73461E-003	0.00000E+000	5.79977E-001	-6.55718E+000	9	..........a
	859	43	5.89068E-001	3.74295E-003	0.00000E+000	5.89975E-001	-6.55718E+000	9	..........a
	860	43.05	5.98868E-001	3.75195E-003	0.00000E+000	6.00024E-001	-6.55718E+000	9	..........a
	861	43.1	6.09068E-001	3.75712E-003	0.00000E+000	6.10023E-001	-6.55718E+000	9	..........a
	862	43.15	6.19068E-001	3.76362E-003	0.00000E+000	6.20022E-001	-6.55718E+000	9	..........a
	863	43.2	6.29068E-001	3.76879E-003	0.00000E+000	6.30020E-001	-6.55718E+000	9	..........a
	864	43.25	6.39068E-001	3.77179E-003	0.00000E+000	6.40019E-001	-6.55718E+000	9	..........a
	865	43.3	6.49068E-001	3.77495E-003	0.00000E+000	6.50018E-001	-6.55718E+000	9	..........a
	866	43.35	6.59068E-001	3.77945E-003	0.00000E+000	6.60017E-001	-6.55718E+000	9	..........a
	867	43.4	6.69268E-001	3.78362E-003	0.00000E+000	6.70015E-001	-6.55718E+000	9	..........a
	868	43.45	6.79268E-001	3.78612E-003	0.00000E+000	6.80014E-001	-6.55718E+000	9	..........a
	869	43.5	6.88868E-001	3.78996E-003	0.00000E+000	6.90013E-001	-6.55718E+000	9	..........a
	870	43.55	6.99068E-001	3.79279E-003	0.00000E+000	7.00012E-001	-6.55718E+000	9	..........a
	871	43.6	7.09068E-001	3.79612E-003	0.00000E+000	7.10010E-001	-6.55718E+000	9	..........a
	872	43.65	7.19268E-001	3.79913E-003	0.00000E+000	7.20009E-001	-6.55718E+000	9	..........a
	873	43.7	7.29068E-001	3.80179E-003	0.00000E+000	7.30008E-001	-6.55718E+000	9	..........a
	874	43.75	7.38868E-001	3.80546E-003	0.00000E+000	7.40007E-001	-6.55718E+000	9	..........a
	875	43.8	7.49068E-001	3.80746E-003	0.00000E+000	7.50005E-001	-6.55718E+000	9	..........a
	876	43.85	7.59068E-001	3.81079E-003	0.00000E+000	7.60004E-001	-6.55718E+000	9	..........a
	877	43.9	7.69068E-001	3.81530E-003	0.00000E+000	7.70003E-001	-6.55718E+000	9	..........a
	878	43.95	7.78868E-001	3.81880E-003	0.00000E+000	7.80001E-001	-6.55718E+000	9	..........a
	879	44	7.89068E-001	3.82513E-003	0.00000E+000	7.90000E-001	-6.55718E+000	9	..........a
	880	44.05	7.99068E-001	3.82780E-003	0.00000E+000	7.99999E-001	-6.55718E+000	9	..........a
CURVE4	TABLE
	Pt	T	Vf	Im	Vu	Sig	Ach	IERange	Over
	#	s	V vs. Ref.	A	V	V	V	#	bits
	881	44.1	7.89068E-001	3.45972E-003	0.00000E+000	7.90000E-001	-6.55718E+000	9	..........a
	882	44.15	7.78868E-001	3.12982E-003	0.00000E+000	7.80001E-001	-6.55718E+000	9	..........a
	883	44.2	7.68868E-001	2.83476E-003	0.00000E+000	7.70003E-001	-6.55718E+000	9	..........a
	884	44.25	7.59268E-001	2.56320E-003	0.00000E+000	7.60004E-001	-6.55718E+000	9	..........a
	885	44.3	7.48868E-001	2.31498E-003	0.00000E+000	7.50005E-001	-6.55718E+000	9	..........a
	886	44.35	7.39068E-001	2.08710E-003	0.00000E+000	7.40007E-001	-6.55718E+000	9	..........a
	887	44.4	7.29068E-001	1.87522E-003	0.00000E+000	7.30008E-001	-6.55718E+000	9	..........a
	888	44.45	7.19068E-001	1.67718E-003	0.00000E+000	7.20009E-001	-6.55718E+000	9	..........a
	889	44.5	7.09068E-001	1.49347E-003	0.00000E+000	7.10010E-001	-6.55718E+000	9	..........a
	890	44.55	6.99068E-001	1.32110E-003	0.00000E+000	7.00012E-001	-6.55718E+000	9	..........a
	891	44.6	6.89068E-001	1.15924E-003	0.00000E+000	6.90013E-001	-6.55718E+000	9	..........a
	892	44.65	6.79068E-001	1.00704E-003	0.00000E+000	6.80014E-001	-6.55718E+000	9	..........a
	893	44.7	6.69068E-001	8.63008E-004	0.00000E+000	6.70015E-001	-6.55718E+000	9	..........a
	894	44.75	6.59068E-001	7.27146E-004	0.00000E+000	6.60017E-001	-6.55718E+000	9	..........a
	895	44.8	6.49068E-001	5.97953E-004	0.00000E+000	6.50018E-001	-6.55718E+000	9	..........a
	896	44.85	6.39268E-001	4.75260E-004	0.00000E+000	6.40019E-001	-6.55718E+000	9	..........a
	897	44.9	6.29268E-001	3.58236E-004	0.00000E+000	6.30020E-001	-6.55718E+000	9	..........a
	898	44.95	6.19268E-001	2.45378E-004	0.00000E+000	6.20022E-001	-6.55718E+000	8	..........a
	899	45	6.09268E-001	1.38782E-004	0.00000E+000	6.10023E-001	-6.55718E+000	8	..........a
	900	45.05	5.99268E-001	3.58595E-005	0.00000E+000	6.00024E-001	-6.55718E+000	8	..........a
	901	45.1	5.89068E-001	-5.47454E-005	0.00000E+000	5.89975E-001	-6.55718E+000	7	....ih..i.a
	902	45.15	5.79068E-001	-1.57398E-004	0.00000E+000	5.79977E-001	-6.55718E+000	8	..........a
	903	45.2	5.69068E-001	-2.48768E-004	0.00000E+000	5.69978E-001	-6.55718E+000	8	..........a
	904	45.25	5.58868E-001	-3.36298E-004	0.00000E+000	5.59979E-001	-6.55718E+000	8	..........a
	905	45.3	5.49068E-001	-4.21090E-004	0.00000E+000	5.49981E-001	-6.55718E+000	8	..........a
	906	45.35	5.39268E-001	-5.02260E-004	0.00000E+000	5.39982E-001	-6.55718E+000	8	..........a
	907	45.4	5.29068E-001	-5.80795E-004	0.00000E+000	5.29983E-001	-6.55718E+000	9	..........a
	908	45.45	5.19268E-001	-6.57478E-004	0.00000E+000	5.19984E-001	-6.55718E+000	9	..........a
	909	45.5	5.09068E-001	-7.30993E-004	0.00000E+000	5.09986E-001	-6.55718E+000	9	..........a
	910	45.55	4.99268E-001	-8.02342E-004	0.00000E+000	4.99987E-001	-6.55718E+000	9	..........a
	911	45.6	4.89268E-001	-8.71523E-004	0.00000E+000	4.89988E-001	-6.55718E+000	9	..........a
	912	45.65	4.79268E-001	-9.38370E-004	0.00000E+000	4.79989E-001	-6.55718E+000	9	..........a
	913	45.7	4.69268E-001	-1.00238E-003	0.00000E+000	4.69991E-001	-6.55718E+000	9	..........a
	914	45.75	4.59268E-001	-1.06556E-003	0.00000E+000	4.59992E-001	-6.55718E+000	9	..........a
	915	45.8	4.49268E-001	-1.12591E-003	0.00000E+000	4.49993E-001	-6.55718E+000	9	..........a
	916	45.85	4.39268E-001	-1.18426E-003	0.00000E+000	4.39994E-001	-6.55718E+000	9	..........a
	917	45.9	4.29268E-001	-1.24143E-003	0.00000E+000	4.29996E-001	-6.55718E+000	9	..........a
	918	45.95	4.19268E-001	-1.29711E-003	0.00000E+000	4.19997E-001	-6.55718E+000	9	..........a
	919	46	4.09268E-001	-1.35129E-003	0.00000E+000	4.09998E-001	-6.55718E+000	9	..........a
	920	46.05	3.99268E-001	-1.40263E-003	0.00000E+000	3.99999E-001	-6.55718E+000	9	..........a
	921	46.1	3.89268E-001	-1.45264E-003	0.00000E+000	3.90001E-001	-6.55718E+000	9	..........a
	922	46.15	3.79468E-001	-1.50182E-003	0.00000E+000	3.80002E-001	-6.55718E+000	9	..........a
	923	46.2	3.69468E-001	-1.55000E-003	0.00000E+000	3.70003E-001	-6.55718E+000	9	..........a
	924	46.25	3.59268E-001	-1.59718E-003	0.00000E+000	3.60005E-001	-6.55718E+000	9	..........a
	925	46.3	3.49268E-001	-1.64135E-003	0.00000E+000	3.50006E-001	-6.55718E+000	9	..........a
	926	46.35	3.39468E-001	-1.68519E-003	0.00000E+000	3.40007E-001	-6.55718E+000	9	..........a
	927	46.4	3.29268E-001	-1.72954E-003	0.00000E+000	3.30008E-001	-6.55718E+000	9	..........a
	928	46.45	3.19268E-001	-1.77088E-003	0.00000E+000	3.20010E-001	-6.55718E+000	9	..........a
	929	46.5	3.09268E-001	-1.81189E-003	0.00000E+000	3.10011E-001	-6.55718E+000	9	..........a
	930	46.55	2.99268E-001	-1.85156E-003	0.00000E+000	3.00012E-001	-6.55718E+000	9	..........a
	931	46.6	2.89468E-001	-1.89090E-003	0.00000E+000	2.90013E-001	-6.55718E+000	9	..........a
	932	46.65	2.79268E-001	-1.92991E-003	0.00000E+000	2.80015E-001	-6.55718E+000	9	..........a
	933	46.7	2.69268E-001	-1.96725E-003	0.00000E+000	2.70016E-001	-6.55718E+000	9	..........a
	934	46.75	2.59468E-001	-2.00343E-003	0.00000E+000	2.60017E-001	-6.55718E+000	9	..........a
	935	46.8	2.49068E-001	-2.03977E-003	0.00000E+000	2.50018E-001	-6.55718E+000	9	..........a
	936	46.85	2.39468E-001	-2.07528E-003	0.00000E+000	2.40020E-001	-6.55718E+000	9	..........a
	937	46.9	2.29468E-001	-2.11062E-003	0.00000E+000	2.30021E-001	-6.55718E+000	9	..........a
	938	46.95	2.19468E-001	-2.14529E-003	0.00000E+000	2.20022E-001	-6.55718E+000	9	..........a
	939	47	2.09468E-001	-2.17830E-003	0.00000E+000	2.10023E-001	-6.55718E+000	9	..........a
	940	47.05	1.99668E-001	-2.21197E-003	0.00000E+000	2.00025E-001	-6.55718E+000	9	..........a
	941	47.1	1.89468E-001	-2.24398E-003	0.00000E+000	1.90026E-001	-6.55718E+000	9	..........a
	942	47.15	1.79468E-001	-2.27665E-003	0.00000E+000	1.79977E-001	-6.55718E+000	9	..........a
	943	47.2	1.69268E-001	-2.30816E-003	0.00000E+000	1.69979E-001	-6.55718E+000	9	..........a
	944	47.25	1.59468E-001	-2.34000E-003	0.00000E+000	1.59980E-001	-6.55718E+000	9	..........a
	945	47.3	1.49268E-001	-2.37117E-003	0.00000E+000	1.49981E-001	-6.55718E+000	9	..........a
	946	47.35	1.39468E-001	-2.40184E-003	0.00000E+000	1.39982E-001	-6.55718E+000	9	..........a
	947	47.4	1.29468E-001	-2.43185E-003	0.00000E+000	1.29984E-001	-6.55718E+000	9	..........a
	948	47.45	1.19468E-001	-2.46202E-003	0.00000E+000	1.19985E-001	-6.55718E+000	9	..........a
	949	47.5	1.09468E-001	-2.49086E-003	0.00000E+000	1.09986E-001	-6.55718E+000	9	..........a
	950	47.55	9.94678E-002	-2.52104E-003	0.00000E+000	9.99874E-002	-6.55718E+000	9	..........a
	951	47.6	8.96678E-002	-2.54871E-003	0.00000E+000	8.99886E-002	-6.55718E+000	9	..........a
	952	47.65	7.94678E-002	-2.57888E-003	0.00000E+000	7.99899E-002	-6.55718E+000	9	..........a
	953	47.7	6.94678E-002	-2.60555E-003	0.00000E+000	6.99912E-002	-6.55718E+000	9	..........a
	954	47.75	5.94678E-002	-2.63523E-003	0.00000E+000	5.99924E-002	-6.55718E+000	9	..........a
	955	47.8	4.94678E-002	-2.66190E-003	0.00000E+000	4.99937E-002	-6.55718E+000	9	..........a
	956	47.85	3.94678E-002	-2.68974E-003	0.00000E+000	3.99949E-002	-6.55718E+000	9	..........a
	957	47.9	2.94678E-002	-2.71624E-003	0.00000E+000	2.99962E-002	-6.55718E+000	9	..........a
	958	47.95	1.94678E-002	-2.74308E-003	0.00000E+000	1.99975E-002	-6.55718E+000	9	..........a
	959	48	9.46784E-003	-2.76909E-003	0.00000E+000	9.99874E-003	-6.55718E+000	9	..........a
	960	48.05	-5.32160E-004	-2.79443E-003	0.00000E+000	0.00000E+000	-6.55718E+000	9	..........a
