EXPLAIN
TAG	CV
TITLE	LABEL	Cyclic Voltammetry	Test Identifier
DATE	LABEL	3-7-2017	Date
TIME	LABEL	14:22:45	Time
NOTES	NOTES	1	Notes...
	0.6mg

PSTAT	PSTAT	IFC5000-01520	Potentiostat
VINIT	POTEN	0.00000E+000	F	Initial E (V)
VLIMIT1	POTEN	0.00000E+000	F	Scan Limit 1 (V)
VLIMIT2	POTEN	6.00000E-001	F	Scan Limit 2 (V)
VFINAL	POTEN	0.00000E+000	F	Final E (V)
SCANRATE	QUANT	2.50000E+001	A Real Number
STEPSIZE	QUANT	1.00000E+001	Step Size (mV)
CYCLES	IQUANT	3	Cycles (#)
IMODE	SELECTOR	0	I/E Range Mode
IRANGE	QUANT	2.50000E+002	Max Current (mA)
AREA	QUANT	3.84800E-001	A Real Number
EQDELAY	QUANT	1.00000E+000	Equil. Time (s)
IRCOMP	SELECTOR	0	IRComp
PFCOR	QUANT	2.50000E+002	PF Corr. (ohm)
SAMPLINGMODE	SELECTOR	0	Sampling Mode
EOC	QUANT	0	Open Circuit (V)
SEQUENCER	TOGGLE	TRUE	Run as Sequence
PSTATMODEL	IQUANT	53	Pstat Model
PSTATSECTION	LABEL	IFC5000-01520	Pstat Section
PSTATSERIALNO	LABEL	01520	Pstat Serial Number
CTRLMODE	IQUANT	1	Control Mode
ELECTROMETER	IQUANT	0	RE=0 or CS=1
IESTAB	IQUANT	2	I/E Stability
CASPEED	IQUANT	4	Control Amp Speed
CONVENTION	IQUANT	1	Current Convention
ICHRANGE	IQUANT	2	Ich Range
ICHRANGEMODE	TOGGLE	F	Ich Auto Range
ICHOFFSETENABLE	TOGGLE	F	Ich Offset Enable
ICHOFFSET	QUANT	0	Ich Offset (V)
ICHFILTER	IQUANT	3	Ich Filter
VCHRANGE	IQUANT	1	Vch Range
VCHRANGEMODE	TOGGLE	F	Vch Auto Range
VCHOFFSETENABLE	TOGGLE	F	Vch Offset Enable
VCHOFFSET	QUANT	0	Vch Offset (V)
VCHFILTER	IQUANT	3	Vch Filter
IERANGELOWERLIMIT	IQUANT	7	I/E Range Lower Limit
IERANGEMODE	TOGGLE	T	I/E AutoRange
IERANGE	IQUANT	11	I/E Range
ACHSELECT	IQUANT	1	Ach Select
ACHRANGE	IQUANT	2	Ach Range
ACHOFFSETENABLE	TOGGLE	F	Ach Offset Enable
ACHOFFSET	QUANT	0	Ach Offset (V)
ACHFILTER	IQUANT	1	Ach Filter
CABLEID	IQUANT	14	Cable ID
DCCALDATE	LABEL	20-10-2016	DC Calibration Date
ACCALDATE	LABEL	12/3/2015	AC Calibration Date
FRAMEWORKVERSION	QUANT	7.01	Framework Version
INSTRUMENTVERSION	LABEL	4.00	Instrument Version
CURVE1	TABLE
	Pt	T	Vf	Im	Vu	Sig	Ach	IERange	Over
	#	s	V vs. Ref.	A	V	V	V	#	bits
	0	0.4	9.15576E-005	2.32657E-004	0.00000E+000	9.53674E-007	-6.55718E+000	11	..........a
	1	0.8	1.00951E-002	2.86986E-004	0.00000E+000	1.00005E-002	-6.55718E+000	10	..........a
	2	1.2	2.00586E-002	3.23562E-004	0.00000E+000	2.00000E-002	-6.55718E+000	9	..........a
	3	1.6	3.00821E-002	3.49185E-004	0.00000E+000	2.99995E-002	-6.55718E+000	8	..........a
	4	2	4.00456E-002	3.69770E-004	0.00000E+000	3.99991E-002	-6.55718E+000	8	..........a
	5	2.4	5.00492E-002	3.86815E-004	0.00000E+000	4.99986E-002	-6.55718E+000	8	..........a
	6	2.8	6.00527E-002	4.01657E-004	0.00000E+000	5.99981E-002	-6.55718E+000	8	..........a
	7	3.2	7.00362E-002	4.14244E-004	0.00000E+000	6.99976E-002	-6.55718E+000	8	..........a
	8	3.6	8.00397E-002	4.26248E-004	0.00000E+000	7.99972E-002	-6.55718E+000	8	..........a
	9	4	9.00232E-002	4.37116E-004	0.00000E+000	8.99967E-002	-6.55718E+000	8	..........a
	10	4.4	1.00047E-001	4.47500E-004	0.00000E+000	9.99962E-002	-6.55718E+000	8	..........a
	11	4.8	1.10030E-001	4.58757E-004	0.00000E+000	1.09996E-001	-6.55718E+000	9	..........a
	12	5.2	1.19994E-001	4.68759E-004	0.00000E+000	1.19995E-001	-6.55718E+000	9	..........a
	13	5.6	1.30017E-001	4.79094E-004	0.00000E+000	1.29995E-001	-6.55718E+000	9	..........a
	14	6	1.40001E-001	4.89430E-004	0.00000E+000	1.39994E-001	-6.55718E+000	9	..........a
	15	6.4	1.50004E-001	4.99098E-004	0.00000E+000	1.49994E-001	-6.55718E+000	9	..........a
	16	6.8	1.59968E-001	5.09601E-004	0.00000E+000	1.60006E-001	-6.55718E+000	9	..........a
	17	7.2	1.69971E-001	5.19936E-004	0.00000E+000	1.70005E-001	-6.55718E+000	9	..........a
	18	7.6	1.79975E-001	5.30438E-004	0.00000E+000	1.80005E-001	-6.55718E+000	9	..........a
	19	8	1.89958E-001	5.41274E-004	0.00000E+000	1.90004E-001	-6.55718E+000	9	..........a
	20	8.4	1.99922E-001	5.51943E-004	0.00000E+000	2.00004E-001	-6.55718E+000	9	..........a
	21	8.8	2.09965E-001	5.62945E-004	0.00000E+000	2.10003E-001	-6.55718E+000	9	..........a
	22	9.2	2.19949E-001	5.73447E-004	0.00000E+000	2.20003E-001	-6.55718E+000	9	..........a
	23	9.6	2.29933E-001	5.84783E-004	0.00000E+000	2.30002E-001	-6.55718E+000	9	..........a
	24	10	2.39896E-001	5.95619E-004	0.00000E+000	2.40002E-001	-6.55718E+000	9	..........a
	25	10.4	2.49920E-001	6.06621E-004	0.00000E+000	2.50002E-001	-6.55718E+000	9	..........a
	26	10.8	2.59903E-001	6.17957E-004	0.00000E+000	2.60001E-001	-6.55718E+000	9	..........a
	27	11.2	2.69887E-001	6.29626E-004	0.00000E+000	2.70001E-001	-6.55718E+000	9	..........a
	28	11.6	2.79910E-001	6.41628E-004	0.00000E+000	2.80000E-001	-6.55718E+000	9	..........a
	29	12	2.89854E-001	6.52297E-004	0.00000E+000	2.90000E-001	-6.55718E+000	9	..........a
	30	12.4	2.99877E-001	6.64133E-004	0.00000E+000	2.99999E-001	-6.55718E+000	9	..........a
	31	12.8	3.09881E-001	6.75469E-004	0.00000E+000	3.09999E-001	-6.55718E+000	9	..........a
	32	13.2	3.19864E-001	6.87305E-004	0.00000E+000	3.19998E-001	-6.55718E+000	9	..........a
	33	13.6	3.29808E-001	6.98807E-004	0.00000E+000	3.29998E-001	-6.55718E+000	9	..........a
	34	14	3.39791E-001	7.09809E-004	0.00000E+000	3.39997E-001	-6.55718E+000	9	..........a
	35	14.4	3.49815E-001	7.21479E-004	0.00000E+000	3.49997E-001	-6.55718E+000	9	..........a
	36	14.8	3.59798E-001	7.33648E-004	0.00000E+000	3.59996E-001	-6.55718E+000	9	..........a
	37	15.2	3.69802E-001	7.45150E-004	0.00000E+000	3.69996E-001	-6.55718E+000	9	..........a
	38	15.6	3.79765E-001	7.57653E-004	0.00000E+000	3.79995E-001	-6.55718E+000	9	..........a
	39	16	3.89749E-001	7.69655E-004	0.00000E+000	3.89995E-001	-6.55718E+000	9	..........a
	40	16.4	3.99772E-001	7.81491E-004	0.00000E+000	3.99994E-001	-6.55718E+000	9	..........a
	41	16.8	4.09756E-001	7.93494E-004	0.00000E+000	4.09994E-001	-6.55718E+000	9	..........a
	42	17.2	4.19759E-001	8.06496E-004	0.00000E+000	4.20006E-001	-6.55718E+000	9	..........a
	43	17.6	4.29763E-001	8.19332E-004	0.00000E+000	4.30005E-001	-6.55718E+000	9	..........a
	44	18	4.39786E-001	8.31835E-004	0.00000E+000	4.40005E-001	-6.55718E+000	9	..........a
	45	18.4	4.49750E-001	8.44838E-004	0.00000E+000	4.50005E-001	-6.55718E+000	9	..........a
	46	18.8	4.59753E-001	8.57340E-004	0.00000E+000	4.60004E-001	-6.55718E+000	9	..........a
	47	19.2	4.69777E-001	8.70843E-004	0.00000E+000	4.70004E-001	-6.55718E+000	9	..........a
	48	19.6	4.79721E-001	8.83679E-004	0.00000E+000	4.80003E-001	-6.55718E+000	9	..........a
	49	20	4.89704E-001	8.98016E-004	0.00000E+000	4.90003E-001	-6.55718E+000	9	..........a
	50	20.4	4.99708E-001	9.11352E-004	0.00000E+000	5.00002E-001	-6.55718E+000	9	..........a
	51	20.8	5.09711E-001	9.25021E-004	0.00000E+000	5.10002E-001	-6.55718E+000	9	..........a
	52	21.2	5.19675E-001	9.40191E-004	0.00000E+000	5.20001E-001	-6.55718E+000	9	..........a
	53	21.6	5.29658E-001	9.54194E-004	0.00000E+000	5.30001E-001	-6.55718E+000	9	..........a
	54	22	5.39682E-001	9.68530E-004	0.00000E+000	5.40000E-001	-6.55718E+000	9	..........a
	55	22.4	5.49685E-001	9.84200E-004	0.00000E+000	5.50000E-001	-6.55718E+000	9	..........a
	56	22.8	5.59649E-001	9.99204E-004	0.00000E+000	5.59999E-001	-6.55718E+000	9	..........a
	57	23.2	5.69652E-001	1.01437E-003	0.00000E+000	5.69999E-001	-6.55718E+000	9	..........a
	58	23.6	5.79616E-001	1.02971E-003	0.00000E+000	5.79998E-001	-6.55718E+000	9	..........a
	59	24	5.89659E-001	1.04588E-003	0.00000E+000	5.89998E-001	-6.55718E+000	9	..........a
	60	24.4	5.99623E-001	1.06138E-003	0.00000E+000	5.99997E-001	-6.55718E+000	9	..........a
	61	24.8	5.89619E-001	7.90826E-004	0.00000E+000	5.89998E-001	-6.55718E+000	9	..........a
	62	25.2	5.79636E-001	5.88951E-004	0.00000E+000	5.79998E-001	-6.55718E+000	9	..........a
	63	25.6	5.69652E-001	4.29917E-004	0.00000E+000	5.69999E-001	-6.55718E+000	9	..........a
	64	26	5.59649E-001	3.01224E-004	0.00000E+000	5.59999E-001	-6.55718E+000	9	..........a
	65	26.4	5.49625E-001	1.94860E-004	0.00000E+000	5.50000E-001	-6.55718E+000	8	..........a
	66	26.8	5.39662E-001	1.06678E-004	0.00000E+000	5.40000E-001	-6.55718E+000	8	..........a
	67	27.2	5.29698E-001	3.21867E-005	0.00000E+000	5.30001E-001	-6.55718E+000	8	..........a
	68	27.6	5.19695E-001	-3.11089E-005	0.00000E+000	5.20001E-001	-6.55718E+000	7	..........a
	69	28	5.09691E-001	-5.47454E-005	0.00000E+000	5.10002E-001	-6.55718E+000	7	....ih..i.a
	70	28.4	4.99688E-001	-1.30520E-004	0.00000E+000	5.00002E-001	-6.55718E+000	8	..........a
	71	28.8	4.89704E-001	-1.70119E-004	0.00000E+000	4.90003E-001	-6.55718E+000	8	..........a
	72	29.2	4.79761E-001	-2.04460E-004	0.00000E+000	4.80003E-001	-6.55718E+000	8	..........a
	73	29.6	4.69717E-001	-2.34127E-004	0.00000E+000	4.70004E-001	-6.55718E+000	8	..........a
	74	30	4.59774E-001	-2.59937E-004	0.00000E+000	4.60004E-001	-6.55718E+000	8	..........a
	75	30.4	4.49750E-001	-2.82758E-004	0.00000E+000	4.50005E-001	-6.55718E+000	8	..........a
	76	30.8	4.39786E-001	-3.03360E-004	0.00000E+000	4.40005E-001	-6.55718E+000	8	..........a
	77	31.2	4.29783E-001	-3.20822E-004	0.00000E+000	4.30005E-001	-6.55718E+000	8	..........a
	78	31.6	4.19779E-001	-3.36782E-004	0.00000E+000	4.20006E-001	-6.55718E+000	8	..........a
	79	32	4.09776E-001	-3.51757E-004	0.00000E+000	4.09994E-001	-6.55718E+000	8	..........a
	80	32.4	3.99772E-001	-3.64679E-004	0.00000E+000	3.99994E-001	-6.55718E+000	8	..........a
	81	32.8	3.89769E-001	-3.76566E-004	0.00000E+000	3.89995E-001	-6.55718E+000	8	..........a
	82	33.2	3.79785E-001	-3.87384E-004	0.00000E+000	3.79995E-001	-6.55718E+000	8	..........a
	83	33.6	3.69822E-001	-3.98052E-004	0.00000E+000	3.69996E-001	-6.55718E+000	8	..........a
	84	34	3.59798E-001	-4.07150E-004	0.00000E+000	3.59996E-001	-6.55718E+000	8	..........a
	85	34.4	3.49835E-001	-4.16149E-004	0.00000E+000	3.49997E-001	-6.55718E+000	8	..........a
	86	34.8	3.39831E-001	-4.24363E-004	0.00000E+000	3.39997E-001	-6.55718E+000	8	..........a
	87	35.2	3.29848E-001	-4.32293E-004	0.00000E+000	3.29998E-001	-6.55718E+000	8	..........a
	88	35.6	3.19844E-001	-4.39238E-004	0.00000E+000	3.19998E-001	-6.55718E+000	8	..........a
	89	36	3.09881E-001	-4.46416E-004	0.00000E+000	3.09999E-001	-6.55718E+000	8	..........a
	90	36.4	2.99897E-001	-4.52601E-004	0.00000E+000	2.99999E-001	-6.55718E+000	9	..........a
	91	36.8	2.89874E-001	-4.58269E-004	0.00000E+000	2.90000E-001	-6.55718E+000	9	..........a
	92	37.2	2.79870E-001	-4.64271E-004	0.00000E+000	2.80000E-001	-6.55718E+000	9	..........a
	93	37.6	2.69907E-001	-4.69938E-004	0.00000E+000	2.70001E-001	-6.55718E+000	9	..........a
	94	38	2.59903E-001	-4.75440E-004	0.00000E+000	2.60001E-001	-6.55718E+000	9	..........a
	95	38.4	2.49940E-001	-4.81107E-004	0.00000E+000	2.50002E-001	-6.55718E+000	9	..........a
	96	38.8	2.39896E-001	-4.85942E-004	0.00000E+000	2.40002E-001	-6.55718E+000	9	..........a
	97	39.2	2.29933E-001	-4.90609E-004	0.00000E+000	2.30002E-001	-6.55718E+000	9	..........a
	98	39.6	2.19929E-001	-4.94944E-004	0.00000E+000	2.20003E-001	-6.55718E+000	9	..........a
	99	40	2.09945E-001	-4.99445E-004	0.00000E+000	2.10003E-001	-6.55718E+000	9	..........a
	100	40.4	1.99962E-001	-5.03612E-004	0.00000E+000	2.00004E-001	-6.55718E+000	9	..........a
	101	40.8	1.89998E-001	-5.07280E-004	0.00000E+000	1.90004E-001	-6.55718E+000	9	..........a
	102	41.2	1.79975E-001	-5.11280E-004	0.00000E+000	1.80005E-001	-6.55718E+000	9	..........a
	103	41.6	1.69971E-001	-5.15115E-004	0.00000E+000	1.70005E-001	-6.55718E+000	9	..........a
	104	42	1.60008E-001	-5.18949E-004	0.00000E+000	1.60006E-001	-6.55718E+000	9	..........a
	105	42.4	1.49984E-001	-5.22116E-004	0.00000E+000	1.49994E-001	-6.55718E+000	9	..........a
	106	42.8	1.40001E-001	-5.25117E-004	0.00000E+000	1.39994E-001	-6.55718E+000	9	..........a
	107	43.2	1.30017E-001	-5.27784E-004	0.00000E+000	1.29995E-001	-6.55718E+000	9	..........a
	108	43.6	1.19994E-001	-5.30618E-004	0.00000E+000	1.19995E-001	-6.55718E+000	9	..........a
	109	44	1.10010E-001	-5.33285E-004	0.00000E+000	1.09996E-001	-6.55718E+000	9	..........a
	110	44.4	1.00027E-001	-5.36119E-004	0.00000E+000	9.99962E-002	-6.55718E+000	9	..........a
	111	44.8	9.00432E-002	-5.38453E-004	0.00000E+000	8.99967E-002	-6.55718E+000	9	..........a
	112	45.2	8.00597E-002	-5.40787E-004	0.00000E+000	7.99972E-002	-6.55718E+000	9	..........a
	113	45.6	7.00362E-002	-5.43287E-004	0.00000E+000	6.99976E-002	-6.55718E+000	9	..........a
	114	46	6.00327E-002	-5.44954E-004	0.00000E+000	5.99981E-002	-6.55718E+000	9	..........a
	115	46.4	5.00291E-002	-5.47621E-004	0.00000E+000	4.99986E-002	-6.55718E+000	9	..........a
	116	46.8	4.00456E-002	-5.48955E-004	0.00000E+000	3.99991E-002	-6.55718E+000	9	..........a
	117	47.2	3.00821E-002	-5.51622E-004	0.00000E+000	2.99995E-002	-6.55718E+000	9	..........a
	118	47.6	2.00986E-002	-5.53123E-004	0.00000E+000	2.00000E-002	-6.55718E+000	9	..........a
	119	48	1.00951E-002	-5.55290E-004	0.00000E+000	1.00005E-002	-6.55718E+000	9	..........a
	120	48.4	9.15576E-005	-5.57624E-004	0.00000E+000	9.53674E-007	-6.55718E+000	9	..........a
CURVE2	TABLE
	Pt	T	Vf	Im	Vu	Sig	Ach	IERange	Over
	#	s	V vs. Ref.	A	V	V	V	#	bits
	121	48.8	1.00551E-002	-3.14406E-004	0.00000E+000	1.00005E-002	-6.55718E+000	9	..........a
	122	49.2	2.00586E-002	-1.40804E-004	0.00000E+000	2.00000E-002	-6.55718E+000	8	..........a
	123	49.6	3.01021E-002	-1.12528E-005	0.00000E+000	2.99995E-002	-6.55718E+000	8	..........a
	124	50	4.00456E-002	5.47102E-005	0.00000E+000	3.99991E-002	-6.55718E+000	7	....ih..i.a
	125	50.4	5.00492E-002	1.63357E-004	0.00000E+000	4.99986E-002	-6.55718E+000	8	..........a
	126	50.8	6.00527E-002	2.22740E-004	0.00000E+000	5.99981E-002	-6.55718E+000	8	..........a
	127	51.2	7.00562E-002	2.69652E-004	0.00000E+000	6.99976E-002	-6.55718E+000	8	..........a
	128	51.6	8.00397E-002	3.06981E-004	0.00000E+000	7.99972E-002	-6.55718E+000	8	..........a
	129	52	9.00232E-002	3.37065E-004	0.00000E+000	8.99967E-002	-6.55718E+000	8	..........a
	130	52.4	1.00027E-001	3.61890E-004	0.00000E+000	9.99962E-002	-6.55718E+000	8	..........a
	131	52.8	1.10010E-001	3.82140E-004	0.00000E+000	1.09996E-001	-6.55718E+000	8	..........a
	132	53.2	1.20014E-001	3.98902E-004	0.00000E+000	1.19995E-001	-6.55718E+000	8	..........a
	133	53.6	1.30017E-001	4.13293E-004	0.00000E+000	1.29995E-001	-6.55718E+000	8	..........a
	134	54	1.39941E-001	4.25630E-004	0.00000E+000	1.39994E-001	-6.55718E+000	8	..........a
	135	54.4	1.49984E-001	4.36482E-004	0.00000E+000	1.49994E-001	-6.55718E+000	8	..........a
	136	54.8	1.59968E-001	4.46298E-004	0.00000E+000	1.60006E-001	-6.55718E+000	8	..........a
	137	55.2	1.69991E-001	4.55756E-004	0.00000E+000	1.70005E-001	-6.55718E+000	9	..........a
	138	55.6	1.79975E-001	4.63424E-004	0.00000E+000	1.80005E-001	-6.55718E+000	9	..........a
	139	56	1.89958E-001	4.70759E-004	0.00000E+000	1.90004E-001	-6.55718E+000	9	..........a
	140	56.4	1.99922E-001	4.76594E-004	0.00000E+000	2.00004E-001	-6.55718E+000	9	..........a
	141	56.8	2.09945E-001	4.83095E-004	0.00000E+000	2.10003E-001	-6.55718E+000	9	..........a
	142	57.2	2.19949E-001	4.88430E-004	0.00000E+000	2.20003E-001	-6.55718E+000	9	..........a
	143	57.6	2.29913E-001	4.94264E-004	0.00000E+000	2.30002E-001	-6.55718E+000	9	..........a
	144	58	2.39896E-001	4.99599E-004	0.00000E+000	2.40002E-001	-6.55718E+000	9	..........a
	145	58.4	2.49920E-001	5.04266E-004	0.00000E+000	2.50002E-001	-6.55718E+000	9	..........a
	146	58.8	2.59883E-001	5.09267E-004	0.00000E+000	2.60001E-001	-6.55718E+000	9	..........a
	147	59.2	2.69887E-001	5.13935E-004	0.00000E+000	2.70001E-001	-6.55718E+000	9	..........a
	148	59.6	2.79890E-001	5.18603E-004	0.00000E+000	2.80000E-001	-6.55718E+000	9	..........a
	149	60	2.89854E-001	5.22770E-004	0.00000E+000	2.90000E-001	-6.55718E+000	9	..........a
	150	60.4	2.99897E-001	5.26771E-004	0.00000E+000	2.99999E-001	-6.55718E+000	9	..........a
	151	60.8	3.09841E-001	5.30939E-004	0.00000E+000	3.09999E-001	-6.55718E+000	9	..........a
	152	61.2	3.19844E-001	5.34939E-004	0.00000E+000	3.19998E-001	-6.55718E+000	9	..........a
	153	61.6	3.29808E-001	5.39107E-004	0.00000E+000	3.29998E-001	-6.55718E+000	9	..........a
	154	62	3.39851E-001	5.43108E-004	0.00000E+000	3.39997E-001	-6.55718E+000	9	..........a
	155	62.4	3.49815E-001	5.46942E-004	0.00000E+000	3.49997E-001	-6.55718E+000	9	..........a
	156	62.8	3.59778E-001	5.50443E-004	0.00000E+000	3.59996E-001	-6.55718E+000	9	..........a
	157	63.2	3.69782E-001	5.54443E-004	0.00000E+000	3.69996E-001	-6.55718E+000	9	..........a
	158	63.6	3.79765E-001	5.58278E-004	0.00000E+000	3.79995E-001	-6.55718E+000	9	..........a
	159	64	3.89749E-001	5.62278E-004	0.00000E+000	3.89995E-001	-6.55718E+000	9	..........a
	160	64.4	3.99772E-001	5.66113E-004	0.00000E+000	3.99994E-001	-6.55718E+000	9	..........a
	161	64.8	4.09756E-001	5.70447E-004	0.00000E+000	4.09994E-001	-6.55718E+000	9	..........a
	162	65.2	4.19779E-001	5.74614E-004	0.00000E+000	4.20006E-001	-6.55718E+000	9	..........a
	163	65.6	4.29743E-001	5.78949E-004	0.00000E+000	4.30005E-001	-6.55718E+000	9	..........a
	164	66	4.39706E-001	5.83950E-004	0.00000E+000	4.40005E-001	-6.55718E+000	9	..........a
	165	66.4	4.49750E-001	5.88951E-004	0.00000E+000	4.50005E-001	-6.55718E+000	9	..........a
	166	66.8	4.59733E-001	5.94118E-004	0.00000E+000	4.60004E-001	-6.55718E+000	9	..........a
	167	67.2	4.69737E-001	6.00286E-004	0.00000E+000	4.70004E-001	-6.55718E+000	9	..........a
	168	67.6	4.79701E-001	6.06788E-004	0.00000E+000	4.80003E-001	-6.55718E+000	9	..........a
	169	68	4.89724E-001	6.13623E-004	0.00000E+000	4.90003E-001	-6.55718E+000	9	..........a
	170	68.4	4.99728E-001	6.21457E-004	0.00000E+000	5.00002E-001	-6.55718E+000	9	..........a
	171	68.8	5.09691E-001	6.30459E-004	0.00000E+000	5.10002E-001	-6.55718E+000	9	..........a
	172	69.2	5.19715E-001	6.39795E-004	0.00000E+000	5.20001E-001	-6.55718E+000	9	..........a
	173	69.6	5.29698E-001	6.50130E-004	0.00000E+000	5.30001E-001	-6.55718E+000	9	..........a
	174	70	5.39682E-001	6.62633E-004	0.00000E+000	5.40000E-001	-6.55718E+000	9	..........a
	175	70.4	5.49625E-001	6.75802E-004	0.00000E+000	5.50000E-001	-6.55718E+000	9	..........a
	176	70.8	5.59629E-001	6.90639E-004	0.00000E+000	5.59999E-001	-6.55718E+000	9	..........a
	177	71.2	5.69612E-001	7.07642E-004	0.00000E+000	5.69999E-001	-6.55718E+000	9	..........a
	178	71.6	5.79636E-001	7.25313E-004	0.00000E+000	5.79998E-001	-6.55718E+000	9	..........a
	179	72	5.89639E-001	7.45317E-004	0.00000E+000	5.89998E-001	-6.55718E+000	9	..........a
	180	72.4	5.99623E-001	7.66821E-004	0.00000E+000	5.99997E-001	-6.55718E+000	9	..........a
	181	72.8	5.89639E-001	5.09767E-004	0.00000E+000	5.89998E-001	-6.55718E+000	9	..........a
	182	73.2	5.79636E-001	3.28729E-004	0.00000E+000	5.79998E-001	-6.55718E+000	9	..........a
	183	73.6	5.69652E-001	1.92723E-004	0.00000E+000	5.69999E-001	-6.55718E+000	8	..........a
	184	74	5.59609E-001	8.77299E-005	0.00000E+000	5.59999E-001	-6.55718E+000	8	..........a
	185	74.4	5.49645E-001	4.94099E-006	0.00000E+000	5.50000E-001	-6.55718E+000	8	..........a
	186	74.8	5.39682E-001	-5.47454E-005	0.00000E+000	5.40000E-001	-6.55718E+000	7	....ih..i.a
	187	75.2	5.29678E-001	-1.16496E-004	0.00000E+000	5.30001E-001	-6.55718E+000	8	..........a
	188	75.6	5.19695E-001	-1.61972E-004	0.00000E+000	5.20001E-001	-6.55718E+000	8	..........a
	189	76	5.09671E-001	-1.99285E-004	0.00000E+000	5.10002E-001	-6.55718E+000	8	..........a
	190	76.4	4.99668E-001	-2.31172E-004	0.00000E+000	5.00002E-001	-6.55718E+000	8	..........a
	191	76.8	4.89744E-001	-2.57883E-004	0.00000E+000	4.90003E-001	-6.55718E+000	8	..........a
	192	77.2	4.79721E-001	-2.81222E-004	0.00000E+000	4.80003E-001	-6.55718E+000	8	..........a
	193	77.6	4.69717E-001	-3.00889E-004	0.00000E+000	4.70004E-001	-6.55718E+000	8	..........a
	194	78	4.59753E-001	-3.18602E-004	0.00000E+000	4.60004E-001	-6.55718E+000	8	..........a
	195	78.4	4.49730E-001	-3.33894E-004	0.00000E+000	4.50005E-001	-6.55718E+000	8	..........a
	196	78.8	4.39746E-001	-3.47433E-004	0.00000E+000	4.40005E-001	-6.55718E+000	8	..........a
	197	79.2	4.29763E-001	-3.59303E-004	0.00000E+000	4.30005E-001	-6.55718E+000	8	..........a
	198	79.6	4.19799E-001	-3.70138E-004	0.00000E+000	4.20006E-001	-6.55718E+000	8	..........a
	199	80	4.09776E-001	-3.80188E-004	0.00000E+000	4.09994E-001	-6.55718E+000	8	..........a
	200	80.4	3.99752E-001	-3.89371E-004	0.00000E+000	3.99994E-001	-6.55718E+000	8	..........a
	201	80.8	3.89789E-001	-3.97735E-004	0.00000E+000	3.89995E-001	-6.55718E+000	8	..........a
	202	81.2	3.79805E-001	-4.05848E-004	0.00000E+000	3.79995E-001	-6.55718E+000	8	..........a
	203	81.6	3.69802E-001	-4.13311E-004	0.00000E+000	3.69996E-001	-6.55718E+000	8	..........a
	204	82	3.59838E-001	-4.20206E-004	0.00000E+000	3.59996E-001	-6.55718E+000	8	..........a
	205	82.4	3.49835E-001	-4.26716E-004	0.00000E+000	3.49997E-001	-6.55718E+000	8	..........a
	206	82.8	3.39811E-001	-4.33611E-004	0.00000E+000	3.39997E-001	-6.55718E+000	8	..........a
	207	83.2	3.29828E-001	-4.39438E-004	0.00000E+000	3.29998E-001	-6.55718E+000	8	..........a
	208	83.6	3.19844E-001	-4.45181E-004	0.00000E+000	3.19998E-001	-6.55718E+000	8	..........a
	209	84	3.09861E-001	-4.50934E-004	0.00000E+000	3.09999E-001	-6.55718E+000	9	..........a
	210	84.4	2.99877E-001	-4.56269E-004	0.00000E+000	2.99999E-001	-6.55718E+000	9	..........a
	211	84.8	2.89854E-001	-4.61603E-004	0.00000E+000	2.90000E-001	-6.55718E+000	9	..........a
	212	85.2	2.79870E-001	-4.66604E-004	0.00000E+000	2.80000E-001	-6.55718E+000	9	..........a
	213	85.6	2.69887E-001	-4.71772E-004	0.00000E+000	2.70001E-001	-6.55718E+000	9	..........a
	214	86	2.59923E-001	-4.76106E-004	0.00000E+000	2.60001E-001	-6.55718E+000	9	..........a
	215	86.4	2.49900E-001	-4.80607E-004	0.00000E+000	2.50002E-001	-6.55718E+000	9	..........a
	216	86.8	2.39896E-001	-4.85275E-004	0.00000E+000	2.40002E-001	-6.55718E+000	9	..........a
	217	87.2	2.29953E-001	-4.89609E-004	0.00000E+000	2.30002E-001	-6.55718E+000	9	..........a
	218	87.6	2.19909E-001	-4.93777E-004	0.00000E+000	2.20003E-001	-6.55718E+000	9	..........a
	219	88	2.09945E-001	-4.97944E-004	0.00000E+000	2.10003E-001	-6.55718E+000	9	..........a
	220	88.4	1.99942E-001	-5.01778E-004	0.00000E+000	2.00004E-001	-6.55718E+000	9	..........a
	221	88.8	1.89978E-001	-5.05446E-004	0.00000E+000	1.90004E-001	-6.55718E+000	9	..........a
	222	89.2	1.79995E-001	-5.08947E-004	0.00000E+000	1.80005E-001	-6.55718E+000	9	..........a
	223	89.6	1.69971E-001	-5.12947E-004	0.00000E+000	1.70005E-001	-6.55718E+000	9	..........a
	224	90	1.60008E-001	-5.16282E-004	0.00000E+000	1.60006E-001	-6.55718E+000	9	..........a
	225	90.4	1.49984E-001	-5.19949E-004	0.00000E+000	1.49994E-001	-6.55718E+000	9	..........a
	226	90.8	1.40021E-001	-5.22950E-004	0.00000E+000	1.39994E-001	-6.55718E+000	9	..........a
	227	91.2	1.29997E-001	-5.25950E-004	0.00000E+000	1.29995E-001	-6.55718E+000	9	..........a
	228	91.6	1.19994E-001	-5.28951E-004	0.00000E+000	1.19995E-001	-6.55718E+000	9	..........a
	229	92	1.10030E-001	-5.31618E-004	0.00000E+000	1.09996E-001	-6.55718E+000	9	..........a
	230	92.4	9.99867E-002	-5.34619E-004	0.00000E+000	9.99962E-002	-6.55718E+000	9	..........a
	231	92.8	9.00232E-002	-5.37786E-004	0.00000E+000	8.99967E-002	-6.55718E+000	9	..........a
	232	93.2	8.00797E-002	-5.40287E-004	0.00000E+000	7.99972E-002	-6.55718E+000	9	..........a
	233	93.6	7.00362E-002	-5.43120E-004	0.00000E+000	6.99976E-002	-6.55718E+000	9	..........a
	234	94	6.00727E-002	-5.44954E-004	0.00000E+000	5.99981E-002	-6.55718E+000	9	..........a
	235	94.4	5.00692E-002	-5.48122E-004	0.00000E+000	4.99986E-002	-6.55718E+000	9	..........a
	236	94.8	4.00456E-002	-5.50622E-004	0.00000E+000	3.99991E-002	-6.55718E+000	9	..........a
	237	95.2	3.00821E-002	-5.53623E-004	0.00000E+000	2.99995E-002	-6.55718E+000	9	..........a
	238	95.6	2.00586E-002	-5.56457E-004	0.00000E+000	2.00000E-002	-6.55718E+000	9	..........a
	239	96	1.00951E-002	-5.59624E-004	0.00000E+000	1.00005E-002	-6.55718E+000	9	..........a
	240	96.4	1.11565E-004	-5.62625E-004	0.00000E+000	9.53674E-007	-6.55718E+000	9	..........a
CURVE3	TABLE
	Pt	T	Vf	Im	Vu	Sig	Ach	IERange	Over
	#	s	V vs. Ref.	A	V	V	V	#	bits
	241	96.8	1.01151E-002	-3.15906E-004	0.00000E+000	1.00005E-002	-6.55718E+000	9	..........a
	242	97.2	2.00986E-002	-1.40202E-004	0.00000E+000	2.00000E-002	-6.55718E+000	8	..........a
	243	97.6	3.00821E-002	-9.41643E-006	0.00000E+000	2.99995E-002	-6.55718E+000	8	..........a
	244	98	4.00656E-002	5.47102E-005	0.00000E+000	3.99991E-002	-6.55718E+000	7	....ih..i.a
	245	98.4	5.00091E-002	1.65828E-004	0.00000E+000	4.99986E-002	-6.55718E+000	8	..........a
	246	98.8	6.00327E-002	2.25177E-004	0.00000E+000	5.99981E-002	-6.55718E+000	8	..........a
	247	99.2	7.00362E-002	2.72006E-004	0.00000E+000	6.99976E-002	-6.55718E+000	8	..........a
	248	99.6	8.00197E-002	3.09335E-004	0.00000E+000	7.99972E-002	-6.55718E+000	8	..........a
	249	100	9.00232E-002	3.38734E-004	0.00000E+000	8.99967E-002	-6.55718E+000	8	..........a
	250	100.4	9.99867E-002	3.62958E-004	0.00000E+000	9.99962E-002	-6.55718E+000	8	..........a
	251	100.8	1.10010E-001	3.82691E-004	0.00000E+000	1.09996E-001	-6.55718E+000	8	..........a
	252	101.2	1.19974E-001	3.99369E-004	0.00000E+000	1.19995E-001	-6.55718E+000	8	..........a
	253	101.6	1.30017E-001	4.13510E-004	0.00000E+000	1.29995E-001	-6.55718E+000	8	..........a
	254	102	1.40041E-001	4.25029E-004	0.00000E+000	1.39994E-001	-6.55718E+000	8	..........a
	255	102.4	1.49984E-001	4.35263E-004	0.00000E+000	1.49994E-001	-6.55718E+000	8	..........a
	256	102.8	1.59988E-001	4.44495E-004	0.00000E+000	1.60006E-001	-6.55718E+000	8	..........a
	257	103.2	1.69991E-001	4.53256E-004	0.00000E+000	1.70005E-001	-6.55718E+000	9	..........a
	258	103.6	1.79975E-001	4.60090E-004	0.00000E+000	1.80005E-001	-6.55718E+000	9	..........a
	259	104	1.89978E-001	4.66592E-004	0.00000E+000	1.90004E-001	-6.55718E+000	9	..........a
	260	104.4	1.99942E-001	4.72593E-004	0.00000E+000	2.00004E-001	-6.55718E+000	9	..........a
	261	104.8	2.09945E-001	4.77594E-004	0.00000E+000	2.10003E-001	-6.55718E+000	9	..........a
	262	105.2	2.19929E-001	4.83095E-004	0.00000E+000	2.20003E-001	-6.55718E+000	9	..........a
	263	105.6	2.29933E-001	4.87596E-004	0.00000E+000	2.30002E-001	-6.55718E+000	9	..........a
	264	106	2.39916E-001	4.92597E-004	0.00000E+000	2.40002E-001	-6.55718E+000	9	..........a
	265	106.4	2.49940E-001	4.96765E-004	0.00000E+000	2.50002E-001	-6.55718E+000	9	..........a
	266	106.8	2.59883E-001	5.00932E-004	0.00000E+000	2.60001E-001	-6.55718E+000	9	..........a
	267	107.2	2.69907E-001	5.04766E-004	0.00000E+000	2.70001E-001	-6.55718E+000	9	..........a
	268	107.6	2.79890E-001	5.08100E-004	0.00000E+000	2.80000E-001	-6.55718E+000	9	..........a
	269	108	2.89854E-001	5.11934E-004	0.00000E+000	2.90000E-001	-6.55718E+000	9	..........a
	270	108.4	2.99837E-001	5.15102E-004	0.00000E+000	2.99999E-001	-6.55718E+000	9	..........a
	271	108.8	3.09881E-001	5.18769E-004	0.00000E+000	3.09999E-001	-6.55718E+000	9	..........a
	272	109.2	3.19804E-001	5.21436E-004	0.00000E+000	3.19998E-001	-6.55718E+000	9	..........a
	273	109.6	3.29828E-001	5.24604E-004	0.00000E+000	3.29998E-001	-6.55718E+000	9	..........a
	274	110	3.39791E-001	5.27271E-004	0.00000E+000	3.39997E-001	-6.55718E+000	9	..........a
	275	110.4	3.49835E-001	5.30105E-004	0.00000E+000	3.49997E-001	-6.55718E+000	9	..........a
	276	110.8	3.59778E-001	5.33272E-004	0.00000E+000	3.59996E-001	-6.55718E+000	9	..........a
	277	111.2	3.69782E-001	5.35606E-004	0.00000E+000	3.69996E-001	-6.55718E+000	9	..........a
	278	111.6	3.79765E-001	5.38440E-004	0.00000E+000	3.79995E-001	-6.55718E+000	9	..........a
	279	112	3.89789E-001	5.40774E-004	0.00000E+000	3.89995E-001	-6.55718E+000	9	..........a
	280	112.4	3.99792E-001	5.43274E-004	0.00000E+000	3.99994E-001	-6.55718E+000	9	..........a
	281	112.8	4.09756E-001	5.46275E-004	0.00000E+000	4.09994E-001	-6.55718E+000	9	..........a
	282	113.2	4.19759E-001	5.49109E-004	0.00000E+000	4.20006E-001	-6.55718E+000	9	..........a
	283	113.6	4.29783E-001	5.52110E-004	0.00000E+000	4.30005E-001	-6.55718E+000	9	..........a
	284	114	4.39746E-001	5.55110E-004	0.00000E+000	4.40005E-001	-6.55718E+000	9	..........a
	285	114.4	4.49690E-001	5.58111E-004	0.00000E+000	4.50005E-001	-6.55718E+000	9	..........a
	286	114.8	4.59753E-001	5.61612E-004	0.00000E+000	4.60004E-001	-6.55718E+000	9	..........a
	287	115.2	4.69717E-001	5.65446E-004	0.00000E+000	4.70004E-001	-6.55718E+000	9	..........a
	288	115.6	4.79721E-001	5.69613E-004	0.00000E+000	4.80003E-001	-6.55718E+000	9	..........a
	289	116	4.89724E-001	5.74281E-004	0.00000E+000	4.90003E-001	-6.55718E+000	9	..........a
	290	116.4	4.99728E-001	5.79282E-004	0.00000E+000	5.00002E-001	-6.55718E+000	9	..........a
	291	116.8	5.09691E-001	5.85283E-004	0.00000E+000	5.10002E-001	-6.55718E+000	9	..........a
	292	117.2	5.19655E-001	5.91618E-004	0.00000E+000	5.20001E-001	-6.55718E+000	9	..........a
	293	117.6	5.29658E-001	5.99120E-004	0.00000E+000	5.30001E-001	-6.55718E+000	9	..........a
	294	118	5.39662E-001	6.07955E-004	0.00000E+000	5.40000E-001	-6.55718E+000	9	..........a
	295	118.4	5.49665E-001	6.17290E-004	0.00000E+000	5.50000E-001	-6.55718E+000	9	..........a
	296	118.8	5.59669E-001	6.28626E-004	0.00000E+000	5.59999E-001	-6.55718E+000	9	..........a
	297	119.2	5.69672E-001	6.40795E-004	0.00000E+000	5.69999E-001	-6.55718E+000	9	..........a
	298	119.6	5.79616E-001	6.55131E-004	0.00000E+000	5.79998E-001	-6.55718E+000	9	..........a
	299	120	5.89659E-001	6.70635E-004	0.00000E+000	5.89998E-001	-6.55718E+000	9	..........a
	300	120.4	5.99603E-001	6.88305E-004	0.00000E+000	5.99997E-001	-6.55718E+000	9	..........a
	301	120.8	5.89599E-001	4.31251E-004	0.00000E+000	5.89998E-001	-6.55718E+000	9	..........a
	302	121.2	5.79616E-001	2.52880E-004	0.00000E+000	5.79998E-001	-6.55718E+000	9	..........a
	303	121.6	5.69652E-001	1.21603E-004	0.00000E+000	5.69999E-001	-6.55718E+000	8	..........a
	304	122	5.59649E-001	2.31382E-005	0.00000E+000	5.59999E-001	-6.55718E+000	8	..........a
	305	122.4	5.49665E-001	-5.34243E-005	0.00000E+000	5.50000E-001	-6.55718E+000	7	....ih....a
	306	122.8	5.39682E-001	-1.13975E-004	0.00000E+000	5.40000E-001	-6.55718E+000	8	..........a
	307	123.2	5.29698E-001	-1.62807E-004	0.00000E+000	5.30001E-001	-6.55718E+000	8	..........a
	308	123.6	5.19695E-001	-2.02073E-004	0.00000E+000	5.20001E-001	-6.55718E+000	8	..........a
	309	124	5.09731E-001	-2.34427E-004	0.00000E+000	5.10002E-001	-6.55718E+000	8	..........a
	310	124.4	4.99708E-001	-2.61823E-004	0.00000E+000	5.00002E-001	-6.55718E+000	8	..........a
	311	124.8	4.89724E-001	-2.84778E-004	0.00000E+000	4.90003E-001	-6.55718E+000	8	..........a
	312	125.2	4.79721E-001	-3.04111E-004	0.00000E+000	4.80003E-001	-6.55718E+000	8	..........a
	313	125.6	4.69717E-001	-3.20672E-004	0.00000E+000	4.70004E-001	-6.55718E+000	8	..........a
	314	126	4.59713E-001	-3.35113E-004	0.00000E+000	4.60004E-001	-6.55718E+000	8	..........a
	315	126.4	4.49750E-001	-3.47817E-004	0.00000E+000	4.50005E-001	-6.55718E+000	8	..........a
	316	126.8	4.39766E-001	-3.59120E-004	0.00000E+000	4.40005E-001	-6.55718E+000	8	..........a
	317	127.2	4.29763E-001	-3.69270E-004	0.00000E+000	4.30005E-001	-6.55718E+000	8	..........a
	318	127.6	4.19779E-001	-3.78552E-004	0.00000E+000	4.20006E-001	-6.55718E+000	8	..........a
	319	128	4.09796E-001	-3.87133E-004	0.00000E+000	4.09994E-001	-6.55718E+000	8	..........a
	320	128.4	3.99772E-001	-3.94763E-004	0.00000E+000	3.99994E-001	-6.55718E+000	8	..........a
	321	128.8	3.89769E-001	-4.02459E-004	0.00000E+000	3.89995E-001	-6.55718E+000	8	..........a
	322	129.2	3.79785E-001	-4.09321E-004	0.00000E+000	3.79995E-001	-6.55718E+000	8	..........a
	323	129.6	3.69802E-001	-4.15798E-004	0.00000E+000	3.69996E-001	-6.55718E+000	8	..........a
	324	130	3.59798E-001	-4.22309E-004	0.00000E+000	3.59996E-001	-6.55718E+000	8	..........a
	325	130.4	3.49835E-001	-4.28085E-004	0.00000E+000	3.49997E-001	-6.55718E+000	8	..........a
	326	130.8	3.39831E-001	-4.33879E-004	0.00000E+000	3.39997E-001	-6.55718E+000	8	..........a
	327	131.2	3.29828E-001	-4.39788E-004	0.00000E+000	3.29998E-001	-6.55718E+000	8	..........a
	328	131.6	3.19844E-001	-4.44647E-004	0.00000E+000	3.19998E-001	-6.55718E+000	8	..........a
	329	132	3.09861E-001	-4.49922E-004	0.00000E+000	3.09999E-001	-6.55718E+000	8	..........a
	330	132.4	2.99877E-001	-4.55435E-004	0.00000E+000	2.99999E-001	-6.55718E+000	9	..........a
	331	132.8	2.89894E-001	-4.59770E-004	0.00000E+000	2.90000E-001	-6.55718E+000	9	..........a
	332	133.2	2.79870E-001	-4.64437E-004	0.00000E+000	2.80000E-001	-6.55718E+000	9	..........a
	333	133.6	2.69887E-001	-4.69438E-004	0.00000E+000	2.70001E-001	-6.55718E+000	9	..........a
	334	134	2.59863E-001	-4.73939E-004	0.00000E+000	2.60001E-001	-6.55718E+000	9	..........a
	335	134.4	2.49900E-001	-4.78274E-004	0.00000E+000	2.50002E-001	-6.55718E+000	9	..........a
	336	134.8	2.39896E-001	-4.82774E-004	0.00000E+000	2.40002E-001	-6.55718E+000	9	..........a
	337	135.2	2.29933E-001	-4.86775E-004	0.00000E+000	2.30002E-001	-6.55718E+000	9	..........a
	338	135.6	2.19929E-001	-4.91276E-004	0.00000E+000	2.20003E-001	-6.55718E+000	9	..........a
	339	136	2.09945E-001	-4.95110E-004	0.00000E+000	2.10003E-001	-6.55718E+000	9	..........a
	340	136.4	1.99962E-001	-4.98778E-004	0.00000E+000	2.00004E-001	-6.55718E+000	9	..........a
	341	136.8	1.89978E-001	-5.02612E-004	0.00000E+000	1.90004E-001	-6.55718E+000	9	..........a
	342	137.2	1.79975E-001	-5.06279E-004	0.00000E+000	1.80005E-001	-6.55718E+000	9	..........a
	343	137.6	1.70011E-001	-5.09447E-004	0.00000E+000	1.70005E-001	-6.55718E+000	9	..........a
	344	138	1.59988E-001	-5.13114E-004	0.00000E+000	1.60006E-001	-6.55718E+000	9	..........a
	345	138.4	1.49984E-001	-5.16948E-004	0.00000E+000	1.49994E-001	-6.55718E+000	9	..........a
	346	138.8	1.40001E-001	-5.19782E-004	0.00000E+000	1.39994E-001	-6.55718E+000	9	..........a
	347	139.2	1.30017E-001	-5.22950E-004	0.00000E+000	1.29995E-001	-6.55718E+000	9	..........a
	348	139.6	1.20014E-001	-5.26284E-004	0.00000E+000	1.19995E-001	-6.55718E+000	9	..........a
	349	140	1.10010E-001	-5.29284E-004	0.00000E+000	1.09996E-001	-6.55718E+000	9	..........a
	350	140.4	1.00047E-001	-5.31618E-004	0.00000E+000	9.99962E-002	-6.55718E+000	9	..........a
	351	140.8	9.00633E-002	-5.34619E-004	0.00000E+000	8.99967E-002	-6.55718E+000	9	..........a
	352	141.2	8.00197E-002	-5.37286E-004	0.00000E+000	7.99972E-002	-6.55718E+000	9	..........a
	353	141.6	7.00362E-002	-5.40287E-004	0.00000E+000	6.99976E-002	-6.55718E+000	9	..........a
	354	142	6.00527E-002	-5.43287E-004	0.00000E+000	5.99981E-002	-6.55718E+000	9	..........a
	355	142.4	5.00692E-002	-5.46288E-004	0.00000E+000	4.99986E-002	-6.55718E+000	9	..........a
	356	142.8	4.00456E-002	-5.49288E-004	0.00000E+000	3.99991E-002	-6.55718E+000	9	..........a
	357	143.2	3.00821E-002	-5.52122E-004	0.00000E+000	2.99995E-002	-6.55718E+000	9	..........a
	358	143.6	2.00986E-002	-5.55456E-004	0.00000E+000	2.00000E-002	-6.55718E+000	9	..........a
	359	144	1.01151E-002	-5.58624E-004	0.00000E+000	1.00005E-002	-6.55718E+000	9	..........a
	360	144.4	9.15576E-005	-5.62291E-004	0.00000E+000	9.53674E-007	-6.55718E+000	9	..........a
