EXPLAIN
TAG	CV
TITLE	LABEL	Cyclic Voltammetry	Test Identifier
DATE	LABEL	13-7-2017	Date
TIME	LABEL	16:24:14	Time
NOTES	NOTES	1	Notes...
	
PSTAT	PSTAT	IFC5000-01520	Potentiostat
VINIT	POTEN	0.00000E+000	F	Initial E (V)
VLIMIT1	POTEN	-8.00000E-001	F	Scan Limit 1 (V)
VLIMIT2	POTEN	8.00000E-001	F	Scan Limit 2 (V)
VFINAL	POTEN	0.00000E+000	F	Final E (V)
SCANRATE	QUANT	9.99998E+001	A Real Number
STEPSIZE	QUANT	1.00000E+001	Step Size (mV)
CYCLES	IQUANT	3	Cycles (#)
IMODE	SELECTOR	0	I/E Range Mode
IRANGE	QUANT	2.50000E+002	Max Current (mA)
AREA	QUANT	3.84800E-001	A Real Number
EQDELAY	QUANT	1.00000E+000	Equil. Time (s)
IRCOMP	SELECTOR	0	IRComp
PFCOR	QUANT	2.50000E+002	PF Corr. (ohm)
SAMPLINGMODE	SELECTOR	0	Sampling Mode
EOC	QUANT	0	Open Circuit (V)
SEQUENCER	TOGGLE	TRUE	Run as Sequence
PSTATMODEL	IQUANT	53	Pstat Model
PSTATSECTION	LABEL	IFC5000-01520	Pstat Section
PSTATSERIALNO	LABEL	01520	Pstat Serial Number
CTRLMODE	IQUANT	1	Control Mode
ELECTROMETER	IQUANT	0	RE=0 or CS=1
IESTAB	IQUANT	2	I/E Stability
CASPEED	IQUANT	4	Control Amp Speed
CONVENTION	IQUANT	1	Current Convention
ICHRANGE	IQUANT	2	Ich Range
ICHRANGEMODE	TOGGLE	F	Ich Auto Range
ICHOFFSETENABLE	TOGGLE	F	Ich Offset Enable
ICHOFFSET	QUANT	0	Ich Offset (V)
ICHFILTER	IQUANT	4	Ich Filter
VCHRANGE	IQUANT	2	Vch Range
VCHRANGEMODE	TOGGLE	F	Vch Auto Range
VCHOFFSETENABLE	TOGGLE	F	Vch Offset Enable
VCHOFFSET	QUANT	0	Vch Offset (V)
VCHFILTER	IQUANT	4	Vch Filter
IERANGELOWERLIMIT	IQUANT	7	I/E Range Lower Limit
IERANGEMODE	TOGGLE	T	I/E AutoRange
IERANGE	IQUANT	11	I/E Range
ACHSELECT	IQUANT	1	Ach Select
ACHRANGE	IQUANT	2	Ach Range
ACHOFFSETENABLE	TOGGLE	F	Ach Offset Enable
ACHOFFSET	QUANT	0	Ach Offset (V)
ACHFILTER	IQUANT	1	Ach Filter
CABLEID	IQUANT	14	Cable ID
DCCALDATE	LABEL	5-7-2017	DC Calibration Date
ACCALDATE	LABEL	12/3/2015	AC Calibration Date
FRAMEWORKVERSION	QUANT	7.01	Framework Version
INSTRUMENTVERSION	LABEL	4.00	Instrument Version
CURVE1	TABLE
	Pt	T	Vf	Im	Vu	Sig	Ach	IERange	Over
	#	s	V vs. Ref.	A	V	V	V	#	bits
	0	0.1	-4.06489E-004	-1.13893E-005	0.00000E+000	0.00000E+000	-7.33871E-004	11	...........
	1	0.2	-1.00067E-002	-6.14741E-006	0.00000E+000	-9.99874E-003	-1.07376E-002	10	...........
	2	0.3	-2.00069E-002	-6.11530E-006	0.00000E+000	-1.99975E-002	-2.05412E-002	9	...........
	3	0.4	-3.00072E-002	-6.13846E-006	0.00000E+000	-2.99962E-002	-3.03448E-002	8	...........
	4	0.5	-4.00074E-002	-5.56295E-006	0.00000E+000	-3.99949E-002	-4.03485E-002	7	...........
	5	0.6	-5.02076E-002	-5.93708E-006	0.00000E+000	-4.99937E-002	-5.03522E-002	7	...........
	6	0.7	-6.02079E-002	-6.13584E-006	0.00000E+000	-5.99924E-002	-6.03559E-002	7	...........
	7	0.8	-7.00081E-002	-6.40140E-006	0.00000E+000	-6.99912E-002	-7.03596E-002	7	...........
	8	0.9	-8.00083E-002	-6.65193E-006	0.00000E+000	-7.99899E-002	-8.05634E-002	7	...........
	9	1	-9.02085E-002	-6.89745E-006	0.00000E+000	-8.99886E-002	-9.05671E-002	7	...........
	10	1.1	-1.00209E-001	-7.14464E-006	0.00000E+000	-9.99874E-002	-1.00371E-001	7	...........
	11	1.2	-1.10009E-001	-7.38516E-006	0.00000E+000	-1.09986E-001	-1.10374E-001	7	...........
	12	1.3	-1.20009E-001	-7.63569E-006	0.00000E+000	-1.19985E-001	-1.20378E-001	7	...........
	13	1.4	-1.30009E-001	-7.88789E-006	0.00000E+000	-1.29984E-001	-1.30382E-001	7	...........
	14	1.5	-1.40010E-001	-8.14176E-006	0.00000E+000	-1.39982E-001	-1.40385E-001	7	...........
	15	1.6	-1.50010E-001	-8.40566E-006	0.00000E+000	-1.49981E-001	-1.50189E-001	7	...........
	16	1.7	-1.60210E-001	-8.67957E-006	0.00000E+000	-1.59980E-001	-1.60593E-001	7	...........
	17	1.8	-1.70010E-001	-8.96017E-006	0.00000E+000	-1.69979E-001	-1.70397E-001	7	...........
	18	1.9	-1.80011E-001	-9.25914E-006	0.00000E+000	-1.79977E-001	-1.80400E-001	7	...........
	19	2	-1.89811E-001	-9.55810E-006	0.00000E+000	-1.89976E-001	-1.90404E-001	7	...........
	20	2.1	-2.00211E-001	-9.87879E-006	0.00000E+000	-1.99975E-001	-2.00208E-001	7	...........
	21	2.2	-2.10011E-001	-1.02178E-005	0.00000E+000	-2.10023E-001	-2.10211E-001	7	...........
	22	2.3	-2.20011E-001	-1.05569E-005	0.00000E+000	-2.20022E-001	-2.20215E-001	7	...........
	23	2.4	-2.30012E-001	-1.09160E-005	0.00000E+000	-2.30021E-001	-2.30219E-001	7	...........
	24	2.5	-2.40212E-001	-1.12851E-005	0.00000E+000	-2.40020E-001	-2.40422E-001	7	...........
	25	2.6	-2.50012E-001	-1.16743E-005	0.00000E+000	-2.50018E-001	-2.50426E-001	7	...........
	26	2.7	-2.60212E-001	-1.20751E-005	0.00000E+000	-2.60017E-001	-2.60030E-001	7	...........
	27	2.8	-2.70013E-001	-1.24843E-005	0.00000E+000	-2.70016E-001	-2.70233E-001	7	...........
	28	2.9	-2.80013E-001	-1.29152E-005	0.00000E+000	-2.80015E-001	-2.80437E-001	7	...........
	29	3	-2.90013E-001	-1.33478E-005	0.00000E+000	-2.90013E-001	-2.90241E-001	7	...........
	30	3.1	-3.00013E-001	-1.37971E-005	0.00000E+000	-3.00012E-001	-3.00245E-001	7	...........
	31	3.2	-3.10014E-001	-1.42598E-005	0.00000E+000	-3.10011E-001	-3.10448E-001	7	...........
	32	3.3	-3.20014E-001	-1.47291E-005	0.00000E+000	-3.20010E-001	-3.20452E-001	7	...........
	33	3.4	-3.30014E-001	-1.52101E-005	0.00000E+000	-3.30008E-001	-3.30256E-001	7	...........
	34	3.5	-3.40014E-001	-1.56928E-005	0.00000E+000	-3.40007E-001	-3.40259E-001	7	...........
	35	3.6	-3.50014E-001	-1.61922E-005	0.00000E+000	-3.50006E-001	-3.50263E-001	7	...........
	36	3.7	-3.60015E-001	-1.67016E-005	0.00000E+000	-3.60005E-001	-3.60067E-001	7	...........
	37	3.8	-3.70015E-001	-1.72094E-005	0.00000E+000	-3.70003E-001	-3.70270E-001	7	...........
	38	3.9	-3.79815E-001	-1.77371E-005	0.00000E+000	-3.80002E-001	-3.80274E-001	7	...........
	39	4	-3.90015E-001	-1.82633E-005	0.00000E+000	-3.90001E-001	-3.90478E-001	7	...........
	40	4.1	-4.00016E-001	-1.88011E-005	0.00000E+000	-3.99999E-001	-4.00282E-001	7	...........
	41	4.2	-4.09816E-001	-1.93456E-005	0.00000E+000	-4.09998E-001	-4.10285E-001	7	...........
	42	4.3	-4.19616E-001	-1.98967E-005	0.00000E+000	-4.19997E-001	-4.20089E-001	7	...........
	43	4.4	-4.29816E-001	-2.04562E-005	0.00000E+000	-4.29996E-001	-4.30293E-001	7	...........
	44	4.5	-4.39817E-001	-2.10241E-005	0.00000E+000	-4.39994E-001	-4.40296E-001	7	...........
	45	4.6	-4.49817E-001	-2.16003E-005	0.00000E+000	-4.49993E-001	-4.50100E-001	7	...........
	46	4.7	-4.59817E-001	-2.21933E-005	0.00000E+000	-4.59992E-001	-4.60104E-001	7	...........
	47	4.8	-4.69817E-001	-2.27829E-005	0.00000E+000	-4.69991E-001	-4.70107E-001	7	...........
	48	4.9	-4.79817E-001	-2.33992E-005	0.00000E+000	-4.79989E-001	-4.80111E-001	7	...........
	49	5	-4.89818E-001	-2.40171E-005	0.00000E+000	-4.89988E-001	-4.90115E-001	7	...........
	50	5.1	-4.99818E-001	-2.46485E-005	0.00000E+000	-4.99987E-001	-5.00118E-001	7	...........
	51	5.2	-5.09818E-001	-2.53032E-005	0.00000E+000	-5.09986E-001	-5.09922E-001	7	...........
	52	5.3	-5.19818E-001	-2.59579E-005	0.00000E+000	-5.19984E-001	-5.19926E-001	7	...........
	53	5.4	-5.29819E-001	-2.66410E-005	0.00000E+000	-5.29983E-001	-5.30130E-001	7	...........
	54	5.5	-5.39819E-001	-2.73409E-005	0.00000E+000	-5.39982E-001	-5.39933E-001	7	...........
	55	5.6	-5.49819E-001	-2.80540E-005	0.00000E+000	-5.49981E-001	-5.50137E-001	7	...........
	56	5.7	-5.59819E-001	-2.87973E-005	0.00000E+000	-5.59979E-001	-5.59941E-001	7	...........
	57	5.8	-5.69619E-001	-2.95522E-005	0.00000E+000	-5.69978E-001	-5.69944E-001	7	...........
	58	5.9	-5.79620E-001	-3.03372E-005	0.00000E+000	-5.79977E-001	-5.80148E-001	7	...........
	59	6	-5.90020E-001	-3.11573E-005	0.00000E+000	-5.89975E-001	-5.90152E-001	7	...........
	60	6.1	-5.99620E-001	-3.19891E-005	0.00000E+000	-5.99974E-001	-5.99955E-001	7	...........
	61	6.2	-6.09820E-001	-3.28910E-005	0.00000E+000	-6.10023E-001	-6.10159E-001	7	...........
	62	6.3	-6.19821E-001	-3.37678E-005	0.00000E+000	-6.20022E-001	-6.20163E-001	7	...........
	63	6.4	-6.30021E-001	-3.47048E-005	0.00000E+000	-6.30020E-001	-6.30167E-001	7	...........
	64	6.5	-6.39621E-001	-3.56719E-005	0.00000E+000	-6.40019E-001	-6.39970E-001	7	...........
	65	6.6	-6.50021E-001	-3.66724E-005	0.00000E+000	-6.50018E-001	-6.50174E-001	7	...........
	66	6.7	-6.59622E-001	-3.77263E-005	0.00000E+000	-6.60017E-001	-6.59978E-001	7	...........
	67	6.8	-6.69622E-001	-3.88136E-005	0.00000E+000	-6.70015E-001	-6.69981E-001	7	...........
	68	6.9	-6.79622E-001	-3.99476E-005	0.00000E+000	-6.80014E-001	-6.79985E-001	7	...........
	69	7	-6.89822E-001	-4.11385E-005	0.00000E+000	-6.90013E-001	-6.89989E-001	7	...........
	70	7.1	-6.99822E-001	-4.23628E-005	0.00000E+000	-7.00012E-001	-6.99992E-001	7	...........
	71	7.2	-7.09623E-001	-4.36555E-005	0.00000E+000	-7.10010E-001	-7.09796E-001	7	...........
	72	7.3	-7.19623E-001	-4.50017E-005	0.00000E+000	-7.20009E-001	-7.20000E-001	7	...........
	73	7.4	-7.29623E-001	-5.73085E-005	0.00000E+000	-7.30008E-001	-7.30003E-001	8	...........
	74	7.5	-7.39623E-001	-4.32013E-005	0.00000E+000	-7.40007E-001	-7.39807E-001	8	...........
	75	7.6	-7.49624E-001	-5.16155E-005	0.00000E+000	-7.50005E-001	-7.50011E-001	8	...........
	76	7.7	-7.59624E-001	-5.25838E-005	0.00000E+000	-7.60004E-001	-7.60015E-001	8	...........
	77	7.8	-7.69624E-001	-5.42867E-005	0.00000E+000	-7.70003E-001	-7.69818E-001	8	...........
	78	7.9	-7.79624E-001	-5.60898E-005	0.00000E+000	-7.80001E-001	-7.79822E-001	8	...........
	79	8	-7.89624E-001	-5.79763E-005	0.00000E+000	-7.90000E-001	-7.89825E-001	8	...........
	80	8.1	-7.99625E-001	-5.99296E-005	0.00000E+000	-7.99999E-001	-7.99829E-001	8	...........
	81	8.2	-7.90424E-001	-3.80926E-005	0.00000E+000	-7.90000E-001	-7.90026E-001	8	...........
	82	8.3	-7.79824E-001	-3.15732E-005	0.00000E+000	-7.80001E-001	-7.80022E-001	7	...........
	83	8.4	-7.70024E-001	-2.86486E-005	0.00000E+000	-7.70003E-001	-7.69818E-001	7	...........
	84	8.5	-7.60024E-001	-2.41274E-005	0.00000E+000	-7.60004E-001	-7.60015E-001	7	...........
	85	8.6	-7.50224E-001	-2.10842E-005	0.00000E+000	-7.50005E-001	-7.49811E-001	7	...........
	86	8.7	-7.40223E-001	-1.85021E-005	0.00000E+000	-7.40007E-001	-7.40007E-001	7	...........
	87	8.8	-7.30223E-001	-1.62941E-005	0.00000E+000	-7.30008E-001	-7.30003E-001	7	...........
	88	8.9	-7.20023E-001	-1.44001E-005	0.00000E+000	-7.20009E-001	-7.20000E-001	7	...........
	89	9	-7.10223E-001	-1.27449E-005	0.00000E+000	-7.10010E-001	-7.09996E-001	7	...........
	90	9.1	-7.00222E-001	-1.12901E-005	0.00000E+000	-7.00012E-001	-6.99992E-001	7	...........
	91	9.2	-6.90222E-001	-1.00057E-005	0.00000E+000	-6.90013E-001	-6.90189E-001	7	...........
	92	9.3	-6.80222E-001	-8.84993E-006	0.00000E+000	-6.80014E-001	-6.79985E-001	7	...........
	93	9.4	-6.70222E-001	-7.82108E-006	0.00000E+000	-6.70015E-001	-6.70181E-001	7	...........
	94	9.5	-6.60022E-001	-6.88242E-006	0.00000E+000	-6.60017E-001	-6.59978E-001	7	...........
	95	9.6	-6.50021E-001	-6.02894E-006	0.00000E+000	-6.50018E-001	-6.50174E-001	7	...........
	96	9.7	-6.40221E-001	-5.26064E-006	0.00000E+000	-6.40019E-001	-6.40170E-001	7	...........
	97	9.8	-6.30221E-001	-4.54913E-006	0.00000E+000	-6.30020E-001	-6.30167E-001	7	...........
	98	9.9	-6.20221E-001	-3.89441E-006	0.00000E+000	-6.20022E-001	-6.20163E-001	7	...........
	99	10	-6.10220E-001	-3.29313E-006	0.00000E+000	-6.10023E-001	-6.09959E-001	7	...........
	100	10.1	-6.00420E-001	-2.70689E-006	0.00000E+000	-5.99974E-001	-5.99955E-001	7	...........
	101	10.2	-5.90220E-001	-2.20248E-006	0.00000E+000	-5.89975E-001	-5.89952E-001	7	...........
	102	10.3	-5.80220E-001	-1.71812E-006	0.00000E+000	-5.79977E-001	-5.80148E-001	7	...........
	103	10.4	-5.70219E-001	-1.26215E-006	0.00000E+000	-5.69978E-001	-5.70144E-001	7	...........
	104	10.5	-5.60419E-001	-8.41259E-007	0.00000E+000	-5.59979E-001	-5.59941E-001	7	...........
	105	10.6	-5.50219E-001	-4.33727E-007	0.00000E+000	-5.49981E-001	-5.49937E-001	7	...........
	106	10.7	-5.40219E-001	-5.95990E-008	0.00000E+000	-5.39982E-001	-5.39933E-001	7	...........
	107	10.8	-5.30419E-001	3.04508E-007	0.00000E+000	-5.29983E-001	-5.30130E-001	7	...........
	108	10.9	-5.20218E-001	6.43561E-007	0.00000E+000	-5.19984E-001	-5.20126E-001	7	...........
	109	11	-5.10218E-001	9.64242E-007	0.00000E+000	-5.09986E-001	-5.10122E-001	7	...........
	110	11.1	-5.00418E-001	1.27657E-006	0.00000E+000	-4.99987E-001	-5.00118E-001	7	...........
	111	11.2	-4.90218E-001	1.56719E-006	0.00000E+000	-4.89988E-001	-4.90115E-001	7	...........
	112	11.3	-4.80417E-001	1.84778E-006	0.00000E+000	-4.79989E-001	-4.80111E-001	7	...........
	113	11.4	-4.70217E-001	2.11335E-006	0.00000E+000	-4.69991E-001	-4.70107E-001	7	...........
	114	11.5	-4.60417E-001	2.36722E-006	0.00000E+000	-4.59992E-001	-4.60104E-001	7	...........
	115	11.6	-4.50017E-001	2.61608E-006	0.00000E+000	-4.49993E-001	-4.50100E-001	7	...........
	116	11.7	-4.40216E-001	2.84991E-006	0.00000E+000	-4.39994E-001	-4.40096E-001	7	...........
	117	11.8	-4.30216E-001	3.07706E-006	0.00000E+000	-4.29996E-001	-4.30093E-001	7	...........
	118	11.9	-4.20416E-001	3.29586E-006	0.00000E+000	-4.19997E-001	-4.20089E-001	7	...........
	119	12	-4.10216E-001	3.50130E-006	0.00000E+000	-4.09998E-001	-4.10285E-001	7	...........
	120	12.1	-4.00416E-001	3.70339E-006	0.00000E+000	-3.99999E-001	-4.00282E-001	7	...........
	121	12.2	-3.90415E-001	3.89881E-006	0.00000E+000	-3.90001E-001	-3.90278E-001	7	...........
	122	12.3	-3.80415E-001	4.08754E-006	0.00000E+000	-3.80002E-001	-3.80074E-001	7	...........
	123	12.4	-3.70415E-001	4.26792E-006	0.00000E+000	-3.70003E-001	-3.70270E-001	7	...........
	124	12.5	-3.60415E-001	4.44163E-006	0.00000E+000	-3.60005E-001	-3.60267E-001	7	...........
	125	12.6	-3.50214E-001	4.61366E-006	0.00000E+000	-3.50006E-001	-3.50263E-001	7	...........
	126	12.7	-3.40414E-001	4.77567E-006	0.00000E+000	-3.40007E-001	-3.40259E-001	7	...........
	127	12.8	-3.30214E-001	4.93100E-006	0.00000E+000	-3.30008E-001	-3.30456E-001	7	...........
	128	12.9	-3.20214E-001	5.08967E-006	0.00000E+000	-3.20010E-001	-3.20252E-001	7	...........
	129	13	-3.10414E-001	5.23498E-006	0.00000E+000	-3.10011E-001	-3.10048E-001	7	...........
	130	13.1	-3.00413E-001	5.38029E-006	0.00000E+000	-3.00012E-001	-3.00045E-001	7	...........
	131	13.2	-2.90413E-001	5.51891E-006	0.00000E+000	-2.90013E-001	-2.90241E-001	7	...........
	132	13.3	-2.80413E-001	5.65253E-006	0.00000E+000	-2.80015E-001	-2.80037E-001	7	...........
	133	13.4	-2.70413E-001	5.78281E-006	0.00000E+000	-2.70016E-001	-2.70434E-001	7	...........
	134	13.5	-2.60412E-001	5.90473E-006	0.00000E+000	-2.60017E-001	-2.60230E-001	7	...........
	135	13.6	-2.50412E-001	6.02666E-006	0.00000E+000	-2.50018E-001	-2.50226E-001	7	...........
	136	13.7	-2.40412E-001	6.14191E-006	0.00000E+000	-2.40020E-001	-2.40222E-001	7	...........
	137	13.8	-2.30412E-001	6.25047E-006	0.00000E+000	-2.30021E-001	-2.30419E-001	7	...........
	138	13.9	-2.20411E-001	6.36070E-006	0.00000E+000	-2.20022E-001	-2.20215E-001	7	...........
	139	14	-2.10411E-001	6.46091E-006	0.00000E+000	-2.10023E-001	-2.10411E-001	7	...........
	140	14.1	-2.00611E-001	6.56948E-006	0.00000E+000	-1.99975E-001	-2.00208E-001	7	...........
	141	14.2	-1.90411E-001	6.65633E-006	0.00000E+000	-1.89976E-001	-1.90204E-001	7	...........
	142	14.3	-1.80411E-001	6.74485E-006	0.00000E+000	-1.79977E-001	-1.80600E-001	7	...........
	143	14.4	-1.70410E-001	6.83170E-006	0.00000E+000	-1.69979E-001	-1.70397E-001	7	...........
	144	14.5	-1.60410E-001	6.91521E-006	0.00000E+000	-1.59980E-001	-1.60193E-001	7	...........
	145	14.6	-1.50610E-001	6.99204E-006	0.00000E+000	-1.49981E-001	-1.50389E-001	7	...........
	146	14.7	-1.40410E-001	7.07054E-006	0.00000E+000	-1.39982E-001	-1.40586E-001	7	...........
	147	14.8	-1.30409E-001	7.14236E-006	0.00000E+000	-1.29984E-001	-1.30582E-001	7	...........
	148	14.9	-1.20609E-001	7.21585E-006	0.00000E+000	-1.19985E-001	-1.20378E-001	7	...........
	149	15	-1.10609E-001	7.28767E-006	0.00000E+000	-1.09986E-001	-1.10574E-001	7	...........
	150	15.1	-1.00409E-001	7.35448E-006	0.00000E+000	-9.99874E-002	-1.00571E-001	7	...........
	151	15.2	-9.04085E-002	7.42463E-006	0.00000E+000	-8.99886E-002	-9.03670E-002	7	...........
	152	15.3	-8.08083E-002	7.48977E-006	0.00000E+000	-7.99899E-002	-8.03633E-002	7	...........
	153	15.4	-7.04081E-002	7.55491E-006	0.00000E+000	-6.99912E-002	-7.03596E-002	7	...........
	154	15.5	-6.04079E-002	7.62338E-006	0.00000E+000	-5.99924E-002	-6.03559E-002	7	...........
	155	15.6	-5.06076E-002	7.68685E-006	0.00000E+000	-4.99937E-002	-5.05523E-002	7	...........
	156	15.7	-4.06074E-002	7.75533E-006	0.00000E+000	-3.99949E-002	-4.03485E-002	7	...........
	157	15.8	-3.06072E-002	7.81880E-006	0.00000E+000	-2.99962E-002	-3.05449E-002	7	...........
	158	15.9	-2.06069E-002	7.88561E-006	0.00000E+000	-1.99975E-002	-2.05412E-002	7	...........
	159	16	-1.06067E-002	7.95743E-006	0.00000E+000	-9.99874E-003	-1.05375E-002	7	...........
	160	16.1	-4.06489E-004	8.02257E-006	0.00000E+000	0.00000E+000	-5.33797E-004	7	...........
	161	16.2	9.39373E-003	8.09940E-006	0.00000E+000	9.99874E-003	9.46990E-003	7	...........
	162	16.3	1.91940E-002	8.17121E-006	0.00000E+000	1.99975E-002	1.94736E-002	7	...........
	163	16.4	2.93942E-002	8.25138E-006	0.00000E+000	2.99962E-002	2.94773E-002	7	...........
	164	16.5	3.93944E-002	8.33156E-006	0.00000E+000	3.99949E-002	3.90808E-002	7	...........
	165	16.6	4.91946E-002	8.41506E-006	0.00000E+000	4.99937E-002	4.92846E-002	7	...........
	166	16.7	5.93949E-002	8.50359E-006	0.00000E+000	5.99924E-002	5.94884E-002	7	...........
	167	16.8	6.93951E-002	8.60213E-006	0.00000E+000	6.99912E-002	6.94921E-002	7	...........
	168	16.9	7.93953E-002	8.69900E-006	0.00000E+000	7.99899E-002	7.94958E-002	7	...........
	169	17	8.91955E-002	8.80924E-006	0.00000E+000	8.99886E-002	8.94995E-002	7	...........
	170	17.1	9.91958E-002	8.92448E-006	0.00000E+000	9.99874E-002	9.93031E-002	7	...........
	171	17.2	1.09196E-001	9.05476E-006	0.00000E+000	1.09986E-001	1.09307E-001	7	...........
	172	17.3	1.19396E-001	9.18837E-006	0.00000E+000	1.19985E-001	1.19310E-001	7	...........
	173	17.4	1.29396E-001	9.33535E-006	0.00000E+000	1.29984E-001	1.29514E-001	7	...........
	174	17.5	1.39197E-001	9.49903E-006	0.00000E+000	1.39982E-001	1.39318E-001	7	...........
	175	17.6	1.49397E-001	9.67274E-006	0.00000E+000	1.49981E-001	1.49522E-001	7	...........
	176	17.7	1.59397E-001	9.86481E-006	0.00000E+000	1.59980E-001	1.59325E-001	7	...........
	177	17.8	1.69397E-001	1.00702E-005	0.00000E+000	1.69979E-001	1.69329E-001	7	...........
	178	17.9	1.79198E-001	1.02907E-005	0.00000E+000	1.79977E-001	1.79533E-001	7	...........
	179	18	1.89198E-001	1.05346E-005	0.00000E+000	1.89976E-001	1.89136E-001	7	...........
	180	18.1	1.99398E-001	1.07918E-005	0.00000E+000	1.99975E-001	1.99140E-001	7	...........
	181	18.2	2.09398E-001	1.10791E-005	0.00000E+000	2.10023E-001	2.09544E-001	7	...........
	182	18.3	2.19399E-001	1.13647E-005	0.00000E+000	2.20022E-001	2.19347E-001	7	...........
	183	18.4	2.29399E-001	1.16720E-005	0.00000E+000	2.30021E-001	2.29351E-001	7	...........
	184	18.5	2.39399E-001	1.19943E-005	0.00000E+000	2.40020E-001	2.39355E-001	7	...........
	185	18.6	2.49199E-001	1.23267E-005	0.00000E+000	2.50018E-001	2.49159E-001	7	...........
	186	18.7	2.59199E-001	1.26708E-005	0.00000E+000	2.60017E-001	2.59162E-001	7	...........
	187	18.8	2.69400E-001	1.30249E-005	0.00000E+000	2.70016E-001	2.69366E-001	7	...........
	188	18.9	2.79200E-001	1.33823E-005	0.00000E+000	2.80015E-001	2.79170E-001	7	...........
	189	19	2.89200E-001	1.37497E-005	0.00000E+000	2.90013E-001	2.89173E-001	7	...........
	190	19.1	2.99200E-001	1.41172E-005	0.00000E+000	3.00012E-001	2.99377E-001	7	...........
	191	19.2	3.09201E-001	1.44846E-005	0.00000E+000	3.10011E-001	3.09381E-001	7	...........
	192	19.3	3.19201E-001	1.48587E-005	0.00000E+000	3.20010E-001	3.19384E-001	7	...........
	193	19.4	3.29201E-001	1.52229E-005	0.00000E+000	3.30008E-001	3.29388E-001	7	...........
	194	19.5	3.39201E-001	1.55936E-005	0.00000E+000	3.40007E-001	3.39192E-001	7	...........
	195	19.6	3.49001E-001	1.59594E-005	0.00000E+000	3.50006E-001	3.49195E-001	7	...........
	196	19.7	3.59202E-001	1.63235E-005	0.00000E+000	3.60005E-001	3.59199E-001	7	...........
	197	19.8	3.69202E-001	1.66926E-005	0.00000E+000	3.70003E-001	3.69203E-001	7	...........
	198	19.9	3.79002E-001	1.70517E-005	0.00000E+000	3.80002E-001	3.79207E-001	7	...........
	199	20	3.89402E-001	1.74142E-005	0.00000E+000	3.90001E-001	3.89210E-001	7	...........
	200	20.1	3.99203E-001	1.77816E-005	0.00000E+000	3.99999E-001	3.99214E-001	7	...........
	201	20.2	4.09003E-001	1.81441E-005	0.00000E+000	4.09998E-001	4.09218E-001	7	...........
	202	20.3	4.19003E-001	1.85199E-005	0.00000E+000	4.19997E-001	4.19021E-001	7	...........
	203	20.4	4.29203E-001	1.88856E-005	0.00000E+000	4.29996E-001	4.29025E-001	7	...........
	204	20.5	4.39203E-001	1.92631E-005	0.00000E+000	4.39994E-001	4.39229E-001	7	...........
	205	20.6	4.49004E-001	1.96439E-005	0.00000E+000	4.49993E-001	4.48832E-001	7	...........
	206	20.7	4.59204E-001	2.00264E-005	0.00000E+000	4.59992E-001	4.59236E-001	7	...........
	207	20.8	4.69204E-001	2.04206E-005	0.00000E+000	4.69991E-001	4.69240E-001	7	...........
	208	20.9	4.79204E-001	2.08147E-005	0.00000E+000	4.79989E-001	4.79043E-001	7	...........
	209	21	4.89205E-001	2.12206E-005	0.00000E+000	4.89988E-001	4.89247E-001	7	...........
	210	21.1	4.99205E-001	2.16348E-005	0.00000E+000	4.99987E-001	4.99251E-001	7	...........
	211	21.2	5.09005E-001	2.20507E-005	0.00000E+000	5.09986E-001	5.09055E-001	7	...........
	212	21.3	5.19005E-001	2.24833E-005	0.00000E+000	5.19984E-001	5.19058E-001	7	...........
	213	21.4	5.29006E-001	2.29225E-005	0.00000E+000	5.29983E-001	5.29062E-001	7	...........
	214	21.5	5.39006E-001	2.33685E-005	0.00000E+000	5.39982E-001	5.38866E-001	7	...........
	215	21.6	5.49206E-001	2.38311E-005	0.00000E+000	5.49981E-001	5.49069E-001	7	...........
	216	21.7	5.59206E-001	2.43021E-005	0.00000E+000	5.59979E-001	5.59073E-001	7	...........
	217	21.8	5.69206E-001	2.47882E-005	0.00000E+000	5.69978E-001	5.68877E-001	7	...........
	218	21.9	5.79207E-001	2.52826E-005	0.00000E+000	5.79977E-001	5.79080E-001	7	...........
	219	22	5.89007E-001	2.57853E-005	0.00000E+000	5.89975E-001	5.88884E-001	7	...........
	220	22.1	5.99007E-001	2.63147E-005	0.00000E+000	5.99974E-001	5.98888E-001	7	...........
	221	22.2	6.09007E-001	2.68776E-005	0.00000E+000	6.10023E-001	6.08891E-001	7	...........
	222	22.3	6.19008E-001	2.74137E-005	0.00000E+000	6.20022E-001	6.19295E-001	7	...........
	223	22.4	6.29008E-001	2.79900E-005	0.00000E+000	6.30020E-001	6.28899E-001	7	...........
	224	22.5	6.39408E-001	2.85712E-005	0.00000E+000	6.40019E-001	6.38903E-001	7	...........
	225	22.6	6.49208E-001	2.91808E-005	0.00000E+000	6.50018E-001	6.49106E-001	7	...........
	226	22.7	6.59009E-001	2.98055E-005	0.00000E+000	6.60017E-001	6.58910E-001	7	...........
	227	22.8	6.69009E-001	3.04485E-005	0.00000E+000	6.70015E-001	6.68914E-001	7	...........
	228	22.9	6.79009E-001	3.11149E-005	0.00000E+000	6.80014E-001	6.79117E-001	7	...........
	229	23	6.89009E-001	3.17997E-005	0.00000E+000	6.90013E-001	6.89121E-001	7	...........
	230	23.1	6.99009E-001	3.25146E-005	0.00000E+000	7.00012E-001	6.98925E-001	7	...........
	231	23.2	7.09210E-001	3.32478E-005	0.00000E+000	7.10010E-001	7.08728E-001	7	...........
	232	23.3	7.18810E-001	3.39994E-005	0.00000E+000	7.20009E-001	7.18932E-001	7	...........
	233	23.4	7.29010E-001	3.47861E-005	0.00000E+000	7.30008E-001	7.28736E-001	7	...........
	234	23.5	7.39010E-001	3.55961E-005	0.00000E+000	7.40007E-001	7.38940E-001	7	...........
	235	23.6	7.49011E-001	3.64429E-005	0.00000E+000	7.50005E-001	7.48943E-001	7	...........
	236	23.7	7.59011E-001	3.73098E-005	0.00000E+000	7.60004E-001	7.58947E-001	7	...........
	237	23.8	7.69011E-001	3.82067E-005	0.00000E+000	7.70003E-001	7.68951E-001	7	...........
	238	23.9	7.79011E-001	3.91503E-005	0.00000E+000	7.80001E-001	7.78954E-001	7	...........
	239	24	7.89011E-001	4.01107E-005	0.00000E+000	7.90000E-001	7.88958E-001	7	...........
	240	24.1	7.99012E-001	4.11162E-005	0.00000E+000	7.99999E-001	7.98962E-001	7	...........
CURVE2	TABLE
	Pt	T	Vf	Im	Vu	Sig	Ach	IERange	Over
	#	s	V vs. Ref.	A	V	V	V	#	bits
	241	24.2	7.89611E-001	2.75724E-005	0.00000E+000	7.90000E-001	7.88758E-001	7	...........
	242	24.3	7.79411E-001	2.21292E-005	0.00000E+000	7.80001E-001	7.78954E-001	7	...........
	243	24.4	7.69411E-001	1.84865E-005	0.00000E+000	7.70003E-001	7.68951E-001	7	...........
	244	24.5	7.59411E-001	1.56822E-005	0.00000E+000	7.60004E-001	7.58747E-001	7	...........
	245	24.6	7.49411E-001	1.34290E-005	0.00000E+000	7.50005E-001	7.48943E-001	7	...........
	246	24.7	7.39410E-001	1.15601E-005	0.00000E+000	7.40007E-001	7.38940E-001	7	...........
	247	24.8	7.29410E-001	9.98340E-006	0.00000E+000	7.30008E-001	7.28936E-001	7	...........
	248	24.9	7.19410E-001	8.61716E-006	0.00000E+000	7.20009E-001	7.18932E-001	7	...........
	249	25	7.09410E-001	7.43298E-006	0.00000E+000	7.10010E-001	7.09129E-001	7	...........
	250	25.1	6.99609E-001	6.37907E-006	0.00000E+000	7.00012E-001	6.98925E-001	7	...........
	251	25.2	6.89609E-001	5.44710E-006	0.00000E+000	6.90013E-001	6.88721E-001	7	...........
	252	25.3	6.79409E-001	4.61533E-006	0.00000E+000	6.80014E-001	6.79117E-001	7	...........
	253	25.4	6.69609E-001	3.85872E-006	0.00000E+000	6.70015E-001	6.69114E-001	7	...........
	254	25.5	6.59608E-001	3.17895E-006	0.00000E+000	6.60017E-001	6.59110E-001	7	...........
	255	25.6	6.49608E-001	2.56097E-006	0.00000E+000	6.50018E-001	6.48906E-001	7	...........
	256	25.7	6.39408E-001	1.98975E-006	0.00000E+000	6.40019E-001	6.38903E-001	7	...........
	257	25.8	6.29408E-001	1.47533E-006	0.00000E+000	6.30020E-001	6.29099E-001	7	...........
	258	25.9	6.19608E-001	9.87625E-007	0.00000E+000	6.20022E-001	6.19295E-001	7	...........
	259	26	6.09407E-001	5.48359E-007	0.00000E+000	6.10023E-001	6.09092E-001	7	...........
	260	26.1	5.99607E-001	1.35816E-007	0.00000E+000	6.00024E-001	5.99088E-001	7	...........
	261	26.2	5.89407E-001	-2.73386E-007	0.00000E+000	5.89975E-001	5.89084E-001	7	...........
	262	26.3	5.79607E-001	-6.07429E-007	0.00000E+000	5.79977E-001	5.79080E-001	7	...........
	263	26.4	5.69606E-001	-9.41472E-007	0.00000E+000	5.69978E-001	5.69077E-001	7	...........
	264	26.5	5.59606E-001	-1.25547E-006	0.00000E+000	5.59979E-001	5.59073E-001	7	...........
	265	26.6	5.49406E-001	-1.54609E-006	0.00000E+000	5.49981E-001	5.49069E-001	7	...........
	266	26.7	5.39406E-001	-1.83003E-006	0.00000E+000	5.39982E-001	5.39066E-001	7	...........
	267	26.8	5.29606E-001	-2.08056E-006	0.00000E+000	5.29983E-001	5.29062E-001	7	...........
	268	26.9	5.19405E-001	-2.32942E-006	0.00000E+000	5.19984E-001	5.19058E-001	7	...........
	269	27	5.09405E-001	-2.56492E-006	0.00000E+000	5.09986E-001	5.09055E-001	7	...........
	270	27.1	4.99605E-001	-2.78038E-006	0.00000E+000	4.99987E-001	4.99051E-001	7	...........
	271	27.2	4.89405E-001	-2.99416E-006	0.00000E+000	4.89988E-001	4.89047E-001	7	...........
	272	27.3	4.79404E-001	-3.18958E-006	0.00000E+000	4.79989E-001	4.79043E-001	7	...........
	273	27.4	4.69604E-001	-3.37831E-006	0.00000E+000	4.69991E-001	4.69240E-001	7	...........
	274	27.5	4.59404E-001	-3.56037E-006	0.00000E+000	4.59992E-001	4.59036E-001	7	...........
	275	27.6	4.49604E-001	-3.73073E-006	0.00000E+000	4.49993E-001	4.49232E-001	7	...........
	276	27.7	4.39604E-001	-3.90109E-006	0.00000E+000	4.39994E-001	4.39029E-001	7	...........
	277	27.8	4.29403E-001	-4.05809E-006	0.00000E+000	4.29996E-001	4.29225E-001	7	...........
	278	27.9	4.19603E-001	-4.20173E-006	0.00000E+000	4.19997E-001	4.19021E-001	7	...........
	279	28	4.09603E-001	-4.35372E-006	0.00000E+000	4.09998E-001	4.09218E-001	7	...........
	280	28.1	3.99603E-001	-4.49068E-006	0.00000E+000	3.99999E-001	3.99214E-001	7	...........
	281	28.2	3.89602E-001	-4.62763E-006	0.00000E+000	3.90001E-001	3.89210E-001	7	...........
	282	28.3	3.79802E-001	-4.75624E-006	0.00000E+000	3.80002E-001	3.79207E-001	7	...........
	283	28.4	3.69802E-001	-4.88151E-006	0.00000E+000	3.70003E-001	3.69203E-001	7	...........
	284	28.5	3.59602E-001	-5.00844E-006	0.00000E+000	3.60005E-001	3.58999E-001	7	...........
	285	28.6	3.49401E-001	-5.12202E-006	0.00000E+000	3.50006E-001	3.48995E-001	7	...........
	286	28.7	3.39601E-001	-5.24060E-006	0.00000E+000	3.40007E-001	3.39192E-001	7	...........
	287	28.8	3.29601E-001	-5.35251E-006	0.00000E+000	3.30008E-001	3.28988E-001	7	...........
	288	28.9	3.19601E-001	-5.46107E-006	0.00000E+000	3.20010E-001	3.19184E-001	7	...........
	289	29	3.09601E-001	-5.56963E-006	0.00000E+000	3.10011E-001	3.09381E-001	7	...........
	290	29.1	2.99600E-001	-5.66818E-006	0.00000E+000	3.00012E-001	2.99177E-001	7	...........
	291	29.2	2.89400E-001	-5.77006E-006	0.00000E+000	2.90013E-001	2.89173E-001	7	...........
	292	29.3	2.79600E-001	-5.87027E-006	0.00000E+000	2.80015E-001	2.79170E-001	7	...........
	293	29.4	2.69800E-001	-5.96547E-006	0.00000E+000	2.70016E-001	2.69166E-001	7	...........
	294	29.5	2.59799E-001	-6.06235E-006	0.00000E+000	2.60017E-001	2.59162E-001	7	...........
	295	29.6	2.49599E-001	-6.15087E-006	0.00000E+000	2.50018E-001	2.49359E-001	7	...........
	296	29.7	2.39599E-001	-6.23939E-006	0.00000E+000	2.40020E-001	2.39155E-001	7	...........
	297	29.8	2.29799E-001	-6.33125E-006	0.00000E+000	2.30021E-001	2.29351E-001	7	...........
	298	29.9	2.19799E-001	-6.41309E-006	0.00000E+000	2.20022E-001	2.19147E-001	7	...........
	299	30	2.09798E-001	-6.49994E-006	0.00000E+000	2.10023E-001	2.09344E-001	7	...........
	300	30.1	1.99798E-001	-6.57677E-006	0.00000E+000	2.00025E-001	1.99340E-001	7	...........
	301	30.2	1.89798E-001	-6.65861E-006	0.00000E+000	1.90026E-001	1.89136E-001	7	...........
	302	30.3	1.79798E-001	-6.75382E-006	0.00000E+000	1.79977E-001	1.79333E-001	7	...........
	303	30.4	1.69797E-001	-6.81394E-006	0.00000E+000	1.69979E-001	1.69329E-001	7	...........
	304	30.5	1.59797E-001	-6.89077E-006	0.00000E+000	1.59980E-001	1.59325E-001	7	...........
	305	30.6	1.49597E-001	-6.96259E-006	0.00000E+000	1.49981E-001	1.49322E-001	7	...........
	306	30.7	1.39597E-001	-7.03274E-006	0.00000E+000	1.39982E-001	1.39318E-001	7	...........
	307	30.8	1.29796E-001	-7.10456E-006	0.00000E+000	1.29984E-001	1.29314E-001	7	...........
	308	30.9	1.19796E-001	-7.16803E-006	0.00000E+000	1.19985E-001	1.19511E-001	7	...........
	309	31	1.09796E-001	-7.23651E-006	0.00000E+000	1.09986E-001	1.09507E-001	7	...........
	310	31.1	9.95958E-002	-7.30666E-006	0.00000E+000	9.99874E-002	9.93031E-002	7	...........
	311	31.2	8.97956E-002	-7.36845E-006	0.00000E+000	8.99886E-002	8.94995E-002	7	...........
	312	31.3	7.97953E-002	-7.43693E-006	0.00000E+000	7.99899E-002	7.94958E-002	7	...........
	313	31.4	6.97951E-002	-7.50374E-006	0.00000E+000	6.99912E-002	6.94921E-002	7	...........
	314	31.5	5.99949E-002	-7.57055E-006	0.00000E+000	5.99924E-002	5.94884E-002	7	...........
	315	31.6	4.95946E-002	-7.63903E-006	0.00000E+000	4.99937E-002	4.94847E-002	7	...........
	316	31.7	3.99944E-002	-7.70584E-006	0.00000E+000	3.99949E-002	3.94810E-002	7	...........
	317	31.8	2.99942E-002	-7.77933E-006	0.00000E+000	2.99962E-002	2.94773E-002	7	...........
	318	31.9	1.97940E-002	-7.84947E-006	0.00000E+000	1.99975E-002	1.94736E-002	7	...........
	319	32	9.79374E-003	-7.92463E-006	0.00000E+000	9.99874E-003	9.26983E-003	7	...........
	320	32.1	-6.48014E-006	-7.99645E-006	0.00000E+000	0.00000E+000	-5.33797E-004	7	...........
	321	32.2	-1.02067E-002	-8.07328E-006	0.00000E+000	-9.99874E-003	-1.07376E-002	7	...........
	322	32.3	-2.00069E-002	-8.16014E-006	0.00000E+000	-1.99975E-002	-2.05412E-002	7	...........
	323	32.4	-3.02072E-002	-8.23864E-006	0.00000E+000	-2.99962E-002	-3.03448E-002	7	...........
	324	32.5	-4.02074E-002	-8.32716E-006	0.00000E+000	-3.99949E-002	-4.05486E-002	7	...........
	325	32.6	-5.02076E-002	-8.42069E-006	0.00000E+000	-4.99937E-002	-5.03522E-002	7	...........
	326	32.7	-6.02079E-002	-8.51088E-006	0.00000E+000	-5.99924E-002	-6.01558E-002	7	...........
	327	32.8	-7.00081E-002	-8.61610E-006	0.00000E+000	-6.99912E-002	-7.03596E-002	7	...........
	328	32.9	-8.02083E-002	-8.72300E-006	0.00000E+000	-7.99899E-002	-8.03633E-002	7	...........
	329	33	-9.00085E-002	-8.83156E-006	0.00000E+000	-8.99886E-002	-9.05671E-002	7	...........
	330	33.1	-1.00009E-001	-8.95516E-006	0.00000E+000	-9.99874E-002	-1.00371E-001	7	...........
	331	33.2	-1.10009E-001	-9.07875E-006	0.00000E+000	-1.09986E-001	-1.10374E-001	7	...........
	332	33.3	-1.20009E-001	-9.21738E-006	0.00000E+000	-1.19985E-001	-1.20378E-001	7	...........
	333	33.4	-1.30209E-001	-9.36436E-006	0.00000E+000	-1.29984E-001	-1.30382E-001	7	...........
	334	33.5	-1.40010E-001	-9.51969E-006	0.00000E+000	-1.39982E-001	-1.40385E-001	7	...........
	335	33.6	-1.50010E-001	-9.69172E-006	0.00000E+000	-1.49981E-001	-1.50389E-001	7	...........
	336	33.7	-1.60210E-001	-9.87210E-006	0.00000E+000	-1.59980E-001	-1.60393E-001	7	...........
	337	33.8	-1.70010E-001	-1.00658E-005	0.00000E+000	-1.69979E-001	-1.70397E-001	7	...........
	338	33.9	-1.80011E-001	-1.02813E-005	0.00000E+000	-1.79977E-001	-1.80600E-001	7	...........
	339	34	-1.90211E-001	-1.04984E-005	0.00000E+000	-1.89976E-001	-1.90404E-001	7	...........
	340	34.1	-2.00011E-001	-1.07423E-005	0.00000E+000	-1.99975E-001	-2.00408E-001	7	...........
	341	34.2	-2.10011E-001	-1.09962E-005	0.00000E+000	-2.09973E-001	-2.10211E-001	7	...........
	342	34.3	-2.20011E-001	-1.12818E-005	0.00000E+000	-2.20022E-001	-2.20415E-001	7	...........
	343	34.4	-2.30012E-001	-1.15674E-005	0.00000E+000	-2.30021E-001	-2.30219E-001	7	...........
	344	34.5	-2.40012E-001	-1.18680E-005	0.00000E+000	-2.40020E-001	-2.40422E-001	7	...........
	345	34.6	-2.50012E-001	-1.21920E-005	0.00000E+000	-2.50018E-001	-2.50226E-001	7	...........
	346	34.7	-2.60212E-001	-1.25294E-005	0.00000E+000	-2.60017E-001	-2.60230E-001	7	...........
	347	34.8	-2.70013E-001	-1.28818E-005	0.00000E+000	-2.70016E-001	-2.70434E-001	7	...........
	348	34.9	-2.79813E-001	-1.32526E-005	0.00000E+000	-2.80015E-001	-2.80237E-001	7	...........
	349	35	-2.90013E-001	-1.36318E-005	0.00000E+000	-2.90013E-001	-2.90241E-001	7	...........
	350	35.1	-3.00013E-001	-1.40293E-005	0.00000E+000	-3.00012E-001	-3.00045E-001	7	...........
	351	35.2	-3.10014E-001	-1.44368E-005	0.00000E+000	-3.10011E-001	-3.10248E-001	7	...........
	352	35.3	-3.20014E-001	-1.48560E-005	0.00000E+000	-3.20010E-001	-3.20252E-001	7	...........
	353	35.4	-3.29814E-001	-1.52886E-005	0.00000E+000	-3.30008E-001	-3.30256E-001	7	...........
	354	35.5	-3.39614E-001	-1.57279E-005	0.00000E+000	-3.40007E-001	-3.40259E-001	7	...........
	355	35.6	-3.50014E-001	-1.61805E-005	0.00000E+000	-3.50006E-001	-3.50263E-001	7	...........
	356	35.7	-3.59815E-001	-1.66415E-005	0.00000E+000	-3.60005E-001	-3.60267E-001	7	...........
	357	35.8	-3.70015E-001	-1.71142E-005	0.00000E+000	-3.70003E-001	-3.70270E-001	7	...........
	358	35.9	-3.79815E-001	-1.75968E-005	0.00000E+000	-3.80002E-001	-3.80074E-001	7	...........
	359	36	-3.89815E-001	-1.80812E-005	0.00000E+000	-3.90001E-001	-3.90278E-001	7	...........
	360	36.1	-4.00016E-001	-1.85756E-005	0.00000E+000	-3.99999E-001	-4.00081E-001	7	...........
	361	36.2	-4.09816E-001	-1.90817E-005	0.00000E+000	-4.09998E-001	-4.10285E-001	7	...........
	362	36.3	-4.19816E-001	-1.95911E-005	0.00000E+000	-4.19997E-001	-4.20089E-001	7	...........
	363	36.4	-4.29816E-001	-2.01139E-005	0.00000E+000	-4.29996E-001	-4.30293E-001	7	...........
	364	36.5	-4.40016E-001	-2.06383E-005	0.00000E+000	-4.39994E-001	-4.40096E-001	7	...........
	365	36.6	-4.49817E-001	-2.11744E-005	0.00000E+000	-4.49993E-001	-4.50300E-001	7	...........
	366	36.7	-4.60017E-001	-2.17256E-005	0.00000E+000	-4.59992E-001	-4.60104E-001	7	...........
	367	36.8	-4.69617E-001	-2.22751E-005	0.00000E+000	-4.69991E-001	-4.70107E-001	7	...........
	368	36.9	-4.79817E-001	-2.28463E-005	0.00000E+000	-4.79989E-001	-4.80111E-001	7	...........
	369	37	-4.89818E-001	-2.34192E-005	0.00000E+000	-4.89988E-001	-4.90115E-001	7	...........
	370	37.1	-4.99818E-001	-2.40088E-005	0.00000E+000	-4.99987E-001	-5.00118E-001	7	...........
	371	37.2	-5.09818E-001	-2.46151E-005	0.00000E+000	-5.09986E-001	-5.10122E-001	7	...........
	372	37.3	-5.19818E-001	-2.52280E-005	0.00000E+000	-5.19984E-001	-5.20326E-001	7	...........
	373	37.4	-5.29819E-001	-2.58627E-005	0.00000E+000	-5.29983E-001	-5.29930E-001	7	...........
	374	37.5	-5.39819E-001	-2.65175E-005	0.00000E+000	-5.39982E-001	-5.40133E-001	7	...........
	375	37.6	-5.49619E-001	-2.71805E-005	0.00000E+000	-5.49981E-001	-5.49937E-001	7	...........
	376	37.7	-5.59819E-001	-2.78753E-005	0.00000E+000	-5.59979E-001	-5.60141E-001	7	...........
	377	37.8	-5.69819E-001	-2.85852E-005	0.00000E+000	-5.69978E-001	-5.69944E-001	7	...........
	378	37.9	-5.79620E-001	-2.93184E-005	0.00000E+000	-5.79977E-001	-5.79948E-001	7	...........
	379	38	-5.89820E-001	-3.00850E-005	0.00000E+000	-5.89975E-001	-5.89952E-001	7	...........
	380	38.1	-5.99620E-001	-3.08650E-005	0.00000E+000	-5.99974E-001	-5.99955E-001	7	...........
	381	38.2	-6.09820E-001	-3.16901E-005	0.00000E+000	-6.09973E-001	-6.09959E-001	7	...........
	382	38.3	-6.19821E-001	-3.25603E-005	0.00000E+000	-6.20022E-001	-6.19963E-001	7	...........
	383	38.4	-6.29821E-001	-3.34255E-005	0.00000E+000	-6.30020E-001	-6.29966E-001	7	...........
	384	38.5	-6.39821E-001	-3.43424E-005	0.00000E+000	-6.40019E-001	-6.39970E-001	7	...........
	385	38.6	-6.49621E-001	-3.52928E-005	0.00000E+000	-6.50018E-001	-6.49974E-001	7	...........
	386	38.7	-6.59822E-001	-3.62899E-005	0.00000E+000	-6.60017E-001	-6.59978E-001	7	...........
	387	38.8	-6.69622E-001	-3.73287E-005	0.00000E+000	-6.70015E-001	-6.69981E-001	7	...........
	388	38.9	-6.79622E-001	-3.84110E-005	0.00000E+000	-6.80014E-001	-6.79985E-001	7	...........
	389	39	-6.89622E-001	-3.95501E-005	0.00000E+000	-6.90013E-001	-6.89989E-001	7	...........
	390	39.1	-6.99622E-001	-4.07209E-005	0.00000E+000	-7.00012E-001	-6.99992E-001	7	...........
	391	39.2	-7.09623E-001	-4.19636E-005	0.00000E+000	-7.10010E-001	-7.10196E-001	7	...........
	392	39.3	-7.19623E-001	-4.32580E-005	0.00000E+000	-7.20009E-001	-7.19800E-001	7	...........
	393	39.4	-7.29623E-001	-4.46092E-005	0.00000E+000	-7.30008E-001	-7.30003E-001	7	...........
	394	39.5	-7.39823E-001	-5.67075E-005	0.00000E+000	-7.40007E-001	-7.39807E-001	8	...........
	395	39.6	-7.49624E-001	-4.29175E-005	0.00000E+000	-7.50005E-001	-7.50011E-001	8	...........
	396	39.7	-7.59624E-001	-5.12983E-005	0.00000E+000	-7.60004E-001	-7.59814E-001	8	...........
	397	39.8	-7.69624E-001	-5.23000E-005	0.00000E+000	-7.70003E-001	-7.69818E-001	8	...........
	398	39.9	-7.79624E-001	-5.40363E-005	0.00000E+000	-7.80001E-001	-7.79822E-001	8	...........
	399	40	-7.89824E-001	-5.58894E-005	0.00000E+000	-7.90000E-001	-7.90026E-001	8	...........
	400	40.1	-7.99825E-001	-5.78261E-005	0.00000E+000	-7.99999E-001	-8.00029E-001	8	...........
	401	40.2	-7.90224E-001	-3.60224E-005	0.00000E+000	-7.90000E-001	-7.89825E-001	8	...........
	402	40.3	-7.80224E-001	-2.97443E-005	0.00000E+000	-7.80001E-001	-7.79822E-001	7	...........
	403	40.4	-7.70224E-001	-2.68933E-005	0.00000E+000	-7.70003E-001	-7.70018E-001	7	...........
	404	40.5	-7.60024E-001	-2.25457E-005	0.00000E+000	-7.60004E-001	-7.60015E-001	7	...........
	405	40.6	-7.50224E-001	-1.96128E-005	0.00000E+000	-7.50005E-001	-7.50011E-001	7	...........
	406	40.7	-7.40223E-001	-1.71375E-005	0.00000E+000	-7.40007E-001	-7.39807E-001	7	...........
	407	40.8	-7.30023E-001	-1.50230E-005	0.00000E+000	-7.30008E-001	-7.29803E-001	7	...........
	408	40.9	-7.20223E-001	-1.32125E-005	0.00000E+000	-7.20009E-001	-7.20000E-001	7	...........
	409	41	-7.10223E-001	-1.16358E-005	0.00000E+000	-7.10010E-001	-7.09796E-001	7	...........
	410	41.1	-7.00222E-001	-1.02496E-005	0.00000E+000	-7.00012E-001	-6.99992E-001	7	...........
	411	41.2	-6.90222E-001	-9.02698E-006	0.00000E+000	-6.90013E-001	-6.89989E-001	7	...........
	412	41.3	-6.80022E-001	-7.92129E-006	0.00000E+000	-6.80014E-001	-6.79785E-001	7	...........
	413	41.4	-6.70222E-001	-6.94422E-006	0.00000E+000	-6.70015E-001	-6.69781E-001	7	...........
	414	41.5	-6.60022E-001	-6.05233E-006	0.00000E+000	-6.60017E-001	-6.59978E-001	7	...........
	415	41.6	-6.50021E-001	-5.24561E-006	0.00000E+000	-6.50018E-001	-6.49974E-001	7	...........
	416	41.7	-6.40021E-001	-4.51573E-006	0.00000E+000	-6.40019E-001	-6.39970E-001	7	...........
	417	41.8	-6.30221E-001	-3.83762E-006	0.00000E+000	-6.30020E-001	-6.29966E-001	7	...........
	418	41.9	-6.20221E-001	-3.22131E-006	0.00000E+000	-6.20022E-001	-6.20163E-001	7	...........
	419	42	-6.10220E-001	-2.63507E-006	0.00000E+000	-6.09973E-001	-6.09959E-001	7	...........
	420	42.1	-6.00220E-001	-2.10728E-006	0.00000E+000	-5.99974E-001	-5.99955E-001	7	...........
	421	42.2	-5.90220E-001	-1.62459E-006	0.00000E+000	-5.89975E-001	-5.90152E-001	7	...........
	422	42.3	-5.80220E-001	-1.15693E-006	0.00000E+000	-5.79977E-001	-5.79948E-001	7	...........
	423	42.4	-5.70019E-001	-7.34365E-007	0.00000E+000	-5.69978E-001	-5.69944E-001	7	...........
	424	42.5	-5.60219E-001	-3.36854E-007	0.00000E+000	-5.59979E-001	-5.60141E-001	7	...........
	425	42.6	-5.50219E-001	5.06351E-008	0.00000E+000	-5.49981E-001	-5.50337E-001	7	...........
	426	42.7	-5.40219E-001	3.99710E-007	0.00000E+000	-5.39982E-001	-5.40133E-001	7	...........
	427	42.8	-5.30419E-001	7.45444E-007	0.00000E+000	-5.29983E-001	-5.30130E-001	7	...........
	428	42.9	-5.20418E-001	1.06111E-006	0.00000E+000	-5.19984E-001	-5.20126E-001	7	...........
	429	43	-5.10018E-001	1.36008E-006	0.00000E+000	-5.09986E-001	-5.10122E-001	7	...........
	430	43.1	-5.00218E-001	1.65571E-006	0.00000E+000	-4.99987E-001	-5.00118E-001	7	...........
	431	43.2	-4.90418E-001	1.92796E-006	0.00000E+000	-4.89988E-001	-4.90115E-001	7	...........
	432	43.3	-4.80217E-001	2.19018E-006	0.00000E+000	-4.79989E-001	-4.79911E-001	7	...........
	433	43.4	-4.70217E-001	2.44405E-006	0.00000E+000	-4.69991E-001	-4.69907E-001	7	...........
	434	43.5	-4.60417E-001	2.68122E-006	0.00000E+000	-4.59992E-001	-4.60104E-001	7	...........
	435	43.6	-4.50417E-001	2.91505E-006	0.00000E+000	-4.49993E-001	-4.50300E-001	7	...........
	436	43.7	-4.40617E-001	3.13385E-006	0.00000E+000	-4.39994E-001	-4.40096E-001	7	...........
	437	43.8	-4.30416E-001	3.34430E-006	0.00000E+000	-4.29996E-001	-4.29893E-001	7	...........
	438	43.9	-4.20416E-001	3.55140E-006	0.00000E+000	-4.19997E-001	-4.20489E-001	7	...........
	439	44	-4.10216E-001	3.74682E-006	0.00000E+000	-4.09998E-001	-4.10085E-001	7	...........
	440	44.1	-4.00416E-001	3.93722E-006	0.00000E+000	-3.99999E-001	-4.00282E-001	7	...........
	441	44.2	-3.90415E-001	4.12095E-006	0.00000E+000	-3.90001E-001	-3.90078E-001	7	...........
	442	44.3	-3.80615E-001	4.29799E-006	0.00000E+000	-3.80002E-001	-3.80274E-001	7	...........
	443	44.4	-3.70415E-001	4.47002E-006	0.00000E+000	-3.70003E-001	-3.70270E-001	7	...........
	444	44.5	-3.60415E-001	4.63036E-006	0.00000E+000	-3.60005E-001	-3.60067E-001	7	...........
	445	44.6	-3.50414E-001	4.79237E-006	0.00000E+000	-3.50006E-001	-3.50463E-001	7	...........
	446	44.7	-3.40414E-001	4.94603E-006	0.00000E+000	-3.40007E-001	-3.40259E-001	7	...........
	447	44.8	-3.30614E-001	5.09301E-006	0.00000E+000	-3.30008E-001	-3.30256E-001	7	...........
	448	44.9	-3.20414E-001	5.23999E-006	0.00000E+000	-3.20010E-001	-3.20252E-001	7	...........
	449	45	-3.10414E-001	5.37695E-006	0.00000E+000	-3.10011E-001	-3.10248E-001	7	...........
	450	45.1	-3.00413E-001	5.51390E-006	0.00000E+000	-3.00012E-001	-3.00245E-001	7	...........
	451	45.2	-2.90413E-001	5.64251E-006	0.00000E+000	-2.90013E-001	-2.90241E-001	7	...........
	452	45.3	-2.80413E-001	5.76611E-006	0.00000E+000	-2.80015E-001	-2.80037E-001	7	...........
	453	45.4	-2.70413E-001	5.89137E-006	0.00000E+000	-2.70016E-001	-2.70434E-001	7	...........
	454	45.5	-2.60612E-001	6.00662E-006	0.00000E+000	-2.60017E-001	-2.60230E-001	7	...........
	455	45.6	-2.50412E-001	6.11351E-006	0.00000E+000	-2.50018E-001	-2.50426E-001	7	...........
	456	45.7	-2.40412E-001	6.23043E-006	0.00000E+000	-2.40020E-001	-2.40422E-001	7	...........
	457	45.8	-2.30412E-001	6.32563E-006	0.00000E+000	-2.30021E-001	-2.30419E-001	7	...........
	458	45.9	-2.20411E-001	6.43085E-006	0.00000E+000	-2.20022E-001	-2.20215E-001	7	...........
	459	46	-2.10411E-001	6.53775E-006	0.00000E+000	-2.09973E-001	-2.10411E-001	7	...........
	460	46.1	-2.00611E-001	6.61792E-006	0.00000E+000	-1.99975E-001	-2.00408E-001	7	...........
	461	46.2	-1.90611E-001	6.70978E-006	0.00000E+000	-1.89976E-001	-1.90204E-001	7	...........
	462	46.3	-1.80611E-001	6.78995E-006	0.00000E+000	-1.79977E-001	-1.80400E-001	7	...........
	463	46.4	-1.70410E-001	6.87346E-006	0.00000E+000	-1.69979E-001	-1.70397E-001	7	...........
	464	46.5	-1.60410E-001	6.94862E-006	0.00000E+000	-1.59980E-001	-1.60193E-001	7	...........
	465	46.6	-1.50610E-001	7.02378E-006	0.00000E+000	-1.49981E-001	-1.50389E-001	7	...........
	466	46.7	-1.40610E-001	7.09727E-006	0.00000E+000	-1.39982E-001	-1.40385E-001	7	...........
	467	46.8	-1.30409E-001	7.16575E-006	0.00000E+000	-1.29984E-001	-1.30382E-001	7	...........
	468	46.9	-1.20409E-001	7.23589E-006	0.00000E+000	-1.19985E-001	-1.20378E-001	7	...........
	469	47	-1.10409E-001	7.30270E-006	0.00000E+000	-1.09986E-001	-1.10574E-001	7	...........
	470	47.1	-1.00609E-001	7.36450E-006	0.00000E+000	-9.99874E-002	-1.00171E-001	7	...........
	471	47.2	-9.06085E-002	7.43131E-006	0.00000E+000	-8.99886E-002	-9.01669E-002	7	...........
	472	47.3	-8.06083E-002	7.49478E-006	0.00000E+000	-7.99899E-002	-8.05634E-002	7	...........
	473	47.4	-7.04081E-002	7.55825E-006	0.00000E+000	-6.99912E-002	-7.03596E-002	7	...........
	474	47.5	-6.06079E-002	7.62171E-006	0.00000E+000	-5.99924E-002	-6.03559E-002	7	...........
	475	47.6	-5.04076E-002	7.68518E-006	0.00000E+000	-4.99937E-002	-5.05523E-002	7	...........
	476	47.7	-4.04074E-002	7.75032E-006	0.00000E+000	-3.99949E-002	-4.05486E-002	7	...........
	477	47.8	-3.04072E-002	7.81212E-006	0.00000E+000	-2.99962E-002	-3.05449E-002	7	...........
	478	47.9	-2.04069E-002	7.87559E-006	0.00000E+000	-1.99975E-002	-2.05412E-002	7	...........
	479	48	-1.06067E-002	7.94573E-006	0.00000E+000	-9.99874E-003	-1.03374E-002	7	...........
	480	48.1	-6.06494E-004	8.01087E-006	0.00000E+000	0.00000E+000	-5.33797E-004	7	...........
	481	48.2	9.39373E-003	8.08603E-006	0.00000E+000	9.99874E-003	9.46990E-003	7	...........
	482	48.3	1.93940E-002	8.15785E-006	0.00000E+000	1.99975E-002	1.96737E-002	7	...........
	483	48.4	2.93942E-002	8.23635E-006	0.00000E+000	2.99962E-002	2.92772E-002	7	...........
	484	48.5	3.93944E-002	8.31485E-006	0.00000E+000	3.99949E-002	3.94810E-002	7	...........
	485	48.6	4.95946E-002	8.39502E-006	0.00000E+000	4.99937E-002	4.94847E-002	7	...........
	486	48.7	5.93949E-002	8.48521E-006	0.00000E+000	5.99924E-002	5.92883E-002	7	...........
	487	48.8	6.91951E-002	8.57708E-006	0.00000E+000	6.99912E-002	6.92920E-002	7	...........
	488	48.9	7.93953E-002	8.67395E-006	0.00000E+000	7.99899E-002	7.94958E-002	7	...........
	489	49	8.93956E-002	8.78251E-006	0.00000E+000	8.99886E-002	8.94995E-002	7	...........
	490	49.1	9.93958E-002	8.89442E-006	0.00000E+000	9.99874E-002	9.93031E-002	7	...........
	491	49.2	1.09396E-001	9.01801E-006	0.00000E+000	1.09986E-001	1.09507E-001	7	...........
	492	49.3	1.19396E-001	9.14662E-006	0.00000E+000	1.19985E-001	1.19310E-001	7	...........
	493	49.4	1.29396E-001	9.28859E-006	0.00000E+000	1.29984E-001	1.29314E-001	7	...........
	494	49.5	1.39397E-001	9.44726E-006	0.00000E+000	1.39982E-001	1.39318E-001	7	...........
	495	49.6	1.49197E-001	9.61428E-006	0.00000E+000	1.49981E-001	1.49122E-001	7	...........
	496	49.7	1.59197E-001	9.79800E-006	0.00000E+000	1.59980E-001	1.59325E-001	7	...........
	497	49.8	1.69397E-001	9.99342E-006	0.00000E+000	1.69979E-001	1.69329E-001	7	...........
	498	49.9	1.79398E-001	1.02089E-005	0.00000E+000	1.79977E-001	1.79333E-001	7	...........
	499	50	1.89598E-001	1.04594E-005	0.00000E+000	1.90026E-001	1.89336E-001	7	...........
	500	50.1	1.99398E-001	1.06982E-005	0.00000E+000	2.00025E-001	1.99340E-001	7	...........
	501	50.2	2.09398E-001	1.09621E-005	0.00000E+000	2.10023E-001	2.09344E-001	7	...........
	502	50.3	2.19199E-001	1.12528E-005	0.00000E+000	2.20022E-001	2.19347E-001	7	...........
	503	50.4	2.29199E-001	1.15517E-005	0.00000E+000	2.30021E-001	2.29151E-001	7	...........
	504	50.5	2.39199E-001	1.18757E-005	0.00000E+000	2.40020E-001	2.39155E-001	7	...........
	505	50.6	2.49399E-001	1.22065E-005	0.00000E+000	2.50018E-001	2.49159E-001	7	...........
	506	50.7	2.59399E-001	1.25539E-005	0.00000E+000	2.60017E-001	2.59362E-001	7	...........
	507	50.8	2.69400E-001	1.29113E-005	0.00000E+000	2.70016E-001	2.69366E-001	7	...........
	508	50.9	2.79200E-001	1.32787E-005	0.00000E+000	2.80015E-001	2.79370E-001	7	...........
	509	51	2.89400E-001	1.36512E-005	0.00000E+000	2.90013E-001	2.89373E-001	7	...........
	510	51.1	2.99400E-001	1.40287E-005	0.00000E+000	3.00012E-001	2.99177E-001	7	...........
	511	51.2	3.09401E-001	1.44095E-005	0.00000E+000	3.10011E-001	3.09181E-001	7	...........
	512	51.3	3.19201E-001	1.47919E-005	0.00000E+000	3.20010E-001	3.19384E-001	7	...........
	513	51.4	3.29201E-001	1.51727E-005	0.00000E+000	3.30008E-001	3.29188E-001	7	...........
	514	51.5	3.39401E-001	1.55519E-005	0.00000E+000	3.40007E-001	3.39192E-001	7	...........
	515	51.6	3.49401E-001	1.59327E-005	0.00000E+000	3.50006E-001	3.49195E-001	7	...........
	516	51.7	3.59002E-001	1.63068E-005	0.00000E+000	3.60005E-001	3.59199E-001	7	...........
	517	51.8	3.69002E-001	1.66876E-005	0.00000E+000	3.70003E-001	3.69203E-001	7	...........
	518	51.9	3.79202E-001	1.70601E-005	0.00000E+000	3.80002E-001	3.79207E-001	7	...........
	519	52	3.89002E-001	1.74292E-005	0.00000E+000	3.90001E-001	3.89210E-001	7	...........
	520	52.1	3.99203E-001	1.78033E-005	0.00000E+000	3.99999E-001	3.99214E-001	7	...........
	521	52.2	4.09003E-001	1.81758E-005	0.00000E+000	4.09998E-001	4.09018E-001	7	...........
	522	52.3	4.19203E-001	1.85549E-005	0.00000E+000	4.19997E-001	4.19421E-001	7	...........
	523	52.4	4.29203E-001	1.89324E-005	0.00000E+000	4.29996E-001	4.29225E-001	7	...........
	524	52.5	4.39203E-001	1.93132E-005	0.00000E+000	4.39994E-001	4.39229E-001	7	...........
	525	52.6	4.49004E-001	1.96990E-005	0.00000E+000	4.49993E-001	4.49032E-001	7	...........
	526	52.7	4.59004E-001	2.00848E-005	0.00000E+000	4.59992E-001	4.59036E-001	7	...........
	527	52.8	4.69204E-001	2.04790E-005	0.00000E+000	4.69991E-001	4.69040E-001	7	...........
	528	52.9	4.79004E-001	2.08765E-005	0.00000E+000	4.79989E-001	4.79244E-001	7	...........
	529	53	4.89405E-001	2.12857E-005	0.00000E+000	4.89988E-001	4.89047E-001	7	...........
	530	53.1	4.99205E-001	2.17033E-005	0.00000E+000	4.99987E-001	4.99051E-001	7	...........
	531	53.2	5.09005E-001	2.21225E-005	0.00000E+000	5.09986E-001	5.09055E-001	7	...........
	532	53.3	5.19005E-001	2.25584E-005	0.00000E+000	5.19984E-001	5.19058E-001	7	...........
	533	53.4	5.29206E-001	2.29994E-005	0.00000E+000	5.29983E-001	5.29062E-001	7	...........
	534	53.5	5.39406E-001	2.34487E-005	0.00000E+000	5.39982E-001	5.39066E-001	7	...........
	535	53.6	5.49006E-001	2.39146E-005	0.00000E+000	5.49981E-001	5.49069E-001	7	...........
	536	53.7	5.59006E-001	2.43856E-005	0.00000E+000	5.59979E-001	5.59073E-001	7	...........
	537	53.8	5.69006E-001	2.48750E-005	0.00000E+000	5.69978E-001	5.69077E-001	7	...........
	538	53.9	5.79007E-001	2.53778E-005	0.00000E+000	5.79977E-001	5.79080E-001	7	...........
	539	54	5.89207E-001	2.58855E-005	0.00000E+000	5.89975E-001	5.88884E-001	7	...........
	540	54.1	5.99207E-001	2.64417E-005	0.00000E+000	6.00024E-001	5.98888E-001	7	...........
	541	54.2	6.09007E-001	2.69728E-005	0.00000E+000	6.10023E-001	6.09092E-001	7	...........
	542	54.3	6.19008E-001	2.75256E-005	0.00000E+000	6.20022E-001	6.19095E-001	7	...........
	543	54.4	6.29008E-001	2.81086E-005	0.00000E+000	6.30020E-001	6.29099E-001	7	...........
	544	54.5	6.38808E-001	2.86998E-005	0.00000E+000	6.40019E-001	6.38903E-001	7	...........
	545	54.6	6.49008E-001	2.93211E-005	0.00000E+000	6.50018E-001	6.48906E-001	7	...........
	546	54.7	6.59009E-001	2.99458E-005	0.00000E+000	6.60017E-001	6.58910E-001	7	...........
	547	54.8	6.69009E-001	3.06039E-005	0.00000E+000	6.70015E-001	6.68914E-001	7	...........
	548	54.9	6.79009E-001	3.12853E-005	0.00000E+000	6.80014E-001	6.78917E-001	7	...........
	549	55	6.89009E-001	3.19784E-005	0.00000E+000	6.90013E-001	6.88921E-001	7	...........
	550	55.1	6.99009E-001	3.27117E-005	0.00000E+000	7.00012E-001	6.98925E-001	7	...........
	551	55.2	7.09010E-001	3.34566E-005	0.00000E+000	7.10010E-001	7.08928E-001	7	...........
	552	55.3	7.19010E-001	3.42282E-005	0.00000E+000	7.20009E-001	7.19132E-001	7	...........
	553	55.4	7.29010E-001	3.50366E-005	0.00000E+000	7.30008E-001	7.28936E-001	7	...........
	554	55.5	7.39010E-001	3.58667E-005	0.00000E+000	7.40007E-001	7.38940E-001	7	...........
	555	55.6	7.49011E-001	3.67335E-005	0.00000E+000	7.50005E-001	7.48943E-001	7	...........
	556	55.7	7.59011E-001	3.76271E-005	0.00000E+000	7.60004E-001	7.58947E-001	7	...........
	557	55.8	7.69011E-001	3.85491E-005	0.00000E+000	7.70003E-001	7.68751E-001	7	...........
	558	55.9	7.78811E-001	3.95228E-005	0.00000E+000	7.80001E-001	7.78754E-001	7	...........
	559	56	7.88811E-001	4.05182E-005	0.00000E+000	7.90000E-001	7.88958E-001	7	...........
	560	56.1	7.99012E-001	4.15488E-005	0.00000E+000	7.99999E-001	7.98962E-001	7	...........
CURVE3	TABLE
	Pt	T	Vf	Im	Vu	Sig	Ach	IERange	Over
	#	s	V vs. Ref.	A	V	V	V	#	bits
	561	56.2	7.89411E-001	2.79599E-005	0.00000E+000	7.90000E-001	7.88758E-001	7	...........
	562	56.3	7.79211E-001	2.24983E-005	0.00000E+000	7.80001E-001	7.78954E-001	7	...........
	563	56.4	7.69411E-001	1.88405E-005	0.00000E+000	7.70003E-001	7.68951E-001	7	...........
	564	56.5	7.59411E-001	1.60246E-005	0.00000E+000	7.60004E-001	7.58947E-001	7	...........
	565	56.6	7.49611E-001	1.37497E-005	0.00000E+000	7.50005E-001	7.49143E-001	7	...........
	566	56.7	7.39610E-001	1.18824E-005	0.00000E+000	7.40007E-001	7.38739E-001	7	...........
	567	56.8	7.29410E-001	1.02907E-005	0.00000E+000	7.30008E-001	7.28936E-001	7	...........
	568	56.9	7.19410E-001	8.91446E-006	0.00000E+000	7.20009E-001	7.18932E-001	7	...........
	569	57	7.09410E-001	7.71692E-006	0.00000E+000	7.10010E-001	7.08928E-001	7	...........
	570	57.1	6.99409E-001	6.65633E-006	0.00000E+000	7.00012E-001	6.98925E-001	7	...........
	571	57.2	6.89409E-001	5.71600E-006	0.00000E+000	6.90013E-001	6.88921E-001	7	...........
	572	57.3	6.79409E-001	4.87421E-006	0.00000E+000	6.80014E-001	6.79117E-001	7	...........
	573	57.4	6.69409E-001	4.11761E-006	0.00000E+000	6.70015E-001	6.69114E-001	7	...........
	574	57.5	6.59409E-001	3.42447E-006	0.00000E+000	6.60017E-001	6.59110E-001	7	...........
	575	57.6	6.49408E-001	2.80482E-006	0.00000E+000	6.50018E-001	6.49306E-001	7	...........
	576	57.7	6.39608E-001	2.22525E-006	0.00000E+000	6.40019E-001	6.38903E-001	7	...........
	577	57.8	6.29408E-001	1.69580E-006	0.00000E+000	6.30020E-001	6.28899E-001	7	...........
	578	57.9	6.19408E-001	1.21143E-006	0.00000E+000	6.20022E-001	6.18895E-001	7	...........
	579	58	6.09607E-001	7.65487E-007	0.00000E+000	6.10023E-001	6.09092E-001	7	...........
	580	58.1	5.99807E-001	3.47933E-007	0.00000E+000	6.00024E-001	5.99088E-001	7	...........
	581	58.2	5.89607E-001	-6.62799E-008	0.00000E+000	5.89975E-001	5.88884E-001	7	...........
	582	58.3	5.79407E-001	-4.07003E-007	0.00000E+000	5.79977E-001	5.79080E-001	7	...........
	583	58.4	5.69606E-001	-7.46057E-007	0.00000E+000	5.69978E-001	5.69077E-001	7	...........
	584	58.5	5.59406E-001	-1.06507E-006	0.00000E+000	5.59979E-001	5.58873E-001	7	...........
	585	58.6	5.49406E-001	-1.36237E-006	0.00000E+000	5.49981E-001	5.48869E-001	7	...........
	586	58.7	5.39606E-001	-1.64630E-006	0.00000E+000	5.39982E-001	5.39066E-001	7	...........
	587	58.8	5.29606E-001	-1.90686E-006	0.00000E+000	5.29983E-001	5.29062E-001	7	...........
	588	58.9	5.19605E-001	-2.15906E-006	0.00000E+000	5.19984E-001	5.19058E-001	7	...........
	589	59	5.09605E-001	-2.39790E-006	0.00000E+000	5.09986E-001	5.09055E-001	7	...........
	590	59.1	4.99605E-001	-2.62004E-006	0.00000E+000	4.99987E-001	4.99051E-001	7	...........
	591	59.2	4.89605E-001	-2.83883E-006	0.00000E+000	4.89988E-001	4.89047E-001	7	...........
	592	59.3	4.79604E-001	-3.03926E-006	0.00000E+000	4.79989E-001	4.79043E-001	7	...........
	593	59.4	4.69404E-001	-3.23635E-006	0.00000E+000	4.69991E-001	4.69240E-001	7	...........
	594	59.5	4.59604E-001	-3.42007E-006	0.00000E+000	4.59992E-001	4.59036E-001	7	...........
	595	59.6	4.49604E-001	-3.59711E-006	0.00000E+000	4.49993E-001	4.49232E-001	7	...........
	596	59.7	4.39604E-001	-3.77415E-006	0.00000E+000	4.39994E-001	4.39429E-001	7	...........
	597	59.8	4.29603E-001	-3.93449E-006	0.00000E+000	4.29996E-001	4.29225E-001	7	...........
	598	59.9	4.19603E-001	-4.08982E-006	0.00000E+000	4.19997E-001	4.19021E-001	7	...........
	599	60	4.09603E-001	-4.24181E-006	0.00000E+000	4.09998E-001	4.09218E-001	7	...........
	600	60.1	3.99603E-001	-4.38545E-006	0.00000E+000	3.99999E-001	3.99214E-001	7	...........
	601	60.2	3.89602E-001	-4.53076E-006	0.00000E+000	3.90001E-001	3.89210E-001	7	...........
	602	60.3	3.79602E-001	-4.66271E-006	0.00000E+000	3.80002E-001	3.79207E-001	7	...........
	603	60.4	3.69602E-001	-4.79632E-006	0.00000E+000	3.70003E-001	3.69203E-001	7	...........
	604	60.5	3.59602E-001	-4.92493E-006	0.00000E+000	3.60005E-001	3.59199E-001	7	...........
	605	60.6	3.49801E-001	-5.05020E-006	0.00000E+000	3.50006E-001	3.49396E-001	7	...........
	606	60.7	3.39801E-001	-5.17045E-006	0.00000E+000	3.40007E-001	3.39192E-001	7	...........
	607	60.8	3.29601E-001	-5.29071E-006	0.00000E+000	3.30008E-001	3.29188E-001	7	...........
	608	60.9	3.19601E-001	-5.40094E-006	0.00000E+000	3.20010E-001	3.19384E-001	7	...........
	609	61	3.09601E-001	-5.51619E-006	0.00000E+000	3.10011E-001	3.09381E-001	7	...........
	610	61.1	2.99800E-001	-5.62141E-006	0.00000E+000	3.00012E-001	2.99177E-001	7	...........
	611	61.2	2.89800E-001	-5.72663E-006	0.00000E+000	2.90013E-001	2.89173E-001	7	...........
	612	61.3	2.79600E-001	-5.83186E-006	0.00000E+000	2.80015E-001	2.79370E-001	7	...........
	613	61.4	2.69600E-001	-5.92873E-006	0.00000E+000	2.70016E-001	2.69366E-001	7	...........
	614	61.5	2.59599E-001	-6.02560E-006	0.00000E+000	2.60017E-001	2.59162E-001	7	...........
	615	61.6	2.49799E-001	-6.11913E-006	0.00000E+000	2.50018E-001	2.49159E-001	7	...........
	616	61.7	2.39999E-001	-6.20933E-006	0.00000E+000	2.40020E-001	2.39355E-001	7	...........
	617	61.8	2.29599E-001	-6.30286E-006	0.00000E+000	2.30021E-001	2.29151E-001	7	...........
	618	61.9	2.19799E-001	-6.38637E-006	0.00000E+000	2.20022E-001	2.19347E-001	7	...........
	619	62	2.09598E-001	-6.47322E-006	0.00000E+000	2.10023E-001	2.09344E-001	7	...........
	620	62.1	1.99798E-001	-6.55005E-006	0.00000E+000	2.00025E-001	1.99340E-001	7	...........
	621	62.2	1.89798E-001	-6.63189E-006	0.00000E+000	1.90026E-001	1.89536E-001	7	...........
	622	62.3	1.79798E-001	-6.72709E-006	0.00000E+000	1.79977E-001	1.79333E-001	7	...........
	623	62.4	1.69797E-001	-6.78722E-006	0.00000E+000	1.69979E-001	1.69329E-001	7	...........
	624	62.5	1.59797E-001	-6.86071E-006	0.00000E+000	1.59980E-001	1.59325E-001	7	...........
	625	62.6	1.49797E-001	-6.93253E-006	0.00000E+000	1.49981E-001	1.49322E-001	7	...........
	626	62.7	1.39797E-001	-6.99934E-006	0.00000E+000	1.39982E-001	1.39318E-001	7	...........
	627	62.8	1.29796E-001	-7.07116E-006	0.00000E+000	1.29984E-001	1.29314E-001	7	...........
	628	62.9	1.19796E-001	-7.13295E-006	0.00000E+000	1.19985E-001	1.19511E-001	7	...........
	629	63	1.09596E-001	-7.20143E-006	0.00000E+000	1.09986E-001	1.09507E-001	7	...........
	630	63.1	9.97958E-002	-7.26657E-006	0.00000E+000	9.99874E-002	9.93031E-002	7	...........
	631	63.2	8.95955E-002	-7.33004E-006	0.00000E+000	8.99886E-002	8.92994E-002	7	...........
	632	63.3	7.97953E-002	-7.39685E-006	0.00000E+000	7.99899E-002	7.92957E-002	7	...........
	633	63.4	6.97951E-002	-7.46032E-006	0.00000E+000	6.99912E-002	6.92920E-002	7	...........
	634	63.5	5.97949E-002	-7.52545E-006	0.00000E+000	5.99924E-002	5.92883E-002	7	...........
	635	63.6	4.97947E-002	-7.59059E-006	0.00000E+000	4.99937E-002	4.94847E-002	7	...........
	636	63.7	3.99944E-002	-7.65573E-006	0.00000E+000	3.99949E-002	3.94810E-002	7	...........
	637	63.8	2.97942E-002	-7.72922E-006	0.00000E+000	2.99962E-002	2.92772E-002	7	...........
	638	63.9	1.97940E-002	-7.79603E-006	0.00000E+000	1.99975E-002	1.94736E-002	7	...........
	639	64	9.79374E-003	-7.86618E-006	0.00000E+000	9.99874E-003	9.46990E-003	7	...........
	640	64.1	-6.48014E-006	-7.94301E-006	0.00000E+000	0.00000E+000	-7.33871E-004	7	...........
	641	64.2	-1.02067E-002	-8.01316E-006	0.00000E+000	-9.99874E-003	-1.07376E-002	7	...........
	642	64.3	-2.00069E-002	-8.09500E-006	0.00000E+000	-1.99975E-002	-2.03411E-002	7	...........
	643	64.4	-3.00072E-002	-8.17350E-006	0.00000E+000	-2.99962E-002	-3.03448E-002	7	...........
	644	64.5	-4.00074E-002	-8.25868E-006	0.00000E+000	-3.99949E-002	-4.05486E-002	7	...........
	645	64.6	-5.00076E-002	-8.35054E-006	0.00000E+000	-4.99937E-002	-5.05523E-002	7	...........
	646	64.7	-6.00078E-002	-8.43906E-006	0.00000E+000	-5.99924E-002	-6.05560E-002	7	...........
	647	64.8	-7.00081E-002	-8.54094E-006	0.00000E+000	-6.99912E-002	-7.03596E-002	7	...........
	648	64.9	-8.02083E-002	-8.64617E-006	0.00000E+000	-7.99899E-002	-8.03633E-002	7	...........
	649	65	-9.04085E-002	-8.75306E-006	0.00000E+000	-8.99886E-002	-9.05671E-002	7	...........
	650	65.1	-1.00009E-001	-8.87499E-006	0.00000E+000	-9.99874E-002	-1.00371E-001	7	...........
	651	65.2	-1.10009E-001	-8.99524E-006	0.00000E+000	-1.09986E-001	-1.10174E-001	7	...........
	652	65.3	-1.20009E-001	-9.12886E-006	0.00000E+000	-1.19985E-001	-1.20378E-001	7	...........
	653	65.4	-1.30209E-001	-9.27417E-006	0.00000E+000	-1.29984E-001	-1.30382E-001	7	...........
	654	65.5	-1.40010E-001	-9.42449E-006	0.00000E+000	-1.39982E-001	-1.40185E-001	7	...........
	655	65.6	-1.50010E-001	-9.59318E-006	0.00000E+000	-1.49981E-001	-1.50389E-001	7	...........
	656	65.7	-1.60010E-001	-9.76688E-006	0.00000E+000	-1.59980E-001	-1.60393E-001	7	...........
	657	65.8	-1.70010E-001	-9.95729E-006	0.00000E+000	-1.69979E-001	-1.70397E-001	7	...........
	658	65.9	-1.80011E-001	-1.01644E-005	0.00000E+000	-1.79977E-001	-1.80200E-001	7	...........
	659	66	-1.90011E-001	-1.03798E-005	0.00000E+000	-1.89976E-001	-1.90404E-001	7	...........
	660	66.1	-2.00211E-001	-1.06187E-005	0.00000E+000	-1.99975E-001	-2.00208E-001	7	...........
	661	66.2	-2.10011E-001	-1.08659E-005	0.00000E+000	-2.09973E-001	-2.10411E-001	7	...........
	662	66.3	-2.20211E-001	-1.11465E-005	0.00000E+000	-2.20022E-001	-2.20215E-001	7	...........
	663	66.4	-2.30012E-001	-1.14237E-005	0.00000E+000	-2.30021E-001	-2.30419E-001	7	...........
	664	66.5	-2.40012E-001	-1.17177E-005	0.00000E+000	-2.40020E-001	-2.40422E-001	7	...........
	665	66.6	-2.49812E-001	-1.20367E-005	0.00000E+000	-2.50018E-001	-2.50426E-001	7	...........
	666	66.7	-2.60012E-001	-1.23707E-005	0.00000E+000	-2.60017E-001	-2.60230E-001	7	...........
	667	66.8	-2.70013E-001	-1.27181E-005	0.00000E+000	-2.70016E-001	-2.70434E-001	7	...........
	668	66.9	-2.80013E-001	-1.30839E-005	0.00000E+000	-2.80015E-001	-2.80437E-001	7	...........
	669	67	-2.90013E-001	-1.34614E-005	0.00000E+000	-2.90013E-001	-2.90041E-001	7	...........
	670	67.1	-3.00013E-001	-1.38522E-005	0.00000E+000	-3.00012E-001	-3.00245E-001	7	...........
	671	67.2	-3.10014E-001	-1.42598E-005	0.00000E+000	-3.10011E-001	-3.10248E-001	7	...........
	672	67.3	-3.19814E-001	-1.46773E-005	0.00000E+000	-3.20010E-001	-3.20252E-001	7	...........
	673	67.4	-3.29814E-001	-1.51082E-005	0.00000E+000	-3.30008E-001	-3.30256E-001	7	...........
	674	67.5	-3.39814E-001	-1.55458E-005	0.00000E+000	-3.40007E-001	-3.40259E-001	7	...........
	675	67.6	-3.50214E-001	-1.59968E-005	0.00000E+000	-3.50006E-001	-3.50463E-001	7	...........
	676	67.7	-3.60015E-001	-1.64578E-005	0.00000E+000	-3.60005E-001	-3.60267E-001	7	...........
	677	67.8	-3.70015E-001	-1.69271E-005	0.00000E+000	-3.70003E-001	-3.70270E-001	7	...........
	678	67.9	-3.79815E-001	-1.74064E-005	0.00000E+000	-3.80002E-001	-3.80274E-001	7	...........
	679	68	-3.90015E-001	-1.78891E-005	0.00000E+000	-3.90001E-001	-3.90078E-001	7	...........
	680	68.1	-4.00016E-001	-1.83818E-005	0.00000E+000	-3.99999E-001	-4.00282E-001	7	...........
	681	68.2	-4.09816E-001	-1.88846E-005	0.00000E+000	-4.09998E-001	-4.10285E-001	7	...........
	682	68.3	-4.19816E-001	-1.93907E-005	0.00000E+000	-4.19997E-001	-4.20289E-001	7	...........
	683	68.4	-4.29816E-001	-1.99101E-005	0.00000E+000	-4.29996E-001	-4.30093E-001	7	...........
	684	68.5	-4.40016E-001	-2.04312E-005	0.00000E+000	-4.39994E-001	-4.40096E-001	7	...........
	685	68.6	-4.49817E-001	-2.09640E-005	0.00000E+000	-4.49993E-001	-4.50300E-001	7	...........
	686	68.7	-4.59817E-001	-2.15051E-005	0.00000E+000	-4.59992E-001	-4.60104E-001	7	...........
	687	68.8	-4.70017E-001	-2.20480E-005	0.00000E+000	-4.69991E-001	-4.70107E-001	7	...........
	688	68.9	-4.79817E-001	-2.26142E-005	0.00000E+000	-4.79989E-001	-4.80111E-001	7	...........
	689	69	-4.89818E-001	-2.31820E-005	0.00000E+000	-4.89988E-001	-4.90115E-001	7	...........
	690	69.1	-4.99818E-001	-2.37616E-005	0.00000E+000	-4.99987E-001	-5.00118E-001	7	...........
	691	69.2	-5.10018E-001	-2.43612E-005	0.00000E+000	-5.09986E-001	-5.10122E-001	7	...........
	692	69.3	-5.19818E-001	-2.49625E-005	0.00000E+000	-5.19984E-001	-5.20126E-001	7	...........
	693	69.4	-5.29819E-001	-2.55905E-005	0.00000E+000	-5.29983E-001	-5.30130E-001	7	...........
	694	69.5	-5.39619E-001	-2.62302E-005	0.00000E+000	-5.39982E-001	-5.40133E-001	7	...........
	695	69.6	-5.49819E-001	-2.68916E-005	0.00000E+000	-5.49981E-001	-5.49937E-001	7	...........
	696	69.7	-5.59819E-001	-2.75747E-005	0.00000E+000	-5.59979E-001	-5.60141E-001	7	...........
	697	69.8	-5.69619E-001	-2.82678E-005	0.00000E+000	-5.69978E-001	-5.70144E-001	7	...........
	698	69.9	-5.79820E-001	-2.89977E-005	0.00000E+000	-5.79977E-001	-5.79948E-001	7	...........
	699	70	-5.89820E-001	-2.97527E-005	0.00000E+000	-5.89975E-001	-5.89952E-001	7	...........
	700	70.1	-5.99620E-001	-3.05193E-005	0.00000E+000	-5.99974E-001	-6.00155E-001	7	...........
	701	70.2	-6.09620E-001	-3.13327E-005	0.00000E+000	-6.09973E-001	-6.09959E-001	7	...........
	702	70.3	-6.19821E-001	-3.21912E-005	0.00000E+000	-6.20022E-001	-6.20163E-001	7	...........
	703	70.4	-6.29821E-001	-3.30480E-005	0.00000E+000	-6.30020E-001	-6.30167E-001	7	...........
	704	70.5	-6.39621E-001	-3.39516E-005	0.00000E+000	-6.40019E-001	-6.40170E-001	7	...........
	705	70.6	-6.49621E-001	-3.48936E-005	0.00000E+000	-6.50018E-001	-6.50174E-001	7	...........
	706	70.7	-6.59822E-001	-3.58807E-005	0.00000E+000	-6.60017E-001	-6.59777E-001	7	...........
	707	70.8	-6.69822E-001	-3.69012E-005	0.00000E+000	-6.70015E-001	-6.69981E-001	7	...........
	708	70.9	-6.79822E-001	-3.79718E-005	0.00000E+000	-6.80014E-001	-6.79985E-001	7	...........
	709	71	-6.89422E-001	-3.90992E-005	0.00000E+000	-6.90013E-001	-6.89789E-001	7	...........
	710	71.1	-6.99622E-001	-4.02583E-005	0.00000E+000	-7.00012E-001	-6.99992E-001	7	...........
	711	71.2	-7.09623E-001	-4.14842E-005	0.00000E+000	-7.10010E-001	-7.09996E-001	7	...........
	712	71.3	-7.19623E-001	-4.27686E-005	0.00000E+000	-7.20009E-001	-7.20000E-001	7	...........
	713	71.4	-7.29823E-001	-4.41048E-005	0.00000E+000	-7.30008E-001	-7.30003E-001	7	...........
	714	71.5	-7.39823E-001	-4.55161E-005	0.00000E+000	-7.40007E-001	-7.39807E-001	7	...........
	715	71.6	-7.49624E-001	-5.78094E-005	0.00000E+000	-7.50005E-001	-7.50011E-001	8	...........
	716	71.7	-7.59624E-001	-4.38524E-005	0.00000E+000	-7.60004E-001	-7.59614E-001	8	...........
	717	71.8	-7.69824E-001	-5.24169E-005	0.00000E+000	-7.70003E-001	-7.70218E-001	8	...........
	718	71.9	-7.79624E-001	-5.34520E-005	0.00000E+000	-7.80001E-001	-7.80022E-001	8	...........
	719	72	-7.89624E-001	-5.52884E-005	0.00000E+000	-7.90000E-001	-7.90026E-001	8	...........
	720	72.1	-7.99625E-001	-5.72083E-005	0.00000E+000	-7.99999E-001	-8.00029E-001	8	...........
	721	72.2	-7.90224E-001	-3.54214E-005	0.00000E+000	-7.90000E-001	-7.89825E-001	8	...........
	722	72.3	-7.80024E-001	-2.91948E-005	0.00000E+000	-7.80001E-001	-7.79822E-001	7	...........
	723	72.4	-7.69824E-001	-2.63554E-005	0.00000E+000	-7.70003E-001	-7.69818E-001	7	...........
	724	72.5	-7.60024E-001	-2.20496E-005	0.00000E+000	-7.60004E-001	-7.60015E-001	7	...........
	725	72.6	-7.50224E-001	-1.91501E-005	0.00000E+000	-7.50005E-001	-7.50011E-001	7	...........
	726	72.7	-7.40023E-001	-1.66999E-005	0.00000E+000	-7.40007E-001	-7.40007E-001	7	...........
	727	72.8	-7.30023E-001	-1.46105E-005	0.00000E+000	-7.30008E-001	-7.30003E-001	7	...........
	728	72.9	-7.20223E-001	-1.28250E-005	0.00000E+000	-7.20009E-001	-7.20000E-001	7	...........
	729	73	-7.10023E-001	-1.12651E-005	0.00000E+000	-7.10010E-001	-7.09996E-001	7	...........
	730	73.1	-7.00022E-001	-9.89716E-006	0.00000E+000	-7.00012E-001	-7.00192E-001	7	...........
	731	73.2	-6.90222E-001	-8.68959E-006	0.00000E+000	-6.90013E-001	-6.89989E-001	7	...........
	732	73.3	-6.80222E-001	-7.60061E-006	0.00000E+000	-6.80014E-001	-6.79985E-001	7	...........
	733	73.4	-6.70022E-001	-6.64024E-006	0.00000E+000	-6.70015E-001	-6.70181E-001	7	...........
	734	73.5	-6.60222E-001	-5.76505E-006	0.00000E+000	-6.60017E-001	-6.59978E-001	7	...........
	735	73.6	-6.50221E-001	-4.96502E-006	0.00000E+000	-6.50018E-001	-6.49974E-001	7	...........
	736	73.7	-6.40021E-001	-4.25184E-006	0.00000E+000	-6.40019E-001	-6.39970E-001	7	...........
	737	73.8	-6.30221E-001	-3.58876E-006	0.00000E+000	-6.30020E-001	-6.30167E-001	7	...........
	738	73.9	-6.20221E-001	-2.97913E-006	0.00000E+000	-6.20022E-001	-6.20163E-001	7	...........
	739	74	-6.10020E-001	-2.39623E-006	0.00000E+000	-6.09973E-001	-6.09959E-001	7	...........
	740	74.1	-6.00220E-001	-1.88681E-006	0.00000E+000	-5.99974E-001	-6.00155E-001	7	...........
	741	74.2	-5.90220E-001	-1.41414E-006	0.00000E+000	-5.89975E-001	-5.89952E-001	7	...........
	742	74.3	-5.80220E-001	-9.58174E-007	0.00000E+000	-5.79977E-001	-5.79948E-001	7	...........
	743	74.4	-5.70219E-001	-5.42291E-007	0.00000E+000	-5.69978E-001	-5.69944E-001	7	...........
	744	74.5	-5.60019E-001	-1.53131E-007	0.00000E+000	-5.59979E-001	-5.59941E-001	7	...........
	745	74.6	-5.50219E-001	2.24337E-007	0.00000E+000	-5.49981E-001	-5.50137E-001	7	...........
	746	74.7	-5.40219E-001	5.70072E-007	0.00000E+000	-5.39982E-001	-5.40133E-001	7	...........
	747	74.8	-5.30219E-001	9.04114E-007	0.00000E+000	-5.29983E-001	-5.29930E-001	7	...........
	748	74.9	-5.20218E-001	1.21477E-006	0.00000E+000	-5.19984E-001	-5.20126E-001	7	...........
	749	75	-5.10018E-001	1.50706E-006	0.00000E+000	-5.09986E-001	-5.10122E-001	7	...........
	750	75.1	-5.00218E-001	1.79267E-006	0.00000E+000	-4.99987E-001	-5.00118E-001	7	...........
	751	75.2	-4.90018E-001	2.06157E-006	0.00000E+000	-4.89988E-001	-4.89915E-001	7	...........
	752	75.3	-4.80217E-001	2.31712E-006	0.00000E+000	-4.79989E-001	-4.80111E-001	7	...........
	753	75.4	-4.70217E-001	2.56431E-006	0.00000E+000	-4.69991E-001	-4.70107E-001	7	...........
	754	75.5	-4.60217E-001	2.79647E-006	0.00000E+000	-4.59992E-001	-4.60104E-001	7	...........
	755	75.6	-4.50017E-001	3.02529E-006	0.00000E+000	-4.49993E-001	-4.50100E-001	7	...........
	756	75.7	-4.40417E-001	3.23907E-006	0.00000E+000	-4.39994E-001	-4.40096E-001	7	...........
	757	75.8	-4.30216E-001	3.44618E-006	0.00000E+000	-4.29996E-001	-4.30293E-001	7	...........
	758	75.9	-4.20216E-001	3.64828E-006	0.00000E+000	-4.19997E-001	-4.20289E-001	7	...........
	759	76	-4.10216E-001	3.83701E-006	0.00000E+000	-4.09998E-001	-4.10285E-001	7	...........
	760	76.1	-4.00416E-001	4.02240E-006	0.00000E+000	-3.99999E-001	-4.00282E-001	7	...........
	761	76.2	-3.90415E-001	4.20112E-006	0.00000E+000	-3.90001E-001	-3.90278E-001	7	...........
	762	76.3	-3.80415E-001	4.37482E-006	0.00000E+000	-3.80002E-001	-3.80274E-001	7	...........
	763	76.4	-3.70215E-001	4.54017E-006	0.00000E+000	-3.70003E-001	-3.70270E-001	7	...........
	764	76.5	-3.60415E-001	4.70051E-006	0.00000E+000	-3.60005E-001	-3.60267E-001	7	...........
	765	76.6	-3.50414E-001	4.85751E-006	0.00000E+000	-3.50006E-001	-3.50063E-001	7	...........
	766	76.7	-3.40414E-001	5.00783E-006	0.00000E+000	-3.40007E-001	-3.40259E-001	7	...........
	767	76.8	-3.30414E-001	5.14980E-006	0.00000E+000	-3.30008E-001	-3.30256E-001	7	...........
	768	76.9	-3.20414E-001	5.29177E-006	0.00000E+000	-3.20010E-001	-3.20252E-001	7	...........
	769	77	-3.10414E-001	5.42538E-006	0.00000E+000	-3.10011E-001	-3.10248E-001	7	...........
	770	77.1	-3.00213E-001	5.55900E-006	0.00000E+000	-3.00012E-001	-3.00245E-001	7	...........
	771	77.2	-2.90613E-001	5.68427E-006	0.00000E+000	-2.90013E-001	-2.90241E-001	7	...........
	772	77.3	-2.80413E-001	5.80452E-006	0.00000E+000	-2.80015E-001	-2.80437E-001	7	...........
	773	77.4	-2.70413E-001	5.92478E-006	0.00000E+000	-2.70016E-001	-2.70233E-001	7	...........
	774	77.5	-2.60212E-001	6.03835E-006	0.00000E+000	-2.60017E-001	-2.60430E-001	7	...........
	775	77.6	-2.50212E-001	6.14691E-006	0.00000E+000	-2.50018E-001	-2.50226E-001	7	...........
	776	77.7	-2.40412E-001	6.25214E-006	0.00000E+000	-2.40020E-001	-2.40222E-001	7	...........
	777	77.8	-2.30412E-001	6.34734E-006	0.00000E+000	-2.30021E-001	-2.30419E-001	7	...........
	778	77.9	-2.20411E-001	6.44922E-006	0.00000E+000	-2.20022E-001	-2.20415E-001	7	...........
	779	78	-2.10411E-001	6.55278E-006	0.00000E+000	-2.09973E-001	-2.10411E-001	7	...........
	780	78.1	-2.00411E-001	6.62961E-006	0.00000E+000	-1.99975E-001	-2.00408E-001	7	...........
	781	78.2	-1.90411E-001	6.71813E-006	0.00000E+000	-1.89976E-001	-1.90404E-001	7	...........
	782	78.3	-1.80411E-001	6.79830E-006	0.00000E+000	-1.79977E-001	-1.80400E-001	7	...........
	783	78.4	-1.70610E-001	6.87680E-006	0.00000E+000	-1.69979E-001	-1.70597E-001	7	...........
	784	78.5	-1.60610E-001	6.95196E-006	0.00000E+000	-1.59980E-001	-1.60393E-001	7	...........
	785	78.6	-1.50410E-001	7.02211E-006	0.00000E+000	-1.49981E-001	-1.50189E-001	7	...........
	786	78.7	-1.40410E-001	7.09560E-006	0.00000E+000	-1.39982E-001	-1.40385E-001	7	...........
	787	78.8	-1.30609E-001	7.16074E-006	0.00000E+000	-1.29984E-001	-1.30582E-001	7	...........
	788	78.9	-1.20409E-001	7.22754E-006	0.00000E+000	-1.19985E-001	-1.20378E-001	7	...........
	789	79	-1.10609E-001	7.29435E-006	0.00000E+000	-1.09986E-001	-1.10374E-001	7	...........
	790	79.1	-1.00609E-001	7.35615E-006	0.00000E+000	-9.99874E-002	-1.00371E-001	7	...........
	791	79.2	-9.06085E-002	7.42129E-006	0.00000E+000	-8.99886E-002	-9.03670E-002	7	...........
	792	79.3	-8.06083E-002	7.47975E-006	0.00000E+000	-7.99899E-002	-8.05634E-002	7	...........
	793	79.4	-7.06081E-002	7.54321E-006	0.00000E+000	-6.99912E-002	-7.03596E-002	7	...........
	794	79.5	-6.04079E-002	7.60501E-006	0.00000E+000	-5.99924E-002	-6.03559E-002	7	...........
	795	79.6	-5.04076E-002	7.66514E-006	0.00000E+000	-4.99937E-002	-5.03522E-002	7	...........
	796	79.7	-4.06074E-002	7.73028E-006	0.00000E+000	-3.99949E-002	-4.03485E-002	7	...........
	797	79.8	-3.04072E-002	7.79542E-006	0.00000E+000	-2.99962E-002	-3.07450E-002	7	...........
	798	79.9	-2.08070E-002	7.85721E-006	0.00000E+000	-1.99975E-002	-2.03411E-002	7	...........
	799	80	-1.04067E-002	7.92903E-006	0.00000E+000	-9.99874E-003	-1.07376E-002	7	...........
	800	80.1	-6.06494E-004	7.98916E-006	0.00000E+000	0.00000E+000	-7.33871E-004	7	...........
	801	80.2	9.59374E-003	8.06265E-006	0.00000E+000	9.99874E-003	9.46990E-003	7	...........
	802	80.3	1.93940E-002	8.13113E-006	0.00000E+000	1.99975E-002	1.94736E-002	7	...........
	803	80.4	2.91942E-002	8.21130E-006	0.00000E+000	2.99962E-002	2.92772E-002	7	...........
	804	80.5	3.93944E-002	8.28980E-006	0.00000E+000	3.99949E-002	3.92809E-002	7	...........
	805	80.6	4.93946E-002	8.36997E-006	0.00000E+000	4.99937E-002	4.94847E-002	7	...........
	806	80.7	5.93949E-002	8.45849E-006	0.00000E+000	5.99924E-002	5.94884E-002	7	...........
	807	80.8	6.93951E-002	8.55035E-006	0.00000E+000	6.99912E-002	6.92920E-002	7	...........
	808	80.9	7.93953E-002	8.64723E-006	0.00000E+000	7.99899E-002	7.94958E-002	7	...........
	809	81	8.91955E-002	8.75245E-006	0.00000E+000	8.99886E-002	8.94995E-002	7	...........
	810	81.1	9.91958E-002	8.86268E-006	0.00000E+000	9.99874E-002	9.95032E-002	7	...........
	811	81.2	1.09396E-001	8.98461E-006	0.00000E+000	1.09986E-001	1.09507E-001	7	...........
	812	81.3	1.19396E-001	9.11321E-006	0.00000E+000	1.19985E-001	1.19310E-001	7	...........
	813	81.4	1.29196E-001	9.25184E-006	0.00000E+000	1.29984E-001	1.29314E-001	7	...........
	814	81.5	1.39397E-001	9.40717E-006	0.00000E+000	1.39982E-001	1.39318E-001	7	...........
	815	81.6	1.49197E-001	9.56751E-006	0.00000E+000	1.49981E-001	1.49322E-001	7	...........
	816	81.7	1.59397E-001	9.74957E-006	0.00000E+000	1.59980E-001	1.59325E-001	7	...........
	817	81.8	1.69397E-001	9.94331E-006	0.00000E+000	1.69979E-001	1.69329E-001	7	...........
	818	81.9	1.79198E-001	1.01504E-005	0.00000E+000	1.79977E-001	1.79333E-001	7	...........
	819	82	1.89198E-001	1.03959E-005	0.00000E+000	1.90026E-001	1.89336E-001	7	...........
	820	82.1	1.99398E-001	1.06348E-005	0.00000E+000	2.00025E-001	1.99140E-001	7	...........
	821	82.2	2.09398E-001	1.08920E-005	0.00000E+000	2.10023E-001	2.09344E-001	7	...........
	822	82.3	2.19399E-001	1.11826E-005	0.00000E+000	2.20022E-001	2.19347E-001	7	...........
	823	82.4	2.29199E-001	1.14782E-005	0.00000E+000	2.30021E-001	2.29151E-001	7	...........
	824	82.5	2.39399E-001	1.17972E-005	0.00000E+000	2.40020E-001	2.39155E-001	7	...........
	825	82.6	2.49199E-001	1.21263E-005	0.00000E+000	2.50018E-001	2.49159E-001	7	...........
	826	82.7	2.59199E-001	1.24703E-005	0.00000E+000	2.60017E-001	2.59362E-001	7	...........
	827	82.8	2.69400E-001	1.28311E-005	0.00000E+000	2.70016E-001	2.69366E-001	7	...........
	828	82.9	2.79200E-001	1.31952E-005	0.00000E+000	2.80015E-001	2.79170E-001	7	...........
	829	83	2.89200E-001	1.35727E-005	0.00000E+000	2.90013E-001	2.89173E-001	7	...........
	830	83.1	2.99200E-001	1.39485E-005	0.00000E+000	3.00012E-001	2.99177E-001	7	...........
	831	83.2	3.09201E-001	1.43293E-005	0.00000E+000	3.10011E-001	3.09181E-001	7	...........
	832	83.3	3.19201E-001	1.47201E-005	0.00000E+000	3.20010E-001	3.19184E-001	7	...........
	833	83.4	3.29201E-001	1.51009E-005	0.00000E+000	3.30008E-001	3.29388E-001	7	...........
	834	83.5	3.39401E-001	1.54868E-005	0.00000E+000	3.40007E-001	3.39192E-001	7	...........
	835	83.6	3.49201E-001	1.58709E-005	0.00000E+000	3.50006E-001	3.49195E-001	7	...........
	836	83.7	3.59202E-001	1.62467E-005	0.00000E+000	3.60005E-001	3.59199E-001	7	...........
	837	83.8	3.69202E-001	1.66308E-005	0.00000E+000	3.70003E-001	3.69403E-001	7	...........
	838	83.9	3.79202E-001	1.70066E-005	0.00000E+000	3.80002E-001	3.79007E-001	7	...........
	839	84	3.89202E-001	1.73824E-005	0.00000E+000	3.90001E-001	3.89210E-001	7	...........
	840	84.1	3.99403E-001	1.77633E-005	0.00000E+000	3.99999E-001	3.99214E-001	7	...........
	841	84.2	4.09203E-001	1.81340E-005	0.00000E+000	4.09998E-001	4.09218E-001	7	...........
	842	84.3	4.19203E-001	1.85148E-005	0.00000E+000	4.19997E-001	4.19221E-001	7	...........
	843	84.4	4.29203E-001	1.88940E-005	0.00000E+000	4.29996E-001	4.29025E-001	7	...........
	844	84.5	4.39203E-001	1.92765E-005	0.00000E+000	4.39994E-001	4.39029E-001	7	...........
	845	84.6	4.49004E-001	1.96656E-005	0.00000E+000	4.49993E-001	4.49032E-001	7	...........
	846	84.7	4.59204E-001	2.00531E-005	0.00000E+000	4.59992E-001	4.59036E-001	7	...........
	847	84.8	4.69004E-001	2.04506E-005	0.00000E+000	4.69991E-001	4.69040E-001	7	...........
	848	84.9	4.79004E-001	2.08531E-005	0.00000E+000	4.79989E-001	4.79043E-001	7	...........
	849	85	4.89205E-001	2.12623E-005	0.00000E+000	4.89988E-001	4.89047E-001	7	...........
	850	85.1	4.99005E-001	2.16766E-005	0.00000E+000	4.99987E-001	4.99051E-001	7	...........
	851	85.2	5.09005E-001	2.21008E-005	0.00000E+000	5.09986E-001	5.09055E-001	7	...........
	852	85.3	5.19205E-001	2.25367E-005	0.00000E+000	5.19984E-001	5.19258E-001	7	...........
	853	85.4	5.29206E-001	2.29793E-005	0.00000E+000	5.29983E-001	5.29062E-001	7	...........
	854	85.5	5.39006E-001	2.34320E-005	0.00000E+000	5.39982E-001	5.39066E-001	7	...........
	855	85.6	5.49206E-001	2.38996E-005	0.00000E+000	5.49981E-001	5.49069E-001	7	...........
	856	85.7	5.59006E-001	2.43706E-005	0.00000E+000	5.59979E-001	5.59073E-001	7	...........
	857	85.8	5.69406E-001	2.48600E-005	0.00000E+000	5.69978E-001	5.69077E-001	7	...........
	858	85.9	5.78807E-001	2.53661E-005	0.00000E+000	5.79977E-001	5.78880E-001	7	...........
	859	86	5.89007E-001	2.58772E-005	0.00000E+000	5.89975E-001	5.88884E-001	7	...........
	860	86.1	5.99207E-001	2.64367E-005	0.00000E+000	6.00024E-001	5.99088E-001	7	...........
	861	86.2	6.09007E-001	2.69695E-005	0.00000E+000	6.10023E-001	6.08891E-001	7	...........
	862	86.3	6.19208E-001	2.75307E-005	0.00000E+000	6.20022E-001	6.19095E-001	7	...........
	863	86.4	6.29008E-001	2.81152E-005	0.00000E+000	6.30020E-001	6.29099E-001	7	...........
	864	86.5	6.39008E-001	2.87098E-005	0.00000E+000	6.40019E-001	6.38903E-001	7	...........
	865	86.6	6.49008E-001	2.93362E-005	0.00000E+000	6.50018E-001	6.48906E-001	7	...........
	866	86.7	6.59009E-001	2.99708E-005	0.00000E+000	6.60017E-001	6.58910E-001	7	...........
	867	86.8	6.69209E-001	3.06339E-005	0.00000E+000	6.70015E-001	6.68914E-001	7	...........
	868	86.9	6.79009E-001	3.13204E-005	0.00000E+000	6.80014E-001	6.78917E-001	7	...........
	869	87	6.89009E-001	3.20235E-005	0.00000E+000	6.90013E-001	6.88921E-001	7	...........
	870	87.1	6.99009E-001	3.27601E-005	0.00000E+000	7.00012E-001	6.98925E-001	7	...........
	871	87.2	7.09010E-001	3.35184E-005	0.00000E+000	7.10010E-001	7.08928E-001	7	...........
	872	87.3	7.19210E-001	3.43017E-005	0.00000E+000	7.20009E-001	7.18932E-001	7	...........
	873	87.4	7.29010E-001	3.51218E-005	0.00000E+000	7.30008E-001	7.28936E-001	7	...........
	874	87.5	7.39210E-001	3.59602E-005	0.00000E+000	7.40007E-001	7.38940E-001	7	...........
	875	87.6	7.49011E-001	3.68404E-005	0.00000E+000	7.50005E-001	7.48943E-001	7	...........
	876	87.7	7.59011E-001	3.77474E-005	0.00000E+000	7.60004E-001	7.58947E-001	7	...........
	877	87.8	7.69011E-001	3.86860E-005	0.00000E+000	7.70003E-001	7.68751E-001	7	...........
	878	87.9	7.78811E-001	3.96731E-005	0.00000E+000	7.80001E-001	7.78754E-001	7	...........
	879	88	7.88811E-001	4.06836E-005	0.00000E+000	7.90000E-001	7.88758E-001	7	...........
	880	88.1	7.98812E-001	4.17342E-005	0.00000E+000	7.99999E-001	7.98762E-001	7	...........
CURVE4	TABLE
	Pt	T	Vf	Im	Vu	Sig	Ach	IERange	Over
	#	s	V vs. Ref.	A	V	V	V	#	bits
	881	88.2	7.89811E-001	2.81286E-005	0.00000E+000	7.90000E-001	7.88958E-001	7	...........
	882	88.3	7.79411E-001	2.26570E-005	0.00000E+000	7.80001E-001	7.78954E-001	7	...........
	883	88.4	7.69211E-001	1.89975E-005	0.00000E+000	7.70003E-001	7.68951E-001	7	...........
	884	88.5	7.59411E-001	1.61732E-005	0.00000E+000	7.60004E-001	7.58947E-001	7	...........
	885	88.6	7.49411E-001	1.39017E-005	0.00000E+000	7.50005E-001	7.49143E-001	7	...........
	886	88.7	7.39210E-001	1.20160E-005	0.00000E+000	7.40007E-001	7.38940E-001	7	...........
	887	88.8	7.29610E-001	1.04243E-005	0.00000E+000	7.30008E-001	7.28936E-001	7	...........
	888	88.9	7.19610E-001	9.04474E-006	0.00000E+000	7.20009E-001	7.18932E-001	7	...........
	889	89	7.09610E-001	7.84552E-006	0.00000E+000	7.10010E-001	7.08928E-001	7	...........
	890	89.1	6.99409E-001	6.78160E-006	0.00000E+000	7.00012E-001	6.98725E-001	7	...........
	891	89.2	6.89409E-001	5.83292E-006	0.00000E+000	6.90013E-001	6.88921E-001	7	...........
	892	89.3	6.79609E-001	4.99113E-006	0.00000E+000	6.80014E-001	6.78917E-001	7	...........
	893	89.4	6.69609E-001	4.22283E-006	0.00000E+000	6.70015E-001	6.69114E-001	7	...........
	894	89.5	6.59608E-001	3.53637E-006	0.00000E+000	6.60017E-001	6.59110E-001	7	...........
	895	89.6	6.49408E-001	2.90837E-006	0.00000E+000	6.50018E-001	6.49106E-001	7	...........
	896	89.7	6.39608E-001	2.32547E-006	0.00000E+000	6.40019E-001	6.38903E-001	7	...........
	897	89.8	6.29608E-001	1.79935E-006	0.00000E+000	6.30020E-001	6.29099E-001	7	...........
	898	89.9	6.19408E-001	1.31165E-006	0.00000E+000	6.20022E-001	6.18895E-001	7	...........
	899	90	6.09407E-001	8.62359E-007	0.00000E+000	6.10023E-001	6.08891E-001	7	...........
	900	90.1	5.99607E-001	4.43135E-007	0.00000E+000	6.00024E-001	5.99088E-001	7	...........
	901	90.2	5.89607E-001	2.55819E-008	0.00000E+000	5.89975E-001	5.89084E-001	7	...........
	902	90.3	5.79607E-001	-3.18482E-007	0.00000E+000	5.79977E-001	5.78880E-001	7	...........
	903	90.4	5.69406E-001	-6.60876E-007	0.00000E+000	5.69978E-001	5.69277E-001	7	...........
	904	90.5	5.59606E-001	-9.79887E-007	0.00000E+000	5.59979E-001	5.59073E-001	7	...........
	905	90.6	5.49406E-001	-1.27718E-006	0.00000E+000	5.49981E-001	5.48869E-001	7	...........
	906	90.7	5.39606E-001	-1.56279E-006	0.00000E+000	5.39982E-001	5.39066E-001	7	...........
	907	90.8	5.29606E-001	-1.82669E-006	0.00000E+000	5.29983E-001	5.29062E-001	7	...........
	908	90.9	5.19605E-001	-2.08223E-006	0.00000E+000	5.19984E-001	5.19058E-001	7	...........
	909	91	5.09405E-001	-2.32441E-006	0.00000E+000	5.09986E-001	5.09055E-001	7	...........
	910	91.1	4.99605E-001	-2.54989E-006	0.00000E+000	4.99987E-001	4.99051E-001	7	...........
	911	91.2	4.89605E-001	-2.76869E-006	0.00000E+000	4.89988E-001	4.89047E-001	7	...........
	912	91.3	4.79404E-001	-2.97412E-006	0.00000E+000	4.79989E-001	4.79043E-001	7	...........
	913	91.4	4.69604E-001	-3.16954E-006	0.00000E+000	4.69991E-001	4.69240E-001	7	...........
	914	91.5	4.59604E-001	-3.36161E-006	0.00000E+000	4.59992E-001	4.59036E-001	7	...........
	915	91.6	4.49604E-001	-3.53865E-006	0.00000E+000	4.49993E-001	4.49232E-001	7	...........
	916	91.7	4.39604E-001	-3.71403E-006	0.00000E+000	4.39994E-001	4.39229E-001	7	...........
	917	91.8	4.29603E-001	-3.87938E-006	0.00000E+000	4.29996E-001	4.29225E-001	7	...........
	918	91.9	4.19603E-001	-4.04306E-006	0.00000E+000	4.19997E-001	4.19021E-001	7	...........
	919	92	4.09603E-001	-4.19672E-006	0.00000E+000	4.09998E-001	4.09218E-001	7	...........
	920	92.1	3.99603E-001	-4.34036E-006	0.00000E+000	3.99999E-001	3.99214E-001	7	...........
	921	92.2	3.89602E-001	-4.48733E-006	0.00000E+000	3.90001E-001	3.89010E-001	7	...........
	922	92.3	3.79802E-001	-4.62596E-006	0.00000E+000	3.80002E-001	3.79007E-001	7	...........
	923	92.4	3.69802E-001	-4.75958E-006	0.00000E+000	3.70003E-001	3.69203E-001	7	...........
	924	92.5	3.59802E-001	-4.89320E-006	0.00000E+000	3.60005E-001	3.59199E-001	7	...........
	925	92.6	3.49601E-001	-5.01679E-006	0.00000E+000	3.50006E-001	3.49195E-001	7	...........
	926	92.7	3.39401E-001	-5.14540E-006	0.00000E+000	3.40007E-001	3.39192E-001	7	...........
	927	92.8	3.29601E-001	-5.26398E-006	0.00000E+000	3.30008E-001	3.29188E-001	7	...........
	928	92.9	3.19601E-001	-5.37756E-006	0.00000E+000	3.20010E-001	3.19184E-001	7	...........
	929	93	3.09801E-001	-5.49614E-006	0.00000E+000	3.10011E-001	3.09181E-001	7	...........
	930	93.1	2.99600E-001	-5.60137E-006	0.00000E+000	3.00012E-001	2.99177E-001	7	...........
	931	93.2	2.89800E-001	-5.71160E-006	0.00000E+000	2.90013E-001	2.89173E-001	7	...........
	932	93.3	2.79600E-001	-5.81850E-006	0.00000E+000	2.80015E-001	2.79370E-001	7	...........
	933	93.4	2.69800E-001	-5.91537E-006	0.00000E+000	2.70016E-001	2.69366E-001	7	...........
	934	93.5	2.59799E-001	-6.01558E-006	0.00000E+000	2.60017E-001	2.59362E-001	7	...........
	935	93.6	2.49599E-001	-6.10744E-006	0.00000E+000	2.50018E-001	2.49159E-001	7	...........
	936	93.7	2.39799E-001	-6.19930E-006	0.00000E+000	2.40020E-001	2.39355E-001	7	...........
	937	93.8	2.29799E-001	-6.29117E-006	0.00000E+000	2.30021E-001	2.29351E-001	7	...........
	938	93.9	2.19999E-001	-6.37468E-006	0.00000E+000	2.20022E-001	2.19548E-001	7	...........
	939	94	2.09798E-001	-6.46320E-006	0.00000E+000	2.10023E-001	2.09344E-001	7	...........
	940	94.1	1.99798E-001	-6.53836E-006	0.00000E+000	2.00025E-001	1.99340E-001	7	...........
	941	94.2	1.89798E-001	-6.61853E-006	0.00000E+000	1.90026E-001	1.89336E-001	7	...........
	942	94.3	1.79598E-001	-6.71373E-006	0.00000E+000	1.79977E-001	1.79333E-001	7	...........
	943	94.4	1.69597E-001	-6.77219E-006	0.00000E+000	1.69979E-001	1.69329E-001	7	...........
	944	94.5	1.59797E-001	-6.84401E-006	0.00000E+000	1.59980E-001	1.59325E-001	7	...........
	945	94.6	1.49797E-001	-6.91583E-006	0.00000E+000	1.49981E-001	1.49322E-001	7	...........
	946	94.7	1.39797E-001	-6.98096E-006	0.00000E+000	1.39982E-001	1.39318E-001	7	...........
	947	94.8	1.29796E-001	-7.05111E-006	0.00000E+000	1.29984E-001	1.29314E-001	7	...........
	948	94.9	1.19796E-001	-7.11291E-006	0.00000E+000	1.19985E-001	1.19310E-001	7	...........
	949	95	1.09596E-001	-7.17805E-006	0.00000E+000	1.09986E-001	1.09307E-001	7	...........
	950	95.1	9.95958E-002	-7.24152E-006	0.00000E+000	9.99874E-002	9.93031E-002	7	...........
	951	95.2	8.99956E-002	-7.30165E-006	0.00000E+000	8.99886E-002	8.92994E-002	7	...........
	952	95.3	7.97953E-002	-7.36845E-006	0.00000E+000	7.99899E-002	7.92957E-002	7	...........
	953	95.4	6.97951E-002	-7.43192E-006	0.00000E+000	6.99912E-002	6.92920E-002	7	...........
	954	95.5	5.97949E-002	-7.49706E-006	0.00000E+000	5.99924E-002	5.94884E-002	7	...........
	955	95.6	4.97947E-002	-7.55886E-006	0.00000E+000	4.99937E-002	4.94847E-002	7	...........
	956	95.7	3.97944E-002	-7.62567E-006	0.00000E+000	3.99949E-002	3.94810E-002	7	...........
	957	95.8	2.97942E-002	-7.69415E-006	0.00000E+000	2.99962E-002	2.94773E-002	7	...........
	958	95.9	1.99940E-002	-7.76262E-006	0.00000E+000	1.99975E-002	1.96737E-002	7	...........
	959	96	9.79374E-003	-7.83110E-006	0.00000E+000	9.99874E-003	9.26983E-003	7	...........
	960	96.1	-2.06485E-004	-7.90459E-006	0.00000E+000	0.00000E+000	-7.33871E-004	7	...........
