EXPLAIN
TAG	CV
TITLE	LABEL	Cyclic Voltammetry	Test Identifier
DATE	LABEL	13-7-2017	Date
TIME	LABEL	16:26:42	Time
NOTES	NOTES	1	Notes...
	
PSTAT	PSTAT	IFC5000-01520	Potentiostat
VINIT	POTEN	0.00000E+000	F	Initial E (V)
VLIMIT1	POTEN	-8.00000E-001	F	Scan Limit 1 (V)
VLIMIT2	POTEN	8.00000E-001	F	Scan Limit 2 (V)
VFINAL	POTEN	0.00000E+000	F	Final E (V)
SCANRATE	QUANT	3.99999E+002	A Real Number
STEPSIZE	QUANT	1.00000E+001	Step Size (mV)
CYCLES	IQUANT	3	Cycles (#)
IMODE	SELECTOR	0	I/E Range Mode
IRANGE	QUANT	2.50000E+002	Max Current (mA)
AREA	QUANT	3.84800E-001	A Real Number
EQDELAY	QUANT	1.00000E+000	Equil. Time (s)
IRCOMP	SELECTOR	0	IRComp
PFCOR	QUANT	2.50000E+002	PF Corr. (ohm)
SAMPLINGMODE	SELECTOR	0	Sampling Mode
EOC	QUANT	0	Open Circuit (V)
SEQUENCER	TOGGLE	TRUE	Run as Sequence
PSTATMODEL	IQUANT	53	Pstat Model
PSTATSECTION	LABEL	IFC5000-01520	Pstat Section
PSTATSERIALNO	LABEL	01520	Pstat Serial Number
CTRLMODE	IQUANT	1	Control Mode
ELECTROMETER	IQUANT	0	RE=0 or CS=1
IESTAB	IQUANT	2	I/E Stability
CASPEED	IQUANT	4	Control Amp Speed
CONVENTION	IQUANT	1	Current Convention
ICHRANGE	IQUANT	2	Ich Range
ICHRANGEMODE	TOGGLE	F	Ich Auto Range
ICHOFFSETENABLE	TOGGLE	F	Ich Offset Enable
ICHOFFSET	QUANT	0	Ich Offset (V)
ICHFILTER	IQUANT	3	Ich Filter
VCHRANGE	IQUANT	2	Vch Range
VCHRANGEMODE	TOGGLE	F	Vch Auto Range
VCHOFFSETENABLE	TOGGLE	F	Vch Offset Enable
VCHOFFSET	QUANT	0	Vch Offset (V)
VCHFILTER	IQUANT	3	Vch Filter
IERANGELOWERLIMIT	IQUANT	7	I/E Range Lower Limit
IERANGEMODE	TOGGLE	T	I/E AutoRange
IERANGE	IQUANT	11	I/E Range
ACHSELECT	IQUANT	1	Ach Select
ACHRANGE	IQUANT	2	Ach Range
ACHOFFSETENABLE	TOGGLE	F	Ach Offset Enable
ACHOFFSET	QUANT	0	Ach Offset (V)
ACHFILTER	IQUANT	1	Ach Filter
CABLEID	IQUANT	14	Cable ID
DCCALDATE	LABEL	5-7-2017	DC Calibration Date
ACCALDATE	LABEL	12/3/2015	AC Calibration Date
FRAMEWORKVERSION	QUANT	7.01	Framework Version
INSTRUMENTVERSION	LABEL	4.00	Instrument Version
CURVE1	TABLE
	Pt	T	Vf	Im	Vu	Sig	Ach	IERange	Over
	#	s	V vs. Ref.	A	V	V	V	#	bits
	0	0.025	-3.65120E-004	-5.33904E-006	0.00000E+000	0.00000E+000	-5.33797E-004	11	...........
	1	0.05	-1.01651E-002	-5.54139E-006	0.00000E+000	-9.99874E-003	-1.05375E-002	10	...........
	2	0.075	-2.03651E-002	-6.88818E-006	0.00000E+000	-1.99975E-002	-2.05412E-002	9	...........
	3	0.1	-3.03651E-002	-7.26753E-006	0.00000E+000	-2.99962E-002	-3.05449E-002	8	...........
	4	0.125	-4.03651E-002	-8.59531E-006	0.00000E+000	-3.99949E-002	-4.05486E-002	7	...........
	5	0.15	-5.03651E-002	-9.49888E-006	0.00000E+000	-4.99937E-002	-5.03522E-002	7	...........
	6	0.175	-6.03651E-002	-1.01052E-005	0.00000E+000	-5.99924E-002	-6.03559E-002	7	...........
	7	0.2	-7.03651E-002	-1.08367E-005	0.00000E+000	-6.99912E-002	-7.03596E-002	7	...........
	8	0.225	-8.03651E-002	-1.10889E-005	0.00000E+000	-7.99899E-002	-8.03633E-002	7	...........
	9	0.25	-9.03651E-002	-1.14981E-005	0.00000E+000	-8.99886E-002	-9.03670E-002	7	...........
	10	0.275	-1.00165E-001	-1.21578E-005	0.00000E+000	-9.99874E-002	-1.00171E-001	7	...........
	11	0.3	-1.10365E-001	-1.28125E-005	0.00000E+000	-1.09986E-001	-1.10374E-001	7	...........
	12	0.325	-1.20365E-001	-1.34555E-005	0.00000E+000	-1.19985E-001	-1.20378E-001	7	...........
	13	0.35	-1.30365E-001	-1.39867E-005	0.00000E+000	-1.29984E-001	-1.30382E-001	7	...........
	14	0.375	-1.40165E-001	-1.44627E-005	0.00000E+000	-1.39982E-001	-1.40185E-001	7	...........
	15	0.4	-1.50165E-001	-1.49086E-005	0.00000E+000	-1.49981E-001	-1.50589E-001	7	...........
	16	0.425	-1.60165E-001	-1.57504E-005	0.00000E+000	-1.59980E-001	-1.60393E-001	7	...........
	17	0.45	-1.70165E-001	-1.58489E-005	0.00000E+000	-1.69979E-001	-1.70397E-001	7	...........
	18	0.475	-1.80365E-001	-1.64886E-005	0.00000E+000	-1.79977E-001	-1.80400E-001	7	...........
	19	0.5	-1.90165E-001	-1.70381E-005	0.00000E+000	-1.89976E-001	-1.90204E-001	7	...........
	20	0.525	-2.00165E-001	-1.75458E-005	0.00000E+000	-1.99975E-001	-2.00408E-001	7	...........
	21	0.55	-2.10165E-001	-1.81337E-005	0.00000E+000	-2.10023E-001	-2.10211E-001	7	...........
	22	0.575	-2.20365E-001	-1.86565E-005	0.00000E+000	-2.20022E-001	-2.20415E-001	7	...........
	23	0.6	-2.30365E-001	-1.90991E-005	0.00000E+000	-2.30021E-001	-2.30419E-001	7	...........
	24	0.625	-2.40365E-001	-1.99743E-005	0.00000E+000	-2.40020E-001	-2.40422E-001	7	...........
	25	0.65	-2.50365E-001	-2.05739E-005	0.00000E+000	-2.50018E-001	-2.50226E-001	7	...........
	26	0.675	-2.60165E-001	-2.08728E-005	0.00000E+000	-2.60017E-001	-2.60230E-001	7	...........
	27	0.7	-2.70165E-001	-2.19919E-005	0.00000E+000	-2.70016E-001	-2.70434E-001	7	...........
	28	0.725	-2.80165E-001	-2.25764E-005	0.00000E+000	-2.80015E-001	-2.80437E-001	7	...........
	29	0.75	-2.90365E-001	-2.32896E-005	0.00000E+000	-2.90013E-001	-2.90441E-001	7	...........
	30	0.775	-3.00165E-001	-2.40896E-005	0.00000E+000	-3.00012E-001	-3.00245E-001	7	...........
	31	0.8	-3.10165E-001	-2.49197E-005	0.00000E+000	-3.10011E-001	-3.10248E-001	7	...........
	32	0.825	-3.20365E-001	-2.56028E-005	0.00000E+000	-3.20010E-001	-3.20252E-001	7	...........
	33	0.85	-3.29965E-001	-2.65815E-005	0.00000E+000	-3.30008E-001	-3.30256E-001	7	...........
	34	0.875	-3.39965E-001	-2.73415E-005	0.00000E+000	-3.40007E-001	-3.40259E-001	7	...........
	35	0.9	-3.50165E-001	-2.81782E-005	0.00000E+000	-3.50006E-001	-3.50263E-001	7	...........
	36	0.925	-3.60165E-001	-2.90066E-005	0.00000E+000	-3.60005E-001	-3.60467E-001	7	...........
	37	0.95	-3.69965E-001	-2.99286E-005	0.00000E+000	-3.70003E-001	-3.70270E-001	7	...........
	38	0.975	-3.80165E-001	-3.09791E-005	0.00000E+000	-3.80002E-001	-3.80274E-001	7	...........
	39	1	-3.89965E-001	-3.18944E-005	0.00000E+000	-3.90001E-001	-3.90078E-001	7	...........
	40	1.025	-4.00165E-001	-3.29633E-005	0.00000E+000	-3.99999E-001	-4.00081E-001	7	...........
	41	1.05	-4.10165E-001	-3.41742E-005	0.00000E+000	-4.09998E-001	-4.10285E-001	7	...........
	42	1.075	-4.20165E-001	-3.52281E-005	0.00000E+000	-4.19997E-001	-4.20289E-001	7	...........
	43	1.1	-4.29965E-001	-3.62669E-005	0.00000E+000	-4.29996E-001	-4.29893E-001	7	...........
	44	1.125	-4.40165E-001	-3.73392E-005	0.00000E+000	-4.39994E-001	-4.40096E-001	7	...........
	45	1.15	-4.49965E-001	-3.85016E-005	0.00000E+000	-4.49993E-001	-4.50300E-001	7	...........
	46	1.175	-4.59965E-001	-3.96374E-005	0.00000E+000	-4.59992E-001	-4.60104E-001	7	...........
	47	1.2	-4.70165E-001	-4.08132E-005	0.00000E+000	-4.69991E-001	-4.69907E-001	7	...........
	48	1.225	-4.80165E-001	-4.22228E-005	0.00000E+000	-4.79989E-001	-4.79911E-001	7	...........
	49	1.25	-4.89965E-001	-4.31665E-005	0.00000E+000	-4.89988E-001	-4.90115E-001	7	...........
	50	1.275	-5.00165E-001	-4.46913E-005	0.00000E+000	-4.99987E-001	-5.00319E-001	7	...........
	51	1.3	-5.10165E-001	-4.57488E-005	0.00000E+000	-5.09986E-001	-5.10122E-001	8	...........
	52	1.325	-5.19965E-001	-4.83698E-005	0.00000E+000	-5.19984E-001	-5.20126E-001	8	...........
	53	1.35	-5.29965E-001	-4.89875E-005	0.00000E+000	-5.29983E-001	-5.29930E-001	8	...........
	54	1.375	-5.40165E-001	-5.11745E-005	0.00000E+000	-5.39982E-001	-5.40133E-001	8	...........
	55	1.4	-5.49965E-001	-5.20093E-005	0.00000E+000	-5.49981E-001	-5.50137E-001	8	...........
	56	1.425	-5.59965E-001	-5.31445E-005	0.00000E+000	-5.59979E-001	-5.59941E-001	8	...........
	57	1.45	-5.69765E-001	-5.52981E-005	0.00000E+000	-5.69978E-001	-5.69944E-001	8	...........
	58	1.475	-5.79965E-001	-5.67339E-005	0.00000E+000	-5.79977E-001	-5.80148E-001	8	...........
	59	1.5	-5.89965E-001	-5.83032E-005	0.00000E+000	-5.89975E-001	-5.90152E-001	8	...........
	60	1.525	-5.99965E-001	-6.01229E-005	0.00000E+000	-5.99974E-001	-6.00155E-001	8	...........
	61	1.55	-6.09965E-001	-6.21763E-005	0.00000E+000	-6.10023E-001	-6.10159E-001	8	...........
	62	1.575	-6.19965E-001	-6.33282E-005	0.00000E+000	-6.20022E-001	-6.20163E-001	8	...........
	63	1.6	-6.29765E-001	-6.52481E-005	0.00000E+000	-6.30020E-001	-6.29966E-001	8	...........
	64	1.625	-6.39965E-001	-6.83033E-005	0.00000E+000	-6.40019E-001	-6.39970E-001	8	...........
	65	1.65	-6.49965E-001	-6.93550E-005	0.00000E+000	-6.50018E-001	-6.49974E-001	8	...........
	66	1.675	-6.59965E-001	-7.19260E-005	0.00000E+000	-6.60017E-001	-6.59978E-001	8	...........
	67	1.7	-6.69965E-001	-7.42799E-005	0.00000E+000	-6.70015E-001	-6.69981E-001	8	...........
	68	1.725	-6.79965E-001	-7.64002E-005	0.00000E+000	-6.80014E-001	-6.79985E-001	8	...........
	69	1.75	-6.89965E-001	-7.87207E-005	0.00000E+000	-6.90013E-001	-6.89989E-001	8	...........
	70	1.775	-6.99765E-001	-8.06907E-005	0.00000E+000	-7.00012E-001	-6.99992E-001	8	...........
	71	1.8	-7.09965E-001	-8.33952E-005	0.00000E+000	-7.10010E-001	-7.09996E-001	8	...........
	72	1.825	-7.19965E-001	-8.51649E-005	0.00000E+000	-7.20009E-001	-7.20200E-001	8	...........
	73	1.85	-7.29965E-001	-8.87209E-005	0.00000E+000	-7.30008E-001	-7.29803E-001	8	...........
	74	1.875	-7.39965E-001	-9.23436E-005	0.00000E+000	-7.40007E-001	-7.39807E-001	8	...........
	75	1.9	-7.49765E-001	-9.49480E-005	0.00000E+000	-7.50005E-001	-7.49811E-001	8	...........
	76	1.925	-7.59965E-001	-9.65173E-005	0.00000E+000	-7.60004E-001	-7.60015E-001	8	...........
	77	1.95	-7.69965E-001	-1.00758E-004	0.00000E+000	-7.70003E-001	-7.69818E-001	8	...........
	78	1.975	-7.79965E-001	-1.04364E-004	0.00000E+000	-7.80001E-001	-7.79822E-001	8	...........
	79	2	-7.89965E-001	-1.08087E-004	0.00000E+000	-7.90000E-001	-7.89825E-001	8	...........
	80	2.025	-7.99765E-001	-1.12527E-004	0.00000E+000	-7.99999E-001	-7.99829E-001	8	...........
	81	2.05	-7.89765E-001	-8.45973E-005	0.00000E+000	-7.90000E-001	-7.90026E-001	8	...........
	82	2.075	-7.79965E-001	-6.87039E-005	0.00000E+000	-7.80001E-001	-7.80022E-001	8	...........
	83	2.1	-7.69965E-001	-5.68006E-005	0.00000E+000	-7.70003E-001	-7.70018E-001	8	...........
	84	2.125	-7.59765E-001	-4.75351E-005	0.00000E+000	-7.60004E-001	-7.59814E-001	8	...........
	85	2.15	-7.49965E-001	-3.98388E-005	0.00000E+000	-7.50005E-001	-7.49811E-001	8	...........
	86	2.175	-7.39965E-001	-3.48139E-005	0.00000E+000	-7.40007E-001	-7.40007E-001	7	...........
	87	2.2	-7.29965E-001	-2.94893E-005	0.00000E+000	-7.30008E-001	-7.30003E-001	7	...........
	88	2.225	-7.19965E-001	-2.52270E-005	0.00000E+000	-7.20009E-001	-7.20000E-001	7	...........
	89	2.25	-7.09765E-001	-2.11284E-005	0.00000E+000	-7.10010E-001	-7.09796E-001	7	...........
	90	2.275	-6.99765E-001	-1.76327E-005	0.00000E+000	-7.00012E-001	-6.99992E-001	7	...........
	91	2.3	-6.89965E-001	-1.48401E-005	0.00000E+000	-6.90013E-001	-6.89989E-001	7	...........
	92	2.325	-6.79965E-001	-1.22012E-005	0.00000E+000	-6.80014E-001	-6.79985E-001	7	...........
	93	2.35	-6.69965E-001	-9.73771E-006	0.00000E+000	-6.70015E-001	-6.69981E-001	7	...........
	94	2.375	-6.59765E-001	-7.95897E-006	0.00000E+000	-6.60017E-001	-6.59978E-001	7	...........
	95	2.4	-6.49965E-001	-5.85453E-006	0.00000E+000	-6.50018E-001	-6.49974E-001	7	...........
	96	2.425	-6.39965E-001	-4.45826E-006	0.00000E+000	-6.40019E-001	-6.39970E-001	7	...........
	97	2.45	-6.29965E-001	-2.65613E-006	0.00000E+000	-6.30020E-001	-6.30167E-001	7	...........
	98	2.475	-6.19965E-001	-1.56884E-006	0.00000E+000	-6.20022E-001	-6.19963E-001	7	...........
	99	2.5	-6.09965E-001	-4.01380E-007	0.00000E+000	-6.10023E-001	-6.09959E-001	7	...........
	100	2.525	-5.99965E-001	9.53140E-007	0.00000E+000	-5.99974E-001	-5.99955E-001	7	...........
	101	2.55	-5.90165E-001	1.66297E-006	0.00000E+000	-5.89975E-001	-5.90152E-001	7	...........
	102	2.575	-5.79965E-001	2.68512E-006	0.00000E+000	-5.79977E-001	-5.79948E-001	7	...........
	103	2.6	-5.69965E-001	3.57199E-006	0.00000E+000	-5.69978E-001	-5.70144E-001	7	...........
	104	2.625	-5.59965E-001	4.28182E-006	0.00000E+000	-5.59979E-001	-5.60141E-001	7	...........
	105	2.65	-5.49965E-001	5.08184E-006	0.00000E+000	-5.49981E-001	-5.50337E-001	7	...........
	106	2.675	-5.39965E-001	5.56452E-006	0.00000E+000	-5.39982E-001	-5.40133E-001	7	...........
	107	2.7	-5.29965E-001	6.57331E-006	0.00000E+000	-5.29983E-001	-5.30130E-001	7	...........
	108	2.725	-5.19965E-001	6.61173E-006	0.00000E+000	-5.19984E-001	-5.20126E-001	7	...........
	109	2.75	-5.10165E-001	7.50528E-006	0.00000E+000	-5.09986E-001	-5.10122E-001	7	...........
	110	2.775	-4.99965E-001	7.93284E-006	0.00000E+000	-4.99987E-001	-4.99918E-001	7	...........
	111	2.8	-4.90165E-001	8.37544E-006	0.00000E+000	-4.89988E-001	-4.90115E-001	7	...........
	112	2.825	-4.79765E-001	8.72785E-006	0.00000E+000	-4.79989E-001	-4.80111E-001	7	...........
	113	2.85	-4.69965E-001	9.28736E-006	0.00000E+000	-4.69991E-001	-4.70107E-001	7	...........
	114	2.875	-4.60165E-001	9.61138E-006	0.00000E+000	-4.59992E-001	-4.60104E-001	7	...........
	115	2.9	-4.50165E-001	1.00573E-005	0.00000E+000	-4.49993E-001	-4.50300E-001	7	...........
	116	2.925	-4.39965E-001	1.00857E-005	0.00000E+000	-4.39994E-001	-4.40096E-001	7	...........
	117	2.95	-4.29965E-001	1.06319E-005	0.00000E+000	-4.29996E-001	-4.30293E-001	7	...........
	118	2.975	-4.20165E-001	1.07054E-005	0.00000E+000	-4.19997E-001	-4.20089E-001	7	...........
	119	3	-4.10165E-001	1.13834E-005	0.00000E+000	-4.09998E-001	-4.10085E-001	7	...........
	120	3.025	-4.00165E-001	1.14553E-005	0.00000E+000	-3.99999E-001	-4.00081E-001	7	...........
	121	3.05	-3.90165E-001	1.16607E-005	0.00000E+000	-3.90001E-001	-3.90078E-001	7	...........
	122	3.075	-3.80365E-001	1.17075E-005	0.00000E+000	-3.80002E-001	-3.80074E-001	7	...........
	123	3.1	-3.70165E-001	1.21584E-005	0.00000E+000	-3.70003E-001	-3.70471E-001	7	...........
	124	3.125	-3.60165E-001	1.23154E-005	0.00000E+000	-3.60005E-001	-3.60267E-001	7	...........
	125	3.15	-3.50165E-001	1.26879E-005	0.00000E+000	-3.50006E-001	-3.50063E-001	7	...........
	126	3.175	-3.40165E-001	1.30703E-005	0.00000E+000	-3.40007E-001	-3.40259E-001	7	...........
	127	3.2	-3.29965E-001	1.32574E-005	0.00000E+000	-3.30008E-001	-3.30456E-001	7	...........
	128	3.225	-3.20165E-001	1.33309E-005	0.00000E+000	-3.20010E-001	-3.20252E-001	7	...........
	129	3.25	-3.10365E-001	1.34495E-005	0.00000E+000	-3.10011E-001	-3.10448E-001	7	...........
	130	3.275	-3.00165E-001	1.36833E-005	0.00000E+000	-3.00012E-001	-3.00245E-001	7	...........
	131	3.3	-2.90165E-001	1.37518E-005	0.00000E+000	-2.90013E-001	-2.90241E-001	7	...........
	132	3.325	-2.80365E-001	1.42795E-005	0.00000E+000	-2.80015E-001	-2.80237E-001	7	...........
	133	3.35	-2.70165E-001	1.41660E-005	0.00000E+000	-2.70016E-001	-2.70233E-001	7	...........
	134	3.375	-2.60165E-001	1.42996E-005	0.00000E+000	-2.60017E-001	-2.60430E-001	7	...........
	135	3.4	-2.50365E-001	1.46704E-005	0.00000E+000	-2.50018E-001	-2.50426E-001	7	...........
	136	3.425	-2.40165E-001	1.46804E-005	0.00000E+000	-2.40020E-001	-2.40222E-001	7	...........
	137	3.45	-2.30165E-001	1.51130E-005	0.00000E+000	-2.30021E-001	-2.30219E-001	7	...........
	138	3.475	-2.20365E-001	1.52316E-005	0.00000E+000	-2.20022E-001	-2.20415E-001	7	...........
	139	3.5	-2.10365E-001	1.53535E-005	0.00000E+000	-2.10023E-001	-2.10411E-001	7	...........
	140	3.525	-2.00165E-001	1.55455E-005	0.00000E+000	-1.99975E-001	-2.00408E-001	7	...........
	141	3.55	-1.90365E-001	1.56140E-005	0.00000E+000	-1.89976E-001	-1.90604E-001	7	...........
	142	3.575	-1.80365E-001	1.58729E-005	0.00000E+000	-1.79977E-001	-1.80200E-001	7	...........
	143	3.6	-1.70165E-001	1.58863E-005	0.00000E+000	-1.69979E-001	-1.70397E-001	7	...........
	144	3.625	-1.60165E-001	1.58044E-005	0.00000E+000	-1.59980E-001	-1.60193E-001	7	...........
	145	3.65	-1.50165E-001	1.60399E-005	0.00000E+000	-1.49981E-001	-1.50389E-001	7	...........
	146	3.675	-1.40165E-001	1.63422E-005	0.00000E+000	-1.39982E-001	-1.40385E-001	7	...........
	147	3.7	-1.30365E-001	1.63706E-005	0.00000E+000	-1.29984E-001	-1.30382E-001	7	...........
	148	3.725	-1.20365E-001	1.65393E-005	0.00000E+000	-1.19985E-001	-1.20378E-001	7	...........
	149	3.75	-1.10365E-001	1.68516E-005	0.00000E+000	-1.09986E-001	-1.10374E-001	7	...........
	150	3.775	-1.00165E-001	1.68333E-005	0.00000E+000	-9.99874E-002	-1.00571E-001	7	...........
	151	3.8	-9.03651E-002	1.71640E-005	0.00000E+000	-8.99886E-002	-9.03670E-002	7	...........
	152	3.825	-8.03651E-002	1.70671E-005	0.00000E+000	-7.99899E-002	-8.05634E-002	7	...........
	153	3.85	-7.03651E-002	1.74880E-005	0.00000E+000	-6.99912E-002	-7.05597E-002	7	...........
	154	3.875	-6.03651E-002	1.75464E-005	0.00000E+000	-5.99924E-002	-6.05560E-002	7	...........
	155	3.9	-5.03651E-002	1.74395E-005	0.00000E+000	-4.99937E-002	-5.07524E-002	7	...........
	156	3.925	-4.03651E-002	1.78187E-005	0.00000E+000	-3.99949E-002	-4.05486E-002	7	...........
	157	3.95	-3.03651E-002	1.78671E-005	0.00000E+000	-2.99962E-002	-3.05449E-002	7	...........
	158	3.975	-2.03651E-002	1.79690E-005	0.00000E+000	-1.99975E-002	-2.03411E-002	7	...........
	159	4	-1.03651E-002	1.85018E-005	0.00000E+000	-9.99874E-003	-1.03374E-002	7	...........
	160	4.025	-3.65120E-004	1.85235E-005	0.00000E+000	0.00000E+000	-7.33871E-004	7	...........
	161	4.05	9.43488E-003	1.85803E-005	0.00000E+000	9.99874E-003	9.46990E-003	7	...........
	162	4.075	1.96349E-002	1.88224E-005	0.00000E+000	1.99975E-002	1.94736E-002	7	...........
	163	4.1	2.96349E-002	1.87874E-005	0.00000E+000	2.99962E-002	2.94773E-002	7	...........
	164	4.125	3.96349E-002	1.90479E-005	0.00000E+000	3.99949E-002	3.92809E-002	7	...........
	165	4.15	4.94349E-002	1.91381E-005	0.00000E+000	4.99937E-002	4.92846E-002	7	...........
	166	4.175	5.96349E-002	1.92567E-005	0.00000E+000	5.99924E-002	5.94884E-002	7	...........
	167	4.2	6.96349E-002	1.96108E-005	0.00000E+000	6.99912E-002	6.92920E-002	7	...........
	168	4.225	7.96349E-002	1.98045E-005	0.00000E+000	7.99899E-002	7.94958E-002	7	...........
	169	4.25	8.94349E-002	2.01586E-005	0.00000E+000	8.99886E-002	8.92994E-002	7	...........
	170	4.275	9.96349E-002	2.02772E-005	0.00000E+000	9.99874E-002	9.93031E-002	7	...........
	171	4.3	1.09635E-001	2.06179E-005	0.00000E+000	1.09986E-001	1.09307E-001	7	...........
	172	4.325	1.19435E-001	2.09085E-005	0.00000E+000	1.19985E-001	1.19511E-001	7	...........
	173	4.35	1.29635E-001	2.11023E-005	0.00000E+000	1.29984E-001	1.29314E-001	7	...........
	174	4.375	1.39435E-001	2.15833E-005	0.00000E+000	1.39982E-001	1.39318E-001	7	...........
	175	4.4	1.49635E-001	2.15382E-005	0.00000E+000	1.49981E-001	1.49522E-001	7	...........
	176	4.425	1.59435E-001	2.16233E-005	0.00000E+000	1.59980E-001	1.59325E-001	7	...........
	177	4.45	1.69635E-001	2.21611E-005	0.00000E+000	1.69979E-001	1.69529E-001	7	...........
	178	4.475	1.79435E-001	2.27207E-005	0.00000E+000	1.79977E-001	1.79133E-001	7	...........
	179	4.5	1.89435E-001	2.28960E-005	0.00000E+000	1.89976E-001	1.89336E-001	7	...........
	180	4.525	1.99635E-001	2.31265E-005	0.00000E+000	1.99975E-001	1.99140E-001	7	...........
	181	4.55	2.09435E-001	2.36793E-005	0.00000E+000	2.10023E-001	2.09544E-001	7	...........
	182	4.575	2.19435E-001	2.40852E-005	0.00000E+000	2.20022E-001	2.19147E-001	7	...........
	183	4.6	2.29635E-001	2.49370E-005	0.00000E+000	2.30021E-001	2.29151E-001	7	...........
	184	4.625	2.39435E-001	2.52493E-005	0.00000E+000	2.40020E-001	2.39355E-001	7	...........
	185	4.65	2.49435E-001	2.56602E-005	0.00000E+000	2.50018E-001	2.49159E-001	7	...........
	186	4.675	2.59435E-001	2.57854E-005	0.00000E+000	2.60017E-001	2.59362E-001	7	...........
	187	4.7	2.69435E-001	2.65253E-005	0.00000E+000	2.70016E-001	2.69166E-001	7	...........
	188	4.725	2.79435E-001	2.70531E-005	0.00000E+000	2.80015E-001	2.79170E-001	7	...........
	189	4.75	2.89435E-001	2.74423E-005	0.00000E+000	2.90013E-001	2.89173E-001	7	...........
	190	4.775	2.99435E-001	2.83592E-005	0.00000E+000	3.00012E-001	2.99177E-001	7	...........
	191	4.8	3.09435E-001	2.89605E-005	0.00000E+000	3.10011E-001	3.09181E-001	7	...........
	192	4.825	3.19435E-001	2.94248E-005	0.00000E+000	3.20010E-001	3.19184E-001	7	...........
	193	4.85	3.29235E-001	3.00678E-005	0.00000E+000	3.30008E-001	3.29188E-001	7	...........
	194	4.875	3.39435E-001	3.07676E-005	0.00000E+000	3.40007E-001	3.39192E-001	7	...........
	195	4.9	3.49435E-001	3.14774E-005	0.00000E+000	3.50006E-001	3.49195E-001	7	...........
	196	4.925	3.59435E-001	3.23727E-005	0.00000E+000	3.60005E-001	3.59199E-001	7	...........
	197	4.95	3.69235E-001	3.30224E-005	0.00000E+000	3.70003E-001	3.69203E-001	7	...........
	198	4.975	3.79235E-001	3.33280E-005	0.00000E+000	3.80002E-001	3.79207E-001	7	...........
	199	5	3.89435E-001	3.41865E-005	0.00000E+000	3.90001E-001	3.89210E-001	7	...........
	200	5.025	3.99435E-001	3.51619E-005	0.00000E+000	3.99999E-001	3.99214E-001	7	...........
	201	5.05	4.09235E-001	3.57548E-005	0.00000E+000	4.09998E-001	4.09218E-001	7	...........
	202	5.075	4.19235E-001	3.63627E-005	0.00000E+000	4.19997E-001	4.19021E-001	7	...........
	203	5.1	4.29435E-001	3.73097E-005	0.00000E+000	4.29996E-001	4.29225E-001	7	...........
	204	5.125	4.39235E-001	3.80379E-005	0.00000E+000	4.39994E-001	4.39229E-001	7	...........
	205	5.15	4.49235E-001	3.88179E-005	0.00000E+000	4.49993E-001	4.49232E-001	7	...........
	206	5.175	4.59035E-001	3.94960E-005	0.00000E+000	4.59992E-001	4.58836E-001	7	...........
	207	5.2	4.69235E-001	4.04447E-005	0.00000E+000	4.69991E-001	4.69040E-001	7	...........
	208	5.225	4.79435E-001	4.12764E-005	0.00000E+000	4.79989E-001	4.79043E-001	7	...........
	209	5.25	4.89235E-001	4.18693E-005	0.00000E+000	4.89988E-001	4.89247E-001	7	...........
	210	5.275	4.99235E-001	4.30902E-005	0.00000E+000	4.99987E-001	4.99051E-001	7	...........
	211	5.3	5.09435E-001	4.39053E-005	0.00000E+000	5.09986E-001	5.09055E-001	7	...........
	212	5.325	5.19235E-001	4.49675E-005	0.00000E+000	5.19984E-001	5.19058E-001	7	...........
	213	5.35	5.29435E-001	4.64893E-005	0.00000E+000	5.29983E-001	5.29062E-001	8	...........
	214	5.375	5.39235E-001	4.66730E-005	0.00000E+000	5.39982E-001	5.39066E-001	8	...........
	215	5.4	5.49235E-001	4.78750E-005	0.00000E+000	5.49981E-001	5.49069E-001	8	...........
	216	5.425	5.59235E-001	4.85428E-005	0.00000E+000	5.59979E-001	5.59073E-001	8	...........
	217	5.45	5.69235E-001	4.99618E-005	0.00000E+000	5.69978E-001	5.69077E-001	8	...........
	218	5.475	5.79435E-001	5.08800E-005	0.00000E+000	5.79977E-001	5.79080E-001	8	...........
	219	5.5	5.89235E-001	5.19485E-005	0.00000E+000	5.89975E-001	5.89084E-001	8	...........
	220	5.525	5.99235E-001	5.31672E-005	0.00000E+000	5.99974E-001	5.98888E-001	8	...........
	221	5.55	6.09235E-001	5.44026E-005	0.00000E+000	6.10023E-001	6.08891E-001	8	...........
	222	5.575	6.19235E-001	5.56547E-005	0.00000E+000	6.20022E-001	6.19095E-001	8	...........
	223	5.6	6.29235E-001	5.66230E-005	0.00000E+000	6.30020E-001	6.29099E-001	8	...........
	224	5.625	6.39235E-001	5.82257E-005	0.00000E+000	6.40019E-001	6.39103E-001	8	...........
	225	5.65	6.49235E-001	5.87098E-005	0.00000E+000	6.50018E-001	6.48906E-001	8	...........
	226	5.675	6.59235E-001	6.03125E-005	0.00000E+000	6.60017E-001	6.59110E-001	8	...........
	227	5.7	6.69435E-001	6.22825E-005	0.00000E+000	6.70015E-001	6.68914E-001	8	...........
	228	5.725	6.79235E-001	6.34344E-005	0.00000E+000	6.80014E-001	6.79117E-001	8	...........
	229	5.75	6.89435E-001	6.47032E-005	0.00000E+000	6.90013E-001	6.88721E-001	8	...........
	230	5.775	6.99035E-001	6.64061E-005	0.00000E+000	7.00012E-001	6.98925E-001	8	...........
	231	5.8	7.09435E-001	6.78752E-005	0.00000E+000	7.10010E-001	7.08928E-001	8	...........
	232	5.825	7.19235E-001	7.01290E-005	0.00000E+000	7.20009E-001	7.19132E-001	8	...........
	233	5.85	7.29035E-001	7.11640E-005	0.00000E+000	7.30008E-001	7.28736E-001	8	...........
	234	5.875	7.39035E-001	7.32843E-005	0.00000E+000	7.40007E-001	7.38739E-001	8	...........
	235	5.9	7.49035E-001	7.41858E-005	0.00000E+000	7.50005E-001	7.49143E-001	8	...........
	236	5.925	7.59035E-001	7.60723E-005	0.00000E+000	7.60004E-001	7.58947E-001	8	...........
	237	5.95	7.69235E-001	7.84930E-005	0.00000E+000	7.70003E-001	7.69151E-001	8	...........
	238	5.975	7.79235E-001	8.02459E-005	0.00000E+000	7.80001E-001	7.78754E-001	8	...........
	239	6	7.89035E-001	8.24997E-005	0.00000E+000	7.90000E-001	7.88958E-001	8	...........
	240	6.025	7.99035E-001	8.35849E-005	0.00000E+000	7.99999E-001	7.98762E-001	8	...........
CURVE2	TABLE
	Pt	T	Vf	Im	Vu	Sig	Ach	IERange	Over
	#	s	V vs. Ref.	A	V	V	V	#	bits
	241	6.05	7.89235E-001	6.50705E-005	0.00000E+000	7.90000E-001	7.88958E-001	8	...........
	242	6.075	7.79235E-001	5.17982E-005	0.00000E+000	7.80001E-001	7.78954E-001	8	...........
	243	6.1	7.69235E-001	4.34509E-005	0.00000E+000	7.70003E-001	7.68951E-001	8	...........
	244	6.125	7.59235E-001	3.65059E-005	0.00000E+000	7.60004E-001	7.58947E-001	8	...........
	245	6.15	7.49035E-001	3.05254E-005	0.00000E+000	7.50005E-001	7.48943E-001	7	...........
	246	6.175	7.39235E-001	2.53078E-005	0.00000E+000	7.40007E-001	7.38940E-001	7	...........
	247	6.2	7.29235E-001	2.07565E-005	0.00000E+000	7.30008E-001	7.28936E-001	7	...........
	248	6.225	7.19235E-001	1.70337E-005	0.00000E+000	7.20009E-001	7.18932E-001	7	...........
	249	6.25	7.09435E-001	1.33793E-005	0.00000E+000	7.10010E-001	7.08928E-001	7	...........
	250	6.275	6.99435E-001	1.10360E-005	0.00000E+000	7.00012E-001	6.99125E-001	7	...........
	251	6.3	6.89435E-001	8.46062E-006	0.00000E+000	6.90013E-001	6.88921E-001	7	...........
	252	6.325	6.79035E-001	5.96704E-006	0.00000E+000	6.80014E-001	6.79117E-001	7	...........
	253	6.35	6.69235E-001	4.10645E-006	0.00000E+000	6.70015E-001	6.69114E-001	7	...........
	254	6.375	6.59235E-001	2.38282E-006	0.00000E+000	6.60017E-001	6.58910E-001	7	...........
	255	6.4	6.49235E-001	9.53140E-007	0.00000E+000	6.50018E-001	6.48906E-001	7	...........
	256	6.425	6.39235E-001	-6.60258E-007	0.00000E+000	6.40019E-001	6.39103E-001	7	...........
	257	6.45	6.29235E-001	-1.87281E-006	0.00000E+000	6.30020E-001	6.29099E-001	7	...........
	258	6.475	6.19235E-001	-3.04361E-006	0.00000E+000	6.20022E-001	6.18895E-001	7	...........
	259	6.5	6.09035E-001	-4.07746E-006	0.00000E+000	6.10023E-001	6.09092E-001	7	...........
	260	6.525	5.99035E-001	-5.14971E-006	0.00000E+000	6.00024E-001	5.99088E-001	7	...........
	261	6.55	5.89235E-001	-5.76935E-006	0.00000E+000	5.89975E-001	5.89084E-001	7	...........
	262	6.575	5.79235E-001	-6.31550E-006	0.00000E+000	5.79977E-001	5.79080E-001	7	...........
	263	6.6	5.69435E-001	-6.88504E-006	0.00000E+000	5.69978E-001	5.69077E-001	7	...........
	264	6.625	5.59235E-001	-7.75520E-006	0.00000E+000	5.59979E-001	5.58873E-001	7	...........
	265	6.65	5.49435E-001	-8.26795E-006	0.00000E+000	5.49981E-001	5.49069E-001	7	...........
	266	6.675	5.39435E-001	-9.00784E-006	0.00000E+000	5.39982E-001	5.39066E-001	7	...........
	267	6.7	5.29235E-001	-9.43040E-006	0.00000E+000	5.29983E-001	5.29262E-001	7	...........
	268	6.725	5.19235E-001	-1.02688E-005	0.00000E+000	5.19984E-001	5.19258E-001	7	...........
	269	6.75	5.09235E-001	-1.02454E-005	0.00000E+000	5.09986E-001	5.09255E-001	7	...........
	270	6.775	4.99235E-001	-1.07465E-005	0.00000E+000	4.99987E-001	4.99051E-001	7	...........
	271	6.8	4.89435E-001	-1.10187E-005	0.00000E+000	4.89988E-001	4.89247E-001	7	...........
	272	6.825	4.79435E-001	-1.12893E-005	0.00000E+000	4.79989E-001	4.79043E-001	7	...........
	273	6.85	4.69435E-001	-1.18889E-005	0.00000E+000	4.69991E-001	4.69240E-001	7	...........
	274	6.875	4.59435E-001	-1.22062E-005	0.00000E+000	4.59992E-001	4.59236E-001	7	...........
	275	6.9	4.49235E-001	-1.22664E-005	0.00000E+000	4.49993E-001	4.49232E-001	7	...........
	276	6.925	4.39235E-001	-1.27574E-005	0.00000E+000	4.39994E-001	4.39029E-001	7	...........
	277	6.95	4.29435E-001	-1.26505E-005	0.00000E+000	4.29996E-001	4.29025E-001	7	...........
	278	6.975	4.19435E-001	-1.31132E-005	0.00000E+000	4.19997E-001	4.19221E-001	7	...........
	279	7	4.09435E-001	-1.34322E-005	0.00000E+000	4.09998E-001	4.09218E-001	7	...........
	280	7.025	3.99635E-001	-1.36910E-005	0.00000E+000	3.99999E-001	3.99014E-001	7	...........
	281	7.05	3.89235E-001	-1.33937E-005	0.00000E+000	3.90001E-001	3.89010E-001	7	...........
	282	7.075	3.79235E-001	-1.37862E-005	0.00000E+000	3.80002E-001	3.79207E-001	7	...........
	283	7.1	3.69235E-001	-1.40050E-005	0.00000E+000	3.70003E-001	3.69203E-001	7	...........
	284	7.125	3.59435E-001	-1.43307E-005	0.00000E+000	3.60005E-001	3.58999E-001	7	...........
	285	7.15	3.49435E-001	-1.43892E-005	0.00000E+000	3.50006E-001	3.48995E-001	7	...........
	286	7.175	3.39435E-001	-1.47783E-005	0.00000E+000	3.40007E-001	3.39192E-001	7	...........
	287	7.2	3.29435E-001	-1.47650E-005	0.00000E+000	3.30008E-001	3.29388E-001	7	...........
	288	7.225	3.19435E-001	-1.50623E-005	0.00000E+000	3.20010E-001	3.19184E-001	7	...........
	289	7.25	3.09435E-001	-1.50439E-005	0.00000E+000	3.10011E-001	3.09181E-001	7	...........
	290	7.275	2.99435E-001	-1.46664E-005	0.00000E+000	3.00012E-001	2.99177E-001	7	...........
	291	7.3	2.89435E-001	-1.54247E-005	0.00000E+000	2.90013E-001	2.89173E-001	7	...........
	292	7.325	2.79435E-001	-1.51742E-005	0.00000E+000	2.80015E-001	2.79170E-001	7	...........
	293	7.35	2.69435E-001	-1.54147E-005	0.00000E+000	2.70016E-001	2.69366E-001	7	...........
	294	7.375	2.59635E-001	-1.55817E-005	0.00000E+000	2.60017E-001	2.59162E-001	7	...........
	295	7.4	2.49635E-001	-1.56819E-005	0.00000E+000	2.50018E-001	2.49359E-001	7	...........
	296	7.425	2.39435E-001	-1.57704E-005	0.00000E+000	2.40020E-001	2.39155E-001	7	...........
	297	7.45	2.29635E-001	-1.56001E-005	0.00000E+000	2.30021E-001	2.29151E-001	7	...........
	298	7.475	2.19435E-001	-1.59291E-005	0.00000E+000	2.20022E-001	2.19347E-001	7	...........
	299	7.5	2.09635E-001	-1.59675E-005	0.00000E+000	2.10023E-001	2.09344E-001	7	...........
	300	7.525	1.99435E-001	-1.61312E-005	0.00000E+000	2.00025E-001	1.99340E-001	7	...........
	301	7.55	1.89635E-001	-1.63082E-005	0.00000E+000	1.90026E-001	1.89336E-001	7	...........
	302	7.575	1.79435E-001	-1.62631E-005	0.00000E+000	1.79977E-001	1.79333E-001	7	...........
	303	7.6	1.69435E-001	-1.63633E-005	0.00000E+000	1.69979E-001	1.69329E-001	7	...........
	304	7.625	1.59435E-001	-1.60577E-005	0.00000E+000	1.59980E-001	1.59325E-001	7	...........
	305	7.65	1.49635E-001	-1.65521E-005	0.00000E+000	1.49981E-001	1.49322E-001	7	...........
	306	7.675	1.39435E-001	-1.64235E-005	0.00000E+000	1.39982E-001	1.39118E-001	7	...........
	307	7.7	1.29435E-001	-1.66539E-005	0.00000E+000	1.29984E-001	1.29314E-001	7	...........
	308	7.725	1.19435E-001	-1.65554E-005	0.00000E+000	1.19985E-001	1.19511E-001	7	...........
	309	7.75	1.09635E-001	-1.68794E-005	0.00000E+000	1.09986E-001	1.09307E-001	7	...........
	310	7.775	9.96349E-002	-1.66690E-005	0.00000E+000	9.99874E-002	9.93031E-002	7	...........
	311	7.8	8.96349E-002	-1.65170E-005	0.00000E+000	8.99886E-002	8.92994E-002	7	...........
	312	7.825	7.94349E-002	-1.69362E-005	0.00000E+000	7.99899E-002	7.92957E-002	7	...........
	313	7.85	6.96349E-002	-1.69796E-005	0.00000E+000	6.99912E-002	6.94921E-002	7	...........
	314	7.875	5.96349E-002	-1.71984E-005	0.00000E+000	5.99924E-002	5.92883E-002	7	...........
	315	7.9	4.96349E-002	-1.72469E-005	0.00000E+000	4.99937E-002	4.92846E-002	7	...........
	316	7.925	3.96349E-002	-1.72218E-005	0.00000E+000	3.99949E-002	3.94810E-002	7	...........
	317	7.95	2.96349E-002	-1.69563E-005	0.00000E+000	2.99962E-002	2.94773E-002	7	...........
	318	7.975	1.96349E-002	-1.72084E-005	0.00000E+000	1.99975E-002	1.94736E-002	7	...........
	319	8	9.63488E-003	-1.75675E-005	0.00000E+000	9.99874E-003	9.46990E-003	7	...........
	320	8.025	-3.65120E-004	-1.72402E-005	0.00000E+000	0.00000E+000	-5.33797E-004	7	...........
	321	8.05	-1.03651E-002	-1.77446E-005	0.00000E+000	-9.99874E-003	-1.03374E-002	7	...........
	322	8.075	-2.03651E-002	-1.77312E-005	0.00000E+000	-1.99975E-002	-2.05412E-002	7	...........
	323	8.1	-3.03651E-002	-1.80653E-005	0.00000E+000	-2.99962E-002	-3.03448E-002	7	...........
	324	8.125	-4.03651E-002	-1.78916E-005	0.00000E+000	-3.99949E-002	-4.05486E-002	7	...........
	325	8.15	-5.01651E-002	-1.80686E-005	0.00000E+000	-4.99937E-002	-5.03522E-002	7	...........
	326	8.175	-6.03651E-002	-1.82373E-005	0.00000E+000	-5.99924E-002	-6.05560E-002	7	...........
	327	8.2	-7.03651E-002	-1.84294E-005	0.00000E+000	-6.99912E-002	-7.05597E-002	7	...........
	328	8.225	-8.01651E-002	-1.85012E-005	0.00000E+000	-7.99899E-002	-8.03633E-002	7	...........
	329	8.25	-9.03651E-002	-1.85763E-005	0.00000E+000	-8.99886E-002	-9.03670E-002	7	...........
	330	8.275	-1.00365E-001	-1.89588E-005	0.00000E+000	-9.99874E-002	-1.00371E-001	7	...........
	331	8.3	-1.10365E-001	-1.89120E-005	0.00000E+000	-1.09986E-001	-1.10374E-001	7	...........
	332	8.325	-1.20365E-001	-1.93129E-005	0.00000E+000	-1.19985E-001	-1.20578E-001	7	...........
	333	8.35	-1.30565E-001	-1.99192E-005	0.00000E+000	-1.29984E-001	-1.30382E-001	7	...........
	334	8.375	-1.40365E-001	-1.99592E-005	0.00000E+000	-1.39982E-001	-1.40385E-001	7	...........
	335	8.4	-1.50165E-001	-2.00628E-005	0.00000E+000	-1.49981E-001	-1.50189E-001	7	...........
	336	8.425	-1.60165E-001	-2.03968E-005	0.00000E+000	-1.59980E-001	-1.60393E-001	7	...........
	337	8.45	-1.70365E-001	-2.04052E-005	0.00000E+000	-1.69979E-001	-1.70397E-001	7	...........
	338	8.475	-1.80165E-001	-2.09630E-005	0.00000E+000	-1.79977E-001	-1.80200E-001	7	...........
	339	8.5	-1.90165E-001	-2.12971E-005	0.00000E+000	-1.89976E-001	-1.90204E-001	7	...........
	340	8.525	-2.00365E-001	-2.13956E-005	0.00000E+000	-1.99975E-001	-2.00208E-001	7	...........
	341	8.55	-2.10165E-001	-2.19568E-005	0.00000E+000	-2.09973E-001	-2.10211E-001	7	...........
	342	8.575	-2.20365E-001	-2.18115E-005	0.00000E+000	-2.20022E-001	-2.20415E-001	7	...........
	343	8.6	-2.30365E-001	-2.27301E-005	0.00000E+000	-2.30021E-001	-2.30419E-001	7	...........
	344	8.625	-2.40165E-001	-2.26649E-005	0.00000E+000	-2.40020E-001	-2.40222E-001	7	...........
	345	8.65	-2.50165E-001	-2.34700E-005	0.00000E+000	-2.50018E-001	-2.50226E-001	7	...........
	346	8.675	-2.60165E-001	-2.39978E-005	0.00000E+000	-2.60017E-001	-2.60230E-001	7	...........
	347	8.7	-2.70165E-001	-2.44587E-005	0.00000E+000	-2.70016E-001	-2.70434E-001	7	...........
	348	8.725	-2.80165E-001	-2.51619E-005	0.00000E+000	-2.80015E-001	-2.80237E-001	7	...........
	349	8.75	-2.90165E-001	-2.54926E-005	0.00000E+000	-2.90013E-001	-2.90241E-001	7	...........
	350	8.775	-3.00165E-001	-2.61957E-005	0.00000E+000	-3.00012E-001	-3.00245E-001	7	...........
	351	8.8	-3.10165E-001	-2.66984E-005	0.00000E+000	-3.10011E-001	-3.10448E-001	7	...........
	352	8.825	-3.20165E-001	-2.73866E-005	0.00000E+000	-3.20010E-001	-3.20252E-001	7	...........
	353	8.85	-3.30165E-001	-2.81164E-005	0.00000E+000	-3.30008E-001	-3.30056E-001	7	...........
	354	8.875	-3.40165E-001	-2.86292E-005	0.00000E+000	-3.40007E-001	-3.40259E-001	7	...........
	355	8.9	-3.50365E-001	-2.95077E-005	0.00000E+000	-3.50006E-001	-3.50463E-001	7	...........
	356	8.925	-3.59965E-001	-2.98517E-005	0.00000E+000	-3.60005E-001	-3.60267E-001	7	...........
	357	8.95	-3.69965E-001	-3.10994E-005	0.00000E+000	-3.70003E-001	-3.70270E-001	7	...........
	358	8.975	-3.79965E-001	-3.18359E-005	0.00000E+000	-3.80002E-001	-3.80274E-001	7	...........
	359	9	-3.90165E-001	-3.30785E-005	0.00000E+000	-3.90001E-001	-3.90278E-001	7	...........
	360	9.025	-3.99965E-001	-3.35796E-005	0.00000E+000	-3.99999E-001	-4.00282E-001	7	...........
	361	9.05	-4.10165E-001	-3.46335E-005	0.00000E+000	-4.09998E-001	-4.10085E-001	7	...........
	362	9.075	-4.19965E-001	-3.55087E-005	0.00000E+000	-4.19997E-001	-4.20289E-001	7	...........
	363	9.1	-4.29965E-001	-3.66962E-005	0.00000E+000	-4.29996E-001	-4.30093E-001	7	...........
	364	9.125	-4.40165E-001	-3.76465E-005	0.00000E+000	-4.39994E-001	-4.40296E-001	7	...........
	365	9.15	-4.50165E-001	-3.84866E-005	0.00000E+000	-4.49993E-001	-4.50300E-001	7	...........
	366	9.175	-4.60165E-001	-3.98044E-005	0.00000E+000	-4.59992E-001	-4.60104E-001	7	...........
	367	9.2	-4.69965E-001	-4.06378E-005	0.00000E+000	-4.69991E-001	-4.70107E-001	7	...........
	368	9.225	-4.79965E-001	-4.18804E-005	0.00000E+000	-4.79989E-001	-4.80111E-001	7	...........
	369	9.25	-4.90165E-001	-4.29427E-005	0.00000E+000	-4.89988E-001	-4.89915E-001	7	...........
	370	9.275	-4.99965E-001	-4.44091E-005	0.00000E+000	-4.99987E-001	-5.00118E-001	7	...........
	371	9.3	-5.09965E-001	-4.53778E-005	0.00000E+000	-5.09986E-001	-5.09922E-001	7	...........
	372	9.325	-5.20165E-001	-4.69341E-005	0.00000E+000	-5.19984E-001	-5.20126E-001	8	...........
	373	9.35	-5.30165E-001	-4.76019E-005	0.00000E+000	-5.29983E-001	-5.30130E-001	8	...........
	374	9.375	-5.40165E-001	-4.95051E-005	0.00000E+000	-5.39982E-001	-5.40133E-001	8	...........
	375	9.4	-5.49965E-001	-5.08907E-005	0.00000E+000	-5.49981E-001	-5.49937E-001	8	...........
	376	9.425	-5.59965E-001	-5.16921E-005	0.00000E+000	-5.59979E-001	-5.60141E-001	8	...........
	377	9.45	-5.69965E-001	-5.34617E-005	0.00000E+000	-5.69978E-001	-5.69744E-001	8	...........
	378	9.475	-5.79965E-001	-5.53148E-005	0.00000E+000	-5.79977E-001	-5.79948E-001	8	...........
	379	9.5	-5.89765E-001	-5.66170E-005	0.00000E+000	-5.89975E-001	-5.89952E-001	8	...........
	380	9.525	-5.99965E-001	-5.89709E-005	0.00000E+000	-5.99974E-001	-6.00155E-001	8	...........
	381	9.55	-6.09965E-001	-5.93048E-005	0.00000E+000	-6.09973E-001	-6.09959E-001	8	...........
	382	9.575	-6.19965E-001	-6.18758E-005	0.00000E+000	-6.20022E-001	-6.20163E-001	8	...........
	383	9.6	-6.30165E-001	-6.43299E-005	0.00000E+000	-6.30020E-001	-6.30167E-001	8	...........
	384	9.625	-6.39965E-001	-6.57991E-005	0.00000E+000	-6.40019E-001	-6.39970E-001	8	...........
	385	9.65	-6.49765E-001	-6.66839E-005	0.00000E+000	-6.50018E-001	-6.50174E-001	8	...........
	386	9.675	-6.59965E-001	-6.95888E-005	0.00000E+000	-6.60017E-001	-6.59978E-001	8	...........
	387	9.7	-6.69965E-001	-7.18592E-005	0.00000E+000	-6.70015E-001	-6.69981E-001	8	...........
	388	9.725	-6.79965E-001	-7.41464E-005	0.00000E+000	-6.80014E-001	-6.79985E-001	8	...........
	389	9.75	-6.89965E-001	-7.59661E-005	0.00000E+000	-6.90013E-001	-6.89989E-001	8	...........
	390	9.775	-6.99965E-001	-7.92216E-005	0.00000E+000	-7.00012E-001	-6.99992E-001	8	...........
	391	9.8	-7.09965E-001	-8.03401E-005	0.00000E+000	-7.10010E-001	-7.09996E-001	8	...........
	392	9.825	-7.19765E-001	-8.30113E-005	0.00000E+000	-7.20009E-001	-7.20000E-001	8	...........
	393	9.85	-7.29965E-001	-8.54821E-005	0.00000E+000	-7.30008E-001	-7.30003E-001	8	...........
	394	9.875	-7.39965E-001	-8.88544E-005	0.00000E+000	-7.40007E-001	-7.40007E-001	8	...........
	395	9.9	-7.49765E-001	-9.23436E-005	0.00000E+000	-7.50005E-001	-7.50011E-001	8	...........
	396	9.925	-7.59965E-001	-9.44972E-005	0.00000E+000	-7.60004E-001	-7.59614E-001	8	...........
	397	9.95	-7.69765E-001	-9.72518E-005	0.00000E+000	-7.70003E-001	-7.69818E-001	8	...........
	398	9.975	-7.79765E-001	-9.99397E-005	0.00000E+000	-7.80001E-001	-7.79822E-001	8	...........
	399	10	-7.89765E-001	-1.03446E-004	0.00000E+000	-7.90000E-001	-7.89825E-001	8	...........
	400	10.025	-7.99765E-001	-1.08437E-004	0.00000E+000	-7.99999E-001	-7.99829E-001	8	...........
	401	10.05	-7.89965E-001	-8.05905E-005	0.00000E+000	-7.90000E-001	-7.89825E-001	8	...........
	402	10.075	-7.79965E-001	-6.60996E-005	0.00000E+000	-7.80001E-001	-7.80222E-001	8	...........
	403	10.1	-7.69965E-001	-5.43465E-005	0.00000E+000	-7.70003E-001	-7.69818E-001	8	...........
	404	10.125	-7.59765E-001	-4.65668E-005	0.00000E+000	-7.60004E-001	-7.60015E-001	8	...........
	405	10.15	-7.50165E-001	-3.93213E-005	0.00000E+000	-7.50005E-001	-7.49811E-001	8	...........
	406	10.175	-7.39965E-001	-3.26577E-005	0.00000E+000	-7.40007E-001	-7.39807E-001	7	...........
	407	10.2	-7.29965E-001	-2.79628E-005	0.00000E+000	-7.30008E-001	-7.30003E-001	7	...........
	408	10.225	-7.19765E-001	-2.33213E-005	0.00000E+000	-7.20009E-001	-7.20000E-001	7	...........
	409	10.25	-7.09965E-001	-1.96753E-005	0.00000E+000	-7.10010E-001	-7.09796E-001	7	...........
	410	10.275	-6.99965E-001	-1.65537E-005	0.00000E+000	-7.00012E-001	-6.99992E-001	7	...........
	411	10.3	-6.89965E-001	-1.35908E-005	0.00000E+000	-6.90013E-001	-6.89989E-001	7	...........
	412	10.325	-6.79965E-001	-1.08267E-005	0.00000E+000	-6.80014E-001	-6.79985E-001	7	...........
	413	10.35	-6.69965E-001	-8.79072E-006	0.00000E+000	-6.70015E-001	-6.69981E-001	7	...........
	414	10.375	-6.59965E-001	-6.91510E-006	0.00000E+000	-6.60017E-001	-6.60178E-001	7	...........
	415	10.4	-6.49965E-001	-5.13301E-006	0.00000E+000	-6.50018E-001	-6.49974E-001	7	...........
	416	10.425	-6.39965E-001	-3.22733E-006	0.00000E+000	-6.40019E-001	-6.39970E-001	7	...........
	417	10.45	-6.29965E-001	-2.18013E-006	0.00000E+000	-6.30020E-001	-6.30167E-001	7	...........
	418	10.475	-6.19965E-001	-8.89073E-007	0.00000E+000	-6.20022E-001	-6.20163E-001	7	...........
	419	10.5	-6.09965E-001	2.58344E-007	0.00000E+000	-6.09973E-001	-6.09759E-001	7	...........
	420	10.525	-5.99765E-001	1.52935E-006	0.00000E+000	-5.99974E-001	-5.99955E-001	7	...........
	421	10.55	-5.90165E-001	2.41789E-006	0.00000E+000	-5.89975E-001	-5.90152E-001	7	...........
	422	10.575	-5.79965E-001	3.30142E-006	0.00000E+000	-5.79977E-001	-5.80148E-001	7	...........
	423	10.6	-5.70165E-001	4.22670E-006	0.00000E+000	-5.69978E-001	-5.69944E-001	7	...........
	424	10.625	-5.60165E-001	5.27391E-006	0.00000E+000	-5.59979E-001	-5.59941E-001	7	...........
	425	10.65	-5.49965E-001	5.65638E-006	0.00000E+000	-5.49981E-001	-5.49937E-001	7	...........
	426	10.675	-5.39965E-001	6.10900E-006	0.00000E+000	-5.39982E-001	-5.40133E-001	7	...........
	427	10.7	-5.29765E-001	6.78877E-006	0.00000E+000	-5.29983E-001	-5.30130E-001	7	...........
	428	10.725	-5.19965E-001	7.26143E-006	0.00000E+000	-5.19984E-001	-5.20126E-001	7	...........
	429	10.75	-5.09965E-001	7.88608E-006	0.00000E+000	-5.09986E-001	-5.10122E-001	7	...........
	430	10.775	-5.00165E-001	8.32367E-006	0.00000E+000	-4.99987E-001	-4.99918E-001	7	...........
	431	10.8	-4.89965E-001	8.54413E-006	0.00000E+000	-4.89988E-001	-4.90115E-001	7	...........
	432	10.825	-4.80165E-001	8.96669E-006	0.00000E+000	-4.79989E-001	-4.80111E-001	7	...........
	433	10.85	-4.70165E-001	9.54457E-006	0.00000E+000	-4.69991E-001	-4.70107E-001	7	...........
	434	10.875	-4.60165E-001	1.00640E-005	0.00000E+000	-4.59992E-001	-4.60104E-001	7	...........
	435	10.9	-4.49765E-001	1.02728E-005	0.00000E+000	-4.49993E-001	-4.49900E-001	7	...........
	436	10.925	-4.39965E-001	1.07287E-005	0.00000E+000	-4.39994E-001	-4.40096E-001	7	...........
	437	10.95	-4.29965E-001	1.08223E-005	0.00000E+000	-4.29996E-001	-4.30093E-001	7	...........
	438	10.975	-4.20165E-001	1.12014E-005	0.00000E+000	-4.19997E-001	-4.20289E-001	7	...........
	439	11	-4.09965E-001	1.13133E-005	0.00000E+000	-4.09998E-001	-4.10285E-001	7	...........
	440	11.025	-3.99965E-001	1.15738E-005	0.00000E+000	-3.99999E-001	-4.00081E-001	7	...........
	441	11.05	-3.90165E-001	1.18862E-005	0.00000E+000	-3.90001E-001	-3.90278E-001	7	...........
	442	11.075	-3.80165E-001	1.23889E-005	0.00000E+000	-3.80002E-001	-3.80074E-001	7	...........
	443	11.1	-3.70165E-001	1.24624E-005	0.00000E+000	-3.70003E-001	-3.70270E-001	7	...........
	444	11.125	-3.60165E-001	1.27346E-005	0.00000E+000	-3.60005E-001	-3.60267E-001	7	...........
	445	11.15	-3.50165E-001	1.30520E-005	0.00000E+000	-3.50006E-001	-3.50263E-001	7	...........
	446	11.175	-3.40165E-001	1.32173E-005	0.00000E+000	-3.40007E-001	-3.40259E-001	7	...........
	447	11.2	-3.30165E-001	1.31739E-005	0.00000E+000	-3.30008E-001	-3.30256E-001	7	...........
	448	11.225	-3.20165E-001	1.34595E-005	0.00000E+000	-3.20010E-001	-3.20452E-001	7	...........
	449	11.25	-3.10165E-001	1.38904E-005	0.00000E+000	-3.10011E-001	-3.10248E-001	7	...........
	450	11.275	-3.00365E-001	1.38754E-005	0.00000E+000	-3.00012E-001	-3.00245E-001	7	...........
	451	11.3	-2.90365E-001	1.39990E-005	0.00000E+000	-2.90013E-001	-2.90441E-001	7	...........
	452	11.325	-2.80165E-001	1.46069E-005	0.00000E+000	-2.80015E-001	-2.80237E-001	7	...........
	453	11.35	-2.70165E-001	1.44198E-005	0.00000E+000	-2.70016E-001	-2.70033E-001	7	...........
	454	11.375	-2.60365E-001	1.46036E-005	0.00000E+000	-2.60017E-001	-2.60230E-001	7	...........
	455	11.4	-2.49965E-001	1.49092E-005	0.00000E+000	-2.50018E-001	-2.50426E-001	7	...........
	456	11.425	-2.40165E-001	1.48541E-005	0.00000E+000	-2.40020E-001	-2.40222E-001	7	...........
	457	11.45	-2.30365E-001	1.48558E-005	0.00000E+000	-2.30021E-001	-2.30019E-001	7	...........
	458	11.475	-2.20365E-001	1.53351E-005	0.00000E+000	-2.20022E-001	-2.20415E-001	7	...........
	459	11.5	-2.10165E-001	1.55455E-005	0.00000E+000	-2.09973E-001	-2.10411E-001	7	...........
	460	11.525	-1.99965E-001	1.54470E-005	0.00000E+000	-1.99975E-001	-2.00408E-001	7	...........
	461	11.55	-1.90165E-001	1.56892E-005	0.00000E+000	-1.89976E-001	-1.90004E-001	7	...........
	462	11.575	-1.80165E-001	1.53000E-005	0.00000E+000	-1.79977E-001	-1.80400E-001	7	...........
	463	11.6	-1.70365E-001	1.58562E-005	0.00000E+000	-1.69979E-001	-1.70197E-001	7	...........
	464	11.625	-1.60165E-001	1.60516E-005	0.00000E+000	-1.59980E-001	-1.60393E-001	7	...........
	465	11.65	-1.50365E-001	1.63573E-005	0.00000E+000	-1.49981E-001	-1.50189E-001	7	...........
	466	11.675	-1.40365E-001	1.64024E-005	0.00000E+000	-1.39982E-001	-1.40385E-001	7	...........
	467	11.7	-1.30165E-001	1.67999E-005	0.00000E+000	-1.29984E-001	-1.30382E-001	7	...........
	468	11.725	-1.20165E-001	1.68917E-005	0.00000E+000	-1.19985E-001	-1.20378E-001	7	...........
	469	11.75	-1.10365E-001	1.70120E-005	0.00000E+000	-1.09986E-001	-1.10374E-001	7	...........
	470	11.775	-1.00165E-001	1.67581E-005	0.00000E+000	-9.99874E-002	-1.00371E-001	7	...........
	471	11.8	-9.03651E-002	1.70354E-005	0.00000E+000	-8.99886E-002	-9.03670E-002	7	...........
	472	11.825	-8.03651E-002	1.71556E-005	0.00000E+000	-7.99899E-002	-8.05634E-002	7	...........
	473	11.85	-7.01651E-002	1.71974E-005	0.00000E+000	-6.99912E-002	-7.03596E-002	7	...........
	474	11.875	-6.05651E-002	1.77101E-005	0.00000E+000	-5.99924E-002	-6.03559E-002	7	...........
	475	11.9	-5.03651E-002	1.77068E-005	0.00000E+000	-4.99937E-002	-5.05523E-002	7	...........
	476	11.925	-4.03651E-002	1.79105E-005	0.00000E+000	-3.99949E-002	-4.03485E-002	7	...........
	477	11.95	-3.03651E-002	1.79690E-005	0.00000E+000	-2.99962E-002	-3.03448E-002	7	...........
	478	11.975	-2.03651E-002	1.81026E-005	0.00000E+000	-1.99975E-002	-2.05412E-002	7	...........
	479	12	-1.03651E-002	1.81828E-005	0.00000E+000	-9.99874E-003	-1.07376E-002	7	...........
	480	12.025	-3.65120E-004	1.82262E-005	0.00000E+000	0.00000E+000	-5.33797E-004	7	...........
	481	12.05	9.63488E-003	1.85686E-005	0.00000E+000	9.99874E-003	9.46990E-003	7	...........
	482	12.075	1.98349E-002	1.87957E-005	0.00000E+000	1.99975E-002	1.94736E-002	7	...........
	483	12.1	2.94349E-002	1.91815E-005	0.00000E+000	2.99962E-002	2.94773E-002	7	...........
	484	12.125	3.96349E-002	1.89160E-005	0.00000E+000	3.99949E-002	3.94810E-002	7	...........
	485	12.15	4.94349E-002	1.94053E-005	0.00000E+000	4.99937E-002	4.92846E-002	7	...........
	486	12.175	5.94349E-002	1.95072E-005	0.00000E+000	5.99924E-002	5.96885E-002	7	...........
	487	12.2	6.94349E-002	1.94104E-005	0.00000E+000	6.99912E-002	6.94921E-002	7	...........
	488	12.225	7.98349E-002	2.01536E-005	0.00000E+000	7.99899E-002	7.94958E-002	7	...........
	489	12.25	8.96349E-002	2.02738E-005	0.00000E+000	8.99886E-002	8.92994E-002	7	...........
	490	12.275	9.96349E-002	2.00400E-005	0.00000E+000	9.99874E-002	9.93031E-002	7	...........
	491	12.3	1.09635E-001	2.06730E-005	0.00000E+000	1.09986E-001	1.09307E-001	7	...........
	492	12.325	1.19435E-001	2.07749E-005	0.00000E+000	1.19985E-001	1.19310E-001	7	...........
	493	12.35	1.29435E-001	2.10104E-005	0.00000E+000	1.29984E-001	1.29314E-001	7	...........
	494	12.375	1.39635E-001	2.12860E-005	0.00000E+000	1.39982E-001	1.39118E-001	7	...........
	495	12.4	1.49635E-001	2.17252E-005	0.00000E+000	1.49981E-001	1.49122E-001	7	...........
	496	12.425	1.59635E-001	2.16233E-005	0.00000E+000	1.59980E-001	1.59325E-001	7	...........
	497	12.45	1.69635E-001	2.23265E-005	0.00000E+000	1.69979E-001	1.69329E-001	7	...........
	498	12.475	1.79435E-001	2.21895E-005	0.00000E+000	1.79977E-001	1.79333E-001	7	...........
	499	12.5	1.89435E-001	2.27791E-005	0.00000E+000	1.90026E-001	1.89336E-001	7	...........
	500	12.525	1.99435E-001	2.31599E-005	0.00000E+000	2.00025E-001	1.99140E-001	7	...........
	501	12.55	2.09635E-001	2.36944E-005	0.00000E+000	2.10023E-001	2.09144E-001	7	...........
	502	12.575	2.19635E-001	2.40468E-005	0.00000E+000	2.20022E-001	2.19347E-001	7	...........
	503	12.6	2.29435E-001	2.41103E-005	0.00000E+000	2.30021E-001	2.29151E-001	7	...........
	504	12.625	2.39635E-001	2.52360E-005	0.00000E+000	2.40020E-001	2.39355E-001	7	...........
	505	12.65	2.49235E-001	2.56051E-005	0.00000E+000	2.50018E-001	2.49159E-001	7	...........
	506	12.675	2.59435E-001	2.57721E-005	0.00000E+000	2.60017E-001	2.59162E-001	7	...........
	507	12.7	2.69435E-001	2.65571E-005	0.00000E+000	2.70016E-001	2.69166E-001	7	...........
	508	12.725	2.79435E-001	2.70097E-005	0.00000E+000	2.80015E-001	2.79370E-001	7	...........
	509	12.75	2.89435E-001	2.74991E-005	0.00000E+000	2.90013E-001	2.89173E-001	7	...........
	510	12.775	2.99435E-001	2.83124E-005	0.00000E+000	3.00012E-001	2.99177E-001	7	...........
	511	12.8	3.09435E-001	2.87868E-005	0.00000E+000	3.10011E-001	3.09181E-001	7	...........
	512	12.825	3.19435E-001	2.93780E-005	0.00000E+000	3.20010E-001	3.19184E-001	7	...........
	513	12.85	3.29235E-001	2.99425E-005	0.00000E+000	3.30008E-001	3.28988E-001	7	...........
	514	12.875	3.39435E-001	3.06140E-005	0.00000E+000	3.40007E-001	3.39192E-001	7	...........
	515	12.9	3.49435E-001	3.12670E-005	0.00000E+000	3.50006E-001	3.49195E-001	7	...........
	516	12.925	3.59435E-001	3.17681E-005	0.00000E+000	3.60005E-001	3.59199E-001	7	...........
	517	12.95	3.69435E-001	3.27952E-005	0.00000E+000	3.70003E-001	3.69203E-001	7	...........
	518	12.975	3.79435E-001	3.33030E-005	0.00000E+000	3.80002E-001	3.79207E-001	7	...........
	519	13	3.89435E-001	3.41948E-005	0.00000E+000	3.90001E-001	3.89210E-001	7	...........
	520	13.025	3.99635E-001	3.50566E-005	0.00000E+000	3.99999E-001	3.99214E-001	7	...........
	521	13.05	4.09235E-001	3.56830E-005	0.00000E+000	4.09998E-001	4.09218E-001	7	...........
	522	13.075	4.19235E-001	3.64312E-005	0.00000E+000	4.19997E-001	4.19221E-001	7	...........
	523	13.1	4.29435E-001	3.71527E-005	0.00000E+000	4.29996E-001	4.29025E-001	7	...........
	524	13.125	4.39435E-001	3.78859E-005	0.00000E+000	4.39994E-001	4.39029E-001	7	...........
	525	13.15	4.49435E-001	3.87377E-005	0.00000E+000	4.49993E-001	4.49032E-001	7	...........
	526	13.175	4.59435E-001	3.96146E-005	0.00000E+000	4.59992E-001	4.59236E-001	7	...........
	527	13.2	4.69435E-001	4.02125E-005	0.00000E+000	4.69991E-001	4.69240E-001	7	...........
	528	13.225	4.79435E-001	4.09891E-005	0.00000E+000	4.79989E-001	4.78843E-001	7	...........
	529	13.25	4.89435E-001	4.19128E-005	0.00000E+000	4.89988E-001	4.89047E-001	7	...........
	530	13.275	4.99235E-001	4.28581E-005	0.00000E+000	4.99987E-001	4.99051E-001	7	...........
	531	13.3	5.09235E-001	4.38518E-005	0.00000E+000	5.09986E-001	5.09055E-001	7	...........
	532	13.325	5.19235E-001	4.44899E-005	0.00000E+000	5.19984E-001	5.19058E-001	7	...........
	533	13.35	5.29235E-001	4.59384E-005	0.00000E+000	5.29983E-001	5.29062E-001	8	...........
	534	13.375	5.39035E-001	4.68900E-005	0.00000E+000	5.39982E-001	5.38866E-001	8	...........
	535	13.4	5.49235E-001	4.70903E-005	0.00000E+000	5.49981E-001	5.49069E-001	8	...........
	536	13.425	5.59235E-001	4.80920E-005	0.00000E+000	5.59979E-001	5.58873E-001	8	...........
	537	13.45	5.69435E-001	4.82589E-005	0.00000E+000	5.69978E-001	5.69077E-001	8	...........
	538	13.475	5.79235E-001	5.07131E-005	0.00000E+000	5.79977E-001	5.79080E-001	8	...........
	539	13.5	5.89435E-001	5.17314E-005	0.00000E+000	5.89975E-001	5.89084E-001	8	...........
	540	13.525	5.99235E-001	5.30169E-005	0.00000E+000	6.00024E-001	5.99088E-001	8	...........
	541	13.55	6.09235E-001	5.46864E-005	0.00000E+000	6.10023E-001	6.08891E-001	8	...........
	542	13.575	6.19235E-001	5.53041E-005	0.00000E+000	6.20022E-001	6.18895E-001	8	...........
	543	13.6	6.29435E-001	5.64393E-005	0.00000E+000	6.30020E-001	6.29099E-001	8	...........
	544	13.625	6.39035E-001	5.85596E-005	0.00000E+000	6.40019E-001	6.38903E-001	8	...........
	545	13.65	6.49035E-001	5.87098E-005	0.00000E+000	6.50018E-001	6.48906E-001	8	...........
	546	13.675	6.59235E-001	6.13309E-005	0.00000E+000	6.60017E-001	6.59110E-001	8	...........
	547	13.7	6.69235E-001	6.18985E-005	0.00000E+000	6.70015E-001	6.68914E-001	8	...........
	548	13.725	6.79035E-001	6.26832E-005	0.00000E+000	6.80014E-001	6.79117E-001	8	...........
	549	13.75	6.89235E-001	6.46698E-005	0.00000E+000	6.90013E-001	6.89121E-001	8	...........
	550	13.775	6.99235E-001	6.60388E-005	0.00000E+000	7.00012E-001	6.98925E-001	8	...........
	551	13.8	7.09235E-001	6.76248E-005	0.00000E+000	7.10010E-001	7.08928E-001	8	...........
	552	13.825	7.19235E-001	6.90939E-005	0.00000E+000	7.20009E-001	7.18932E-001	8	...........
	553	13.85	7.29435E-001	7.10806E-005	0.00000E+000	7.30008E-001	7.28936E-001	8	...........
	554	13.875	7.39235E-001	7.30505E-005	0.00000E+000	7.40007E-001	7.38940E-001	8	...........
	555	13.9	7.49035E-001	7.45030E-005	0.00000E+000	7.50005E-001	7.49143E-001	8	...........
	556	13.925	7.59035E-001	7.65230E-005	0.00000E+000	7.60004E-001	7.58947E-001	8	...........
	557	13.95	7.69235E-001	7.84596E-005	0.00000E+000	7.70003E-001	7.68751E-001	8	...........
	558	13.975	7.79235E-001	7.94780E-005	0.00000E+000	7.80001E-001	7.78954E-001	8	...........
	559	14	7.89035E-001	8.27835E-005	0.00000E+000	7.90000E-001	7.88758E-001	8	...........
	560	14.025	7.99235E-001	8.32009E-005	0.00000E+000	7.99999E-001	7.98762E-001	8	...........
CURVE3	TABLE
	Pt	T	Vf	Im	Vu	Sig	Ach	IERange	Over
	#	s	V vs. Ref.	A	V	V	V	#	bits
	561	14.05	7.89235E-001	6.53042E-005	0.00000E+000	7.90000E-001	7.88758E-001	8	...........
	562	14.075	7.79035E-001	5.26497E-005	0.00000E+000	7.80001E-001	7.78954E-001	8	...........
	563	14.1	7.69235E-001	4.35344E-005	0.00000E+000	7.70003E-001	7.68951E-001	8	...........
	564	14.125	7.59035E-001	3.62722E-005	0.00000E+000	7.60004E-001	7.58947E-001	8	...........
	565	14.15	7.49235E-001	3.03517E-005	0.00000E+000	7.50005E-001	7.48943E-001	7	...........
	566	14.175	7.39035E-001	2.52760E-005	0.00000E+000	7.40007E-001	7.38940E-001	7	...........
	567	14.2	7.29035E-001	2.09787E-005	0.00000E+000	7.30008E-001	7.28936E-001	7	...........
	568	14.225	7.19035E-001	1.72324E-005	0.00000E+000	7.20009E-001	7.18932E-001	7	...........
	569	14.25	7.09235E-001	1.37134E-005	0.00000E+000	7.10010E-001	7.08928E-001	7	...........
	570	14.275	6.99235E-001	1.08974E-005	0.00000E+000	7.00012E-001	6.98925E-001	7	...........
	571	14.3	6.89235E-001	8.34037E-006	0.00000E+000	6.90013E-001	6.88921E-001	7	...........
	572	14.325	6.79235E-001	6.09063E-006	0.00000E+000	6.80014E-001	6.79117E-001	7	...........
	573	14.35	6.69235E-001	4.27681E-006	0.00000E+000	6.70015E-001	6.69114E-001	7	...........
	574	14.375	6.59235E-001	2.23584E-006	0.00000E+000	6.60017E-001	6.58910E-001	7	...........
	575	14.4	6.49235E-001	8.84663E-007	0.00000E+000	6.50018E-001	6.49106E-001	7	...........
	576	14.425	6.39235E-001	-5.85100E-007	0.00000E+000	6.40019E-001	6.38903E-001	7	...........
	577	14.45	6.29235E-001	-1.79765E-006	0.00000E+000	6.30020E-001	6.29099E-001	7	...........
	578	14.475	6.19235E-001	-3.07702E-006	0.00000E+000	6.20022E-001	6.18895E-001	7	...........
	579	14.5	6.09235E-001	-4.19103E-006	0.00000E+000	6.10023E-001	6.09092E-001	7	...........
	580	14.525	5.99235E-001	-4.62027E-006	0.00000E+000	6.00024E-001	5.99288E-001	7	...........
	581	14.55	5.89035E-001	-5.67916E-006	0.00000E+000	5.89975E-001	5.88884E-001	7	...........
	582	14.575	5.79235E-001	-6.37062E-006	0.00000E+000	5.79977E-001	5.79280E-001	7	...........
	583	14.6	5.69235E-001	-7.30759E-006	0.00000E+000	5.69978E-001	5.69077E-001	7	...........
	584	14.625	5.59235E-001	-7.87212E-006	0.00000E+000	5.59979E-001	5.59073E-001	7	...........
	585	14.65	5.49235E-001	-8.15939E-006	0.00000E+000	5.49981E-001	5.49069E-001	7	...........
	586	14.675	5.39435E-001	-9.04459E-006	0.00000E+000	5.39982E-001	5.39266E-001	7	...........
	587	14.7	5.29435E-001	-9.30681E-006	0.00000E+000	5.29983E-001	5.28862E-001	7	...........
	588	14.725	5.19235E-001	-9.86966E-006	0.00000E+000	5.19984E-001	5.19258E-001	7	...........
	589	14.75	5.09235E-001	-1.03239E-005	0.00000E+000	5.09986E-001	5.09055E-001	7	...........
	590	14.775	4.99235E-001	-1.05795E-005	0.00000E+000	4.99987E-001	4.99251E-001	7	...........
	591	14.8	4.89435E-001	-1.09235E-005	0.00000E+000	4.89988E-001	4.89047E-001	7	...........
	592	14.825	4.79235E-001	-1.10154E-005	0.00000E+000	4.79989E-001	4.79043E-001	7	...........
	593	14.85	4.69235E-001	-1.19591E-005	0.00000E+000	4.69991E-001	4.69040E-001	7	...........
	594	14.875	4.59435E-001	-1.18822E-005	0.00000E+000	4.59992E-001	4.59236E-001	7	...........
	595	14.9	4.49435E-001	-1.24584E-005	0.00000E+000	4.49993E-001	4.49232E-001	7	...........
	596	14.925	4.39435E-001	-1.26488E-005	0.00000E+000	4.39994E-001	4.39229E-001	7	...........
	597	14.95	4.29435E-001	-1.27424E-005	0.00000E+000	4.29996E-001	4.29225E-001	7	...........
	598	14.975	4.19235E-001	-1.31699E-005	0.00000E+000	4.19997E-001	4.19221E-001	7	...........
	599	15	4.09435E-001	-1.35056E-005	0.00000E+000	4.09998E-001	4.09218E-001	7	...........
	600	15.025	3.99235E-001	-1.32651E-005	0.00000E+000	3.99999E-001	3.99014E-001	7	...........
	601	15.05	3.89235E-001	-1.38330E-005	0.00000E+000	3.90001E-001	3.89210E-001	7	...........
	602	15.075	3.79235E-001	-1.38230E-005	0.00000E+000	3.80002E-001	3.79207E-001	7	...........
	603	15.1	3.69235E-001	-1.41787E-005	0.00000E+000	3.70003E-001	3.69203E-001	7	...........
	604	15.125	3.59435E-001	-1.41721E-005	0.00000E+000	3.60005E-001	3.59199E-001	7	...........
	605	15.15	3.49635E-001	-1.43658E-005	0.00000E+000	3.50006E-001	3.49195E-001	7	...........
	606	15.175	3.39435E-001	-1.43023E-005	0.00000E+000	3.40007E-001	3.39392E-001	7	...........
	607	15.2	3.29435E-001	-1.48101E-005	0.00000E+000	3.30008E-001	3.29188E-001	7	...........
	608	15.225	3.19635E-001	-1.48385E-005	0.00000E+000	3.20010E-001	3.19184E-001	7	...........
	609	15.25	3.09435E-001	-1.47115E-005	0.00000E+000	3.10011E-001	3.09181E-001	7	...........
	610	15.275	2.99635E-001	-1.51357E-005	0.00000E+000	3.00012E-001	2.99177E-001	7	...........
	611	15.3	2.89435E-001	-1.52610E-005	0.00000E+000	2.90013E-001	2.89173E-001	7	...........
	612	15.325	2.79435E-001	-1.51758E-005	0.00000E+000	2.80015E-001	2.79170E-001	7	...........
	613	15.35	2.69435E-001	-1.51441E-005	0.00000E+000	2.70016E-001	2.69366E-001	7	...........
	614	15.375	2.59435E-001	-1.54447E-005	0.00000E+000	2.60017E-001	2.59362E-001	7	...........
	615	15.4	2.49635E-001	-1.57504E-005	0.00000E+000	2.50018E-001	2.49159E-001	7	...........
	616	15.425	2.39435E-001	-1.55115E-005	0.00000E+000	2.40020E-001	2.39355E-001	7	...........
	617	15.45	2.29435E-001	-1.57370E-005	0.00000E+000	2.30021E-001	2.29351E-001	7	...........
	618	15.475	2.19435E-001	-1.58523E-005	0.00000E+000	2.20022E-001	2.19347E-001	7	...........
	619	15.5	2.09435E-001	-1.58138E-005	0.00000E+000	2.10023E-001	2.09144E-001	7	...........
	620	15.525	1.99635E-001	-1.61345E-005	0.00000E+000	2.00025E-001	1.99340E-001	7	...........
	621	15.55	1.89635E-001	-1.60427E-005	0.00000E+000	1.90026E-001	1.89336E-001	7	...........
	622	15.575	1.79635E-001	-1.59942E-005	0.00000E+000	1.79977E-001	1.79333E-001	7	...........
	623	15.6	1.69435E-001	-1.63901E-005	0.00000E+000	1.69979E-001	1.69529E-001	7	...........
	624	15.625	1.59435E-001	-1.63132E-005	0.00000E+000	1.59980E-001	1.59325E-001	7	...........
	625	15.65	1.49435E-001	-1.64786E-005	0.00000E+000	1.49981E-001	1.49122E-001	7	...........
	626	15.675	1.39635E-001	-1.66406E-005	0.00000E+000	1.39982E-001	1.39318E-001	7	...........
	627	15.7	1.29635E-001	-1.62965E-005	0.00000E+000	1.29984E-001	1.29314E-001	7	...........
	628	15.725	1.19635E-001	-1.66089E-005	0.00000E+000	1.19985E-001	1.19310E-001	7	...........
	629	15.75	1.09435E-001	-1.65955E-005	0.00000E+000	1.09986E-001	1.09307E-001	7	...........
	630	15.775	9.94349E-002	-1.68627E-005	0.00000E+000	9.99874E-002	9.93031E-002	7	...........
	631	15.8	8.96349E-002	-1.69395E-005	0.00000E+000	8.99886E-002	8.90993E-002	7	...........
	632	15.825	7.94349E-002	-1.67174E-005	0.00000E+000	7.99899E-002	7.92957E-002	7	...........
	633	15.85	6.96349E-002	-1.66573E-005	0.00000E+000	6.99912E-002	6.92920E-002	7	...........
	634	15.875	5.98349E-002	-1.68477E-005	0.00000E+000	5.99924E-002	5.92883E-002	7	...........
	635	15.9	4.96349E-002	-1.72051E-005	0.00000E+000	4.99937E-002	4.94847E-002	7	...........
	636	15.925	3.94349E-002	-1.70013E-005	0.00000E+000	3.99949E-002	3.94810E-002	7	...........
	637	15.95	2.96349E-002	-1.71717E-005	0.00000E+000	2.99962E-002	2.94773E-002	7	...........
	638	15.975	1.96349E-002	-1.72669E-005	0.00000E+000	1.99975E-002	1.94736E-002	7	...........
	639	16	9.63488E-003	-1.76477E-005	0.00000E+000	9.99874E-003	9.46990E-003	7	...........
	640	16.025	-1.65120E-004	-1.74757E-005	0.00000E+000	0.00000E+000	-3.33723E-004	7	...........
	641	16.05	-1.01651E-002	-1.74089E-005	0.00000E+000	-9.99874E-003	-1.03374E-002	7	...........
	642	16.075	-2.03651E-002	-1.75692E-005	0.00000E+000	-1.99975E-002	-2.05412E-002	7	...........
	643	16.1	-3.05651E-002	-1.76711E-005	0.00000E+000	-2.99962E-002	-3.05449E-002	7	...........
	644	16.125	-4.03651E-002	-1.80836E-005	0.00000E+000	-3.99949E-002	-4.05486E-002	7	...........
	645	16.15	-5.03651E-002	-1.81788E-005	0.00000E+000	-4.99937E-002	-5.03522E-002	7	...........
	646	16.175	-6.03651E-002	-1.79166E-005	0.00000E+000	-5.99924E-002	-6.03559E-002	7	...........
	647	16.2	-7.01651E-002	-1.82657E-005	0.00000E+000	-6.99912E-002	-7.05597E-002	7	...........
	648	16.225	-8.01651E-002	-1.83575E-005	0.00000E+000	-7.99899E-002	-8.05634E-002	7	...........
	649	16.25	-9.01651E-002	-1.85864E-005	0.00000E+000	-8.99886E-002	-9.03670E-002	7	...........
	650	16.275	-1.00365E-001	-1.89555E-005	0.00000E+000	-9.99874E-002	-1.00371E-001	7	...........
	651	16.3	-1.10365E-001	-1.91809E-005	0.00000E+000	-1.09986E-001	-1.10374E-001	7	...........
	652	16.325	-1.20165E-001	-1.90189E-005	0.00000E+000	-1.19985E-001	-1.20378E-001	7	...........
	653	16.35	-1.30365E-001	-1.93396E-005	0.00000E+000	-1.29984E-001	-1.30382E-001	7	...........
	654	16.375	-1.40365E-001	-1.95183E-005	0.00000E+000	-1.39982E-001	-1.40385E-001	7	...........
	655	16.4	-1.50165E-001	-1.99609E-005	0.00000E+000	-1.49981E-001	-1.50389E-001	7	...........
	656	16.425	-1.60165E-001	-2.01463E-005	0.00000E+000	-1.59980E-001	-1.60393E-001	7	...........
	657	16.45	-1.70365E-001	-2.02649E-005	0.00000E+000	-1.69979E-001	-1.70397E-001	7	...........
	658	16.475	-1.80165E-001	-2.06774E-005	0.00000E+000	-1.79977E-001	-1.80400E-001	7	...........
	659	16.5	-1.90165E-001	-2.07526E-005	0.00000E+000	-1.89976E-001	-1.90404E-001	7	...........
	660	16.525	-2.00365E-001	-2.13906E-005	0.00000E+000	-1.99975E-001	-2.00408E-001	7	...........
	661	16.55	-2.09965E-001	-2.18131E-005	0.00000E+000	-2.09973E-001	-2.10411E-001	7	...........
	662	16.575	-2.20165E-001	-2.18466E-005	0.00000E+000	-2.20022E-001	-2.20415E-001	7	...........
	663	16.6	-2.30165E-001	-2.24061E-005	0.00000E+000	-2.30021E-001	-2.30419E-001	7	...........
	664	16.625	-2.40165E-001	-2.28821E-005	0.00000E+000	-2.40020E-001	-2.40222E-001	7	...........
	665	16.65	-2.50165E-001	-2.33130E-005	0.00000E+000	-2.50018E-001	-2.50226E-001	7	...........
	666	16.675	-2.60165E-001	-2.38575E-005	0.00000E+000	-2.60017E-001	-2.60430E-001	7	...........
	667	16.7	-2.70165E-001	-2.44420E-005	0.00000E+000	-2.70016E-001	-2.70233E-001	7	...........
	668	16.725	-2.80365E-001	-2.48679E-005	0.00000E+000	-2.80015E-001	-2.80437E-001	7	...........
	669	16.75	-2.90365E-001	-2.54909E-005	0.00000E+000	-2.90013E-001	-2.90441E-001	7	...........
	670	16.775	-3.00165E-001	-2.60087E-005	0.00000E+000	-3.00012E-001	-3.00245E-001	7	...........
	671	16.8	-3.10365E-001	-2.65231E-005	0.00000E+000	-3.10011E-001	-3.10448E-001	7	...........
	672	16.825	-3.20165E-001	-2.71344E-005	0.00000E+000	-3.20010E-001	-3.20252E-001	7	...........
	673	16.85	-3.30165E-001	-2.78575E-005	0.00000E+000	-3.30008E-001	-3.30256E-001	7	...........
	674	16.875	-3.40165E-001	-2.86292E-005	0.00000E+000	-3.40007E-001	-3.40259E-001	7	...........
	675	16.9	-3.50365E-001	-2.92204E-005	0.00000E+000	-3.50006E-001	-3.50263E-001	7	...........
	676	16.925	-3.60165E-001	-3.00204E-005	0.00000E+000	-3.60005E-001	-3.60267E-001	7	...........
	677	16.95	-3.70165E-001	-3.10660E-005	0.00000E+000	-3.70003E-001	-3.70070E-001	7	...........
	678	16.975	-3.80165E-001	-3.16622E-005	0.00000E+000	-3.80002E-001	-3.80074E-001	7	...........
	679	17	-3.90165E-001	-3.25424E-005	0.00000E+000	-3.90001E-001	-3.90278E-001	7	...........
	680	17.025	-4.00165E-001	-3.32188E-005	0.00000E+000	-3.99999E-001	-4.00282E-001	7	...........
	681	17.05	-4.10165E-001	-3.43896E-005	0.00000E+000	-4.09998E-001	-4.10085E-001	7	...........
	682	17.075	-4.20165E-001	-3.52297E-005	0.00000E+000	-4.19997E-001	-4.20089E-001	7	...........
	683	17.1	-4.29965E-001	-3.60832E-005	0.00000E+000	-4.29996E-001	-4.30093E-001	7	...........
	684	17.125	-4.40165E-001	-3.73258E-005	0.00000E+000	-4.39994E-001	-4.40096E-001	7	...........
	685	17.15	-4.49965E-001	-3.86219E-005	0.00000E+000	-4.49993E-001	-4.50100E-001	7	...........
	686	17.175	-4.60165E-001	-3.90344E-005	0.00000E+000	-4.59992E-001	-4.59904E-001	7	...........
	687	17.2	-4.70165E-001	-4.06044E-005	0.00000E+000	-4.69991E-001	-4.70107E-001	7	...........
	688	17.225	-4.80165E-001	-4.15798E-005	0.00000E+000	-4.79989E-001	-4.80111E-001	7	...........
	689	17.25	-4.89965E-001	-4.28341E-005	0.00000E+000	-4.89988E-001	-4.90115E-001	7	...........
	690	17.275	-4.99965E-001	-4.38646E-005	0.00000E+000	-4.99987E-001	-4.99918E-001	7	...........
	691	17.3	-5.09965E-001	-4.52909E-005	0.00000E+000	-5.09986E-001	-5.10322E-001	7	...........
	692	17.325	-5.19965E-001	-4.55317E-005	0.00000E+000	-5.19984E-001	-5.20126E-001	8	...........
	693	17.35	-5.29965E-001	-4.75017E-005	0.00000E+000	-5.29983E-001	-5.30130E-001	8	...........
	694	17.375	-5.39965E-001	-4.84199E-005	0.00000E+000	-5.39982E-001	-5.40133E-001	8	...........
	695	17.4	-5.49965E-001	-5.09241E-005	0.00000E+000	-5.49981E-001	-5.50137E-001	8	...........
	696	17.425	-5.59965E-001	-5.23265E-005	0.00000E+000	-5.59979E-001	-5.60141E-001	8	...........
	697	17.45	-5.69965E-001	-5.27772E-005	0.00000E+000	-5.69978E-001	-5.70144E-001	8	...........
	698	17.475	-5.79965E-001	-5.43966E-005	0.00000E+000	-5.79977E-001	-5.80148E-001	8	...........
	699	17.5	-5.89965E-001	-5.61996E-005	0.00000E+000	-5.89975E-001	-5.89952E-001	8	...........
	700	17.525	-5.99965E-001	-5.71178E-005	0.00000E+000	-5.99974E-001	-5.99755E-001	8	...........
	701	17.55	-6.09765E-001	-6.00394E-005	0.00000E+000	-6.09973E-001	-6.09959E-001	8	...........
	702	17.575	-6.19965E-001	-6.07740E-005	0.00000E+000	-6.20022E-001	-6.20163E-001	8	...........
	703	17.6	-6.29965E-001	-6.33783E-005	0.00000E+000	-6.30020E-001	-6.29966E-001	8	...........
	704	17.625	-6.39765E-001	-6.55486E-005	0.00000E+000	-6.40019E-001	-6.39970E-001	8	...........
	705	17.65	-6.49965E-001	-6.64168E-005	0.00000E+000	-6.50018E-001	-6.49974E-001	8	...........
	706	17.675	-6.59965E-001	-6.94051E-005	0.00000E+000	-6.60017E-001	-6.59978E-001	8	...........
	707	17.7	-6.69965E-001	-7.14085E-005	0.00000E+000	-6.70015E-001	-6.70181E-001	8	...........
	708	17.725	-6.80165E-001	-7.32282E-005	0.00000E+000	-6.80014E-001	-6.80185E-001	8	...........
	709	17.75	-6.89965E-001	-7.45471E-005	0.00000E+000	-6.90013E-001	-6.89989E-001	8	...........
	710	17.775	-6.99765E-001	-7.88209E-005	0.00000E+000	-7.00012E-001	-6.99992E-001	8	...........
	711	17.8	-7.09765E-001	-8.00897E-005	0.00000E+000	-7.10010E-001	-7.09796E-001	8	...........
	712	17.825	-7.19965E-001	-8.24603E-005	0.00000E+000	-7.20009E-001	-7.19800E-001	8	...........
	713	17.85	-7.29965E-001	-8.54320E-005	0.00000E+000	-7.30008E-001	-7.30003E-001	8	...........
	714	17.875	-7.39765E-001	-8.77025E-005	0.00000E+000	-7.40007E-001	-7.39807E-001	8	...........
	715	17.9	-7.49965E-001	-9.02735E-005	0.00000E+000	-7.50005E-001	-7.49811E-001	8	...........
	716	17.925	-7.59965E-001	-9.43469E-005	0.00000E+000	-7.60004E-001	-7.60015E-001	8	...........
	717	17.95	-7.69965E-001	-9.67009E-005	0.00000E+000	-7.70003E-001	-7.70018E-001	8	...........
	718	17.975	-7.80165E-001	-1.00324E-004	0.00000E+000	-7.80001E-001	-7.79822E-001	8	...........
	719	18	-7.89965E-001	-1.03362E-004	0.00000E+000	-7.90000E-001	-7.90026E-001	8	...........
	720	18.025	-7.99965E-001	-1.06467E-004	0.00000E+000	-7.99999E-001	-8.00029E-001	8	...........
	721	18.05	-7.89765E-001	-8.15421E-005	0.00000E+000	-7.90000E-001	-7.90026E-001	8	...........
	722	18.075	-7.79965E-001	-6.55319E-005	0.00000E+000	-7.80001E-001	-7.80022E-001	8	...........
	723	18.1	-7.69965E-001	-5.39625E-005	0.00000E+000	-7.70003E-001	-7.70018E-001	8	...........
	724	18.125	-7.59965E-001	-4.49808E-005	0.00000E+000	-7.60004E-001	-7.60015E-001	8	...........
	725	18.15	-7.49965E-001	-3.90208E-005	0.00000E+000	-7.50005E-001	-7.50011E-001	8	...........
	726	18.175	-7.39765E-001	-3.23938E-005	0.00000E+000	-7.40007E-001	-7.39807E-001	7	...........
	727	18.2	-7.29965E-001	-2.72379E-005	0.00000E+000	-7.30008E-001	-7.29803E-001	7	...........
	728	18.225	-7.19765E-001	-2.28487E-005	0.00000E+000	-7.20009E-001	-7.20000E-001	7	...........
	729	18.25	-7.09765E-001	-1.92077E-005	0.00000E+000	-7.10010E-001	-7.09996E-001	7	...........
	730	18.275	-6.99965E-001	-1.62531E-005	0.00000E+000	-7.00012E-001	-6.99992E-001	7	...........
	731	18.3	-6.89765E-001	-1.31165E-005	0.00000E+000	-6.90013E-001	-6.89989E-001	7	...........
	732	18.325	-6.79965E-001	-1.06162E-005	0.00000E+000	-6.80014E-001	-6.79985E-001	7	...........
	733	18.35	-6.69765E-001	-8.49008E-006	0.00000E+000	-6.70015E-001	-6.69981E-001	7	...........
	734	18.375	-6.59965E-001	-6.69130E-006	0.00000E+000	-6.60017E-001	-6.59978E-001	7	...........
	735	18.4	-6.49965E-001	-4.75722E-006	0.00000E+000	-6.50018E-001	-6.49974E-001	7	...........
	736	18.425	-6.39765E-001	-3.02524E-006	0.00000E+000	-6.40019E-001	-6.39970E-001	7	...........
	737	18.45	-6.29965E-001	-1.98638E-006	0.00000E+000	-6.30020E-001	-6.30167E-001	7	...........
	738	18.475	-6.19965E-001	-5.41675E-007	0.00000E+000	-6.20022E-001	-6.19963E-001	7	...........
	739	18.5	-6.10165E-001	7.71090E-007	0.00000E+000	-6.09973E-001	-6.09959E-001	7	...........
	740	18.525	-5.99965E-001	1.64794E-006	0.00000E+000	-5.99974E-001	-5.99955E-001	7	...........
	741	18.55	-5.89765E-001	2.68011E-006	0.00000E+000	-5.89975E-001	-5.90152E-001	7	...........
	742	18.575	-5.80165E-001	3.34986E-006	0.00000E+000	-5.79977E-001	-5.79948E-001	7	...........
	743	18.6	-5.69765E-001	4.55239E-006	0.00000E+000	-5.69978E-001	-5.70144E-001	7	...........
	744	18.625	-5.59965E-001	4.92317E-006	0.00000E+000	-5.59979E-001	-5.60141E-001	7	...........
	745	18.65	-5.49965E-001	5.96202E-006	0.00000E+000	-5.49981E-001	-5.50137E-001	7	...........
	746	18.675	-5.40165E-001	6.52655E-006	0.00000E+000	-5.39982E-001	-5.40133E-001	7	...........
	747	18.7	-5.30165E-001	7.05099E-006	0.00000E+000	-5.29983E-001	-5.30130E-001	7	...........
	748	18.725	-5.20165E-001	7.70403E-006	0.00000E+000	-5.19984E-001	-5.20126E-001	7	...........
	749	18.75	-5.09965E-001	8.18337E-006	0.00000E+000	-5.09986E-001	-5.10122E-001	7	...........
	750	18.775	-4.99965E-001	8.59257E-006	0.00000E+000	-4.99987E-001	-4.99918E-001	7	...........
	751	18.8	-4.89965E-001	9.09195E-006	0.00000E+000	-4.89988E-001	-4.90115E-001	7	...........
	752	18.825	-4.79965E-001	9.10030E-006	0.00000E+000	-4.79989E-001	-4.80111E-001	7	...........
	753	18.85	-4.70165E-001	9.76671E-006	0.00000E+000	-4.69991E-001	-4.70107E-001	7	...........
	754	18.875	-4.60165E-001	1.00957E-005	0.00000E+000	-4.59992E-001	-4.60104E-001	7	...........
	755	18.9	-4.49965E-001	1.05801E-005	0.00000E+000	-4.49993E-001	-4.50100E-001	7	...........
	756	18.925	-4.39965E-001	1.08874E-005	0.00000E+000	-4.39994E-001	-4.40096E-001	7	...........
	757	18.95	-4.29965E-001	1.09525E-005	0.00000E+000	-4.29996E-001	-4.30293E-001	7	...........
	758	18.975	-4.20165E-001	1.11479E-005	0.00000E+000	-4.19997E-001	-4.20289E-001	7	...........
	759	19	-4.09965E-001	1.16774E-005	0.00000E+000	-4.09998E-001	-4.10085E-001	7	...........
	760	19.025	-4.00165E-001	1.20649E-005	0.00000E+000	-3.99999E-001	-4.00081E-001	7	...........
	761	19.05	-3.90165E-001	1.19964E-005	0.00000E+000	-3.90001E-001	-3.90078E-001	7	...........
	762	19.075	-3.80365E-001	1.21267E-005	0.00000E+000	-3.80002E-001	-3.80274E-001	7	...........
	763	19.1	-3.70165E-001	1.24139E-005	0.00000E+000	-3.70003E-001	-3.70270E-001	7	...........
	764	19.125	-3.60165E-001	1.26945E-005	0.00000E+000	-3.60005E-001	-3.60267E-001	7	...........
	765	19.15	-3.50165E-001	1.29968E-005	0.00000E+000	-3.50006E-001	-3.50063E-001	7	...........
	766	19.175	-3.40365E-001	1.32875E-005	0.00000E+000	-3.40007E-001	-3.40259E-001	7	...........
	767	19.2	-3.30365E-001	1.36649E-005	0.00000E+000	-3.30008E-001	-3.30256E-001	7	...........
	768	19.225	-3.20165E-001	1.34428E-005	0.00000E+000	-3.20010E-001	-3.20452E-001	7	...........
	769	19.25	-3.10165E-001	1.37083E-005	0.00000E+000	-3.10011E-001	-3.10448E-001	7	...........
	770	19.275	-3.00165E-001	1.38887E-005	0.00000E+000	-3.00012E-001	-3.00245E-001	7	...........
	771	19.3	-2.90165E-001	1.40507E-005	0.00000E+000	-2.90013E-001	-2.90241E-001	7	...........
	772	19.325	-2.80165E-001	1.43480E-005	0.00000E+000	-2.80015E-001	-2.80237E-001	7	...........
	773	19.35	-2.70365E-001	1.42127E-005	0.00000E+000	-2.70016E-001	-2.70434E-001	7	...........
	774	19.375	-2.60365E-001	1.43998E-005	0.00000E+000	-2.60017E-001	-2.60430E-001	7	...........
	775	19.4	-2.50165E-001	1.47873E-005	0.00000E+000	-2.50018E-001	-2.50226E-001	7	...........
	776	19.425	-2.40365E-001	1.49794E-005	0.00000E+000	-2.40020E-001	-2.40422E-001	7	...........
	777	19.45	-2.30365E-001	1.49727E-005	0.00000E+000	-2.30021E-001	-2.30219E-001	7	...........
	778	19.475	-2.20165E-001	1.50011E-005	0.00000E+000	-2.20022E-001	-2.20415E-001	7	...........
	779	19.5	-2.10165E-001	1.53718E-005	0.00000E+000	-2.09973E-001	-2.10211E-001	7	...........
	780	19.525	-2.00365E-001	1.54570E-005	0.00000E+000	-1.99975E-001	-2.00408E-001	7	...........
	781	19.55	-1.90165E-001	1.57359E-005	0.00000E+000	-1.89976E-001	-1.90204E-001	7	...........
	782	19.575	-1.80365E-001	1.59364E-005	0.00000E+000	-1.79977E-001	-1.80400E-001	7	...........
	783	19.6	-1.70165E-001	1.61000E-005	0.00000E+000	-1.69979E-001	-1.70397E-001	7	...........
	784	19.625	-1.60165E-001	1.61201E-005	0.00000E+000	-1.59980E-001	-1.60393E-001	7	...........
	785	19.65	-1.50165E-001	1.61618E-005	0.00000E+000	-1.49981E-001	-1.50389E-001	7	...........
	786	19.675	-1.40365E-001	1.62170E-005	0.00000E+000	-1.39982E-001	-1.40385E-001	7	...........
	787	19.7	-1.30365E-001	1.66479E-005	0.00000E+000	-1.29984E-001	-1.30382E-001	7	...........
	788	19.725	-1.20165E-001	1.67180E-005	0.00000E+000	-1.19985E-001	-1.20378E-001	7	...........
	789	19.75	-1.10365E-001	1.68065E-005	0.00000E+000	-1.09986E-001	-1.10374E-001	7	...........
	790	19.775	-1.00165E-001	1.69151E-005	0.00000E+000	-9.99874E-002	-1.00371E-001	7	...........
	791	19.8	-9.03651E-002	1.69719E-005	0.00000E+000	-8.99886E-002	-9.03670E-002	7	...........
	792	19.825	-8.03651E-002	1.71372E-005	0.00000E+000	-7.99899E-002	-8.05634E-002	7	...........
	793	19.85	-7.03651E-002	1.74445E-005	0.00000E+000	-6.99912E-002	-7.03596E-002	7	...........
	794	19.875	-6.03651E-002	1.74061E-005	0.00000E+000	-5.99924E-002	-6.05560E-002	7	...........
	795	19.9	-5.01651E-002	1.77803E-005	0.00000E+000	-4.99937E-002	-5.03522E-002	7	...........
	796	19.925	-4.03651E-002	1.79022E-005	0.00000E+000	-3.99949E-002	-4.05486E-002	7	...........
	797	19.95	-3.03651E-002	1.77752E-005	0.00000E+000	-2.99962E-002	-3.05449E-002	7	...........
	798	19.975	-2.05651E-002	1.81210E-005	0.00000E+000	-1.99975E-002	-2.03411E-002	7	...........
	799	20	-1.05651E-002	1.80775E-005	0.00000E+000	-9.99874E-003	-1.05375E-002	7	...........
	800	20.025	-3.65120E-004	1.80592E-005	0.00000E+000	0.00000E+000	-3.33723E-004	7	...........
	801	20.05	9.63488E-003	1.86671E-005	0.00000E+000	9.99874E-003	9.46990E-003	7	...........
	802	20.075	1.96349E-002	1.87406E-005	0.00000E+000	1.99975E-002	1.94736E-002	7	...........
	803	20.1	2.96349E-002	1.87907E-005	0.00000E+000	2.99962E-002	2.94773E-002	7	...........
	804	20.125	3.94349E-002	1.89410E-005	0.00000E+000	3.99949E-002	3.94810E-002	7	...........
	805	20.15	4.96349E-002	1.92734E-005	0.00000E+000	4.99937E-002	4.94847E-002	7	...........
	806	20.175	5.96349E-002	1.94304E-005	0.00000E+000	5.99924E-002	5.94884E-002	7	...........
	807	20.2	6.96349E-002	1.95807E-005	0.00000E+000	6.99912E-002	6.92920E-002	7	...........
	808	20.225	7.96349E-002	1.99465E-005	0.00000E+000	7.99899E-002	7.94958E-002	7	...........
	809	20.25	8.94349E-002	2.01786E-005	0.00000E+000	8.99886E-002	8.92994E-002	7	...........
	810	20.275	9.94349E-002	2.01436E-005	0.00000E+000	9.99874E-002	9.93031E-002	7	...........
	811	20.3	1.09235E-001	2.04158E-005	0.00000E+000	1.09986E-001	1.09507E-001	7	...........
	812	20.325	1.19435E-001	2.05928E-005	0.00000E+000	1.19985E-001	1.19310E-001	7	...........
	813	20.35	1.29635E-001	2.10805E-005	0.00000E+000	1.29984E-001	1.29314E-001	7	...........
	814	20.375	1.39435E-001	2.12041E-005	0.00000E+000	1.39982E-001	1.39318E-001	7	...........
	815	20.4	1.49435E-001	2.15565E-005	0.00000E+000	1.49981E-001	1.49522E-001	7	...........
	816	20.425	1.59635E-001	2.14814E-005	0.00000E+000	1.59980E-001	1.59325E-001	7	...........
	817	20.45	1.69435E-001	2.23215E-005	0.00000E+000	1.69979E-001	1.69129E-001	7	...........
	818	20.475	1.79435E-001	2.23081E-005	0.00000E+000	1.79977E-001	1.79333E-001	7	...........
	819	20.5	1.89635E-001	2.27340E-005	0.00000E+000	1.90026E-001	1.89336E-001	7	...........
	820	20.525	1.99635E-001	2.32651E-005	0.00000E+000	2.00025E-001	1.99340E-001	7	...........
	821	20.55	2.09435E-001	2.36510E-005	0.00000E+000	2.10023E-001	2.09344E-001	7	...........
	822	20.575	2.19435E-001	2.38965E-005	0.00000E+000	2.20022E-001	2.19147E-001	7	...........
	823	20.6	2.29435E-001	2.45194E-005	0.00000E+000	2.30021E-001	2.29151E-001	7	...........
	824	20.625	2.39435E-001	2.50021E-005	0.00000E+000	2.40020E-001	2.39355E-001	7	...........
	825	20.65	2.49235E-001	2.53362E-005	0.00000E+000	2.50018E-001	2.49159E-001	7	...........
	826	20.675	2.59435E-001	2.58706E-005	0.00000E+000	2.60017E-001	2.59362E-001	7	...........
	827	20.7	2.69435E-001	2.65036E-005	0.00000E+000	2.70016E-001	2.69366E-001	7	...........
	828	20.725	2.79635E-001	2.69479E-005	0.00000E+000	2.80015E-001	2.79170E-001	7	...........
	829	20.75	2.89435E-001	2.75776E-005	0.00000E+000	2.90013E-001	2.89373E-001	7	...........
	830	20.775	2.99635E-001	2.81855E-005	0.00000E+000	3.00012E-001	2.99377E-001	7	...........
	831	20.8	3.09435E-001	2.86866E-005	0.00000E+000	3.10011E-001	3.09381E-001	7	...........
	832	20.825	3.19635E-001	2.91926E-005	0.00000E+000	3.20010E-001	3.19184E-001	7	...........
	833	20.85	3.29435E-001	2.98423E-005	0.00000E+000	3.30008E-001	3.29388E-001	7	...........
	834	20.875	3.39435E-001	3.06256E-005	0.00000E+000	3.40007E-001	3.39392E-001	7	...........
	835	20.9	3.49435E-001	3.12954E-005	0.00000E+000	3.50006E-001	3.49195E-001	7	...........
	836	20.925	3.59435E-001	3.17831E-005	0.00000E+000	3.60005E-001	3.59199E-001	7	...........
	837	20.95	3.69235E-001	3.26883E-005	0.00000E+000	3.70003E-001	3.69203E-001	7	...........
	838	20.975	3.79435E-001	3.31576E-005	0.00000E+000	3.80002E-001	3.79007E-001	7	...........
	839	21	3.89435E-001	3.41080E-005	0.00000E+000	3.90001E-001	3.89210E-001	7	...........
	840	21.025	3.99435E-001	3.48178E-005	0.00000E+000	3.99999E-001	3.99214E-001	7	...........
	841	21.05	4.09235E-001	3.52871E-005	0.00000E+000	4.09998E-001	4.09218E-001	7	...........
	842	21.075	4.19435E-001	3.60237E-005	0.00000E+000	4.19997E-001	4.19221E-001	7	...........
	843	21.1	4.29235E-001	3.70926E-005	0.00000E+000	4.29996E-001	4.29025E-001	7	...........
	844	21.125	4.39435E-001	3.78191E-005	0.00000E+000	4.39994E-001	4.39229E-001	7	...........
	845	21.15	4.49235E-001	3.86375E-005	0.00000E+000	4.49993E-001	4.49232E-001	7	...........
	846	21.175	4.59435E-001	3.94776E-005	0.00000E+000	4.59992E-001	4.59236E-001	7	...........
	847	21.2	4.69435E-001	4.03461E-005	0.00000E+000	4.69991E-001	4.69040E-001	7	...........
	848	21.225	4.79435E-001	4.10476E-005	0.00000E+000	4.79989E-001	4.78843E-001	7	...........
	849	21.25	4.89435E-001	4.21716E-005	0.00000E+000	4.89988E-001	4.89247E-001	7	...........
	850	21.275	4.99435E-001	4.27261E-005	0.00000E+000	4.99987E-001	4.99051E-001	7	...........
	851	21.3	5.09235E-001	4.38101E-005	0.00000E+000	5.09986E-001	5.09055E-001	7	...........
	852	21.325	5.19035E-001	4.48256E-005	0.00000E+000	5.19984E-001	5.19058E-001	7	...........
	853	21.35	5.29235E-001	4.59050E-005	0.00000E+000	5.29983E-001	5.29062E-001	8	...........
	854	21.375	5.39235E-001	4.69568E-005	0.00000E+000	5.39982E-001	5.39066E-001	8	...........
	855	21.4	5.49235E-001	4.78917E-005	0.00000E+000	5.49981E-001	5.49069E-001	8	...........
	856	21.425	5.59235E-001	4.85428E-005	0.00000E+000	5.59979E-001	5.59073E-001	8	...........
	857	21.45	5.69235E-001	4.93441E-005	0.00000E+000	5.69978E-001	5.68877E-001	8	...........
	858	21.475	5.79235E-001	5.05461E-005	0.00000E+000	5.79977E-001	5.79080E-001	8	...........
	859	21.5	5.89235E-001	5.21989E-005	0.00000E+000	5.89975E-001	5.89084E-001	8	...........
	860	21.525	5.99435E-001	5.28500E-005	0.00000E+000	6.00024E-001	5.98888E-001	8	...........
	861	21.55	6.09235E-001	5.36680E-005	0.00000E+000	6.10023E-001	6.09092E-001	8	...........
	862	21.575	6.19235E-001	5.53876E-005	0.00000E+000	6.20022E-001	6.19095E-001	8	...........
	863	21.6	6.29235E-001	5.57549E-005	0.00000E+000	6.30020E-001	6.28899E-001	8	...........
	864	21.625	6.39235E-001	5.79419E-005	0.00000E+000	6.40019E-001	6.38703E-001	8	...........
	865	21.65	6.49235E-001	5.83592E-005	0.00000E+000	6.50018E-001	6.49106E-001	8	...........
	866	21.675	6.59235E-001	6.04461E-005	0.00000E+000	6.60017E-001	6.58910E-001	8	...........
	867	21.7	6.69235E-001	6.21823E-005	0.00000E+000	6.70015E-001	6.69114E-001	8	...........
	868	21.725	6.79235E-001	6.33009E-005	0.00000E+000	6.80014E-001	6.78917E-001	8	...........
	869	21.75	6.89235E-001	6.45530E-005	0.00000E+000	6.90013E-001	6.88921E-001	8	...........
	870	21.775	6.99435E-001	6.64895E-005	0.00000E+000	7.00012E-001	6.99125E-001	8	...........
	871	21.8	7.09435E-001	6.75246E-005	0.00000E+000	7.10010E-001	7.08728E-001	8	...........
	872	21.825	7.19035E-001	6.91607E-005	0.00000E+000	7.20009E-001	7.19132E-001	8	...........
	873	21.85	7.29235E-001	7.07300E-005	0.00000E+000	7.30008E-001	7.28936E-001	8	...........
	874	21.875	7.39235E-001	7.21156E-005	0.00000E+000	7.40007E-001	7.38940E-001	8	...........
	875	21.9	7.49435E-001	7.47200E-005	0.00000E+000	7.50005E-001	7.48943E-001	8	...........
	876	21.925	7.59235E-001	7.58552E-005	0.00000E+000	7.60004E-001	7.58947E-001	8	...........
	877	21.95	7.69235E-001	7.77084E-005	0.00000E+000	7.70003E-001	7.68951E-001	8	...........
	878	21.975	7.79235E-001	7.95782E-005	0.00000E+000	7.80001E-001	7.78954E-001	8	...........
	879	22	7.89035E-001	8.32009E-005	0.00000E+000	7.90000E-001	7.88758E-001	8	...........
	880	22.025	7.99235E-001	8.37351E-005	0.00000E+000	7.99999E-001	7.98962E-001	8	...........
CURVE4	TABLE
	Pt	T	Vf	Im	Vu	Sig	Ach	IERange	Over
	#	s	V vs. Ref.	A	V	V	V	#	bits
	881	22.05	7.89235E-001	6.53877E-005	0.00000E+000	7.90000E-001	7.88758E-001	8	...........
	882	22.075	7.79235E-001	5.33341E-005	0.00000E+000	7.80001E-001	7.78954E-001	8	...........
	883	22.1	7.69235E-001	4.41020E-005	0.00000E+000	7.70003E-001	7.68951E-001	8	...........
	884	22.125	7.59035E-001	3.72238E-005	0.00000E+000	7.60004E-001	7.58947E-001	8	...........
	885	22.15	7.49435E-001	3.03851E-005	0.00000E+000	7.50005E-001	7.48943E-001	7	...........
	886	22.175	7.39035E-001	2.54548E-005	0.00000E+000	7.40007E-001	7.38739E-001	7	...........
	887	22.2	7.29435E-001	2.09553E-005	0.00000E+000	7.30008E-001	7.28936E-001	7	...........
	888	22.225	7.19235E-001	1.72207E-005	0.00000E+000	7.20009E-001	7.19132E-001	7	...........
	889	22.25	7.09235E-001	1.38486E-005	0.00000E+000	7.10010E-001	7.08928E-001	7	...........
	890	22.275	6.99035E-001	1.10127E-005	0.00000E+000	7.00012E-001	6.99125E-001	7	...........
	891	22.3	6.89235E-001	8.32200E-006	0.00000E+000	6.90013E-001	6.88921E-001	7	...........
	892	22.325	6.79035E-001	6.23594E-006	0.00000E+000	6.80014E-001	6.78917E-001	7	...........
	893	22.35	6.69235E-001	4.47556E-006	0.00000E+000	6.70015E-001	6.68914E-001	7	...........
	894	22.375	6.59235E-001	2.21413E-006	0.00000E+000	6.60017E-001	6.59110E-001	7	...........
	895	22.4	6.49235E-001	7.46037E-007	0.00000E+000	6.50018E-001	6.48906E-001	7	...........
	896	22.425	6.39235E-001	-4.76538E-007	0.00000E+000	6.40019E-001	6.38903E-001	7	...........
	897	22.45	6.29235E-001	-1.72417E-006	0.00000E+000	6.30020E-001	6.29099E-001	7	...........
	898	22.475	6.19235E-001	-2.93839E-006	0.00000E+000	6.20022E-001	6.18895E-001	7	...........
	899	22.5	6.09235E-001	-3.84530E-006	0.00000E+000	6.10023E-001	6.09092E-001	7	...........
	900	22.525	5.99435E-001	-4.98437E-006	0.00000E+000	6.00024E-001	5.99088E-001	7	...........
	901	22.55	5.89235E-001	-5.68417E-006	0.00000E+000	5.89975E-001	5.89084E-001	7	...........
	902	22.575	5.79235E-001	-6.44077E-006	0.00000E+000	5.79977E-001	5.78880E-001	7	...........
	903	22.6	5.69235E-001	-7.25916E-006	0.00000E+000	5.69978E-001	5.69077E-001	7	...........
	904	22.625	5.59235E-001	-7.79529E-006	0.00000E+000	5.59979E-001	5.58873E-001	7	...........
	905	22.65	5.49235E-001	-8.44499E-006	0.00000E+000	5.49981E-001	5.49069E-001	7	...........
	906	22.675	5.39435E-001	-8.77068E-006	0.00000E+000	5.39982E-001	5.39066E-001	7	...........
	907	22.7	5.29235E-001	-9.19657E-006	0.00000E+000	5.29983E-001	5.29062E-001	7	...........
	908	22.725	5.19435E-001	-9.36693E-006	0.00000E+000	5.19984E-001	5.19058E-001	7	...........
	909	22.75	5.09235E-001	-1.03674E-005	0.00000E+000	5.09986E-001	5.09055E-001	7	...........
	910	22.775	4.99235E-001	-1.07682E-005	0.00000E+000	4.99987E-001	4.99251E-001	7	...........
	911	22.8	4.89235E-001	-1.10839E-005	0.00000E+000	4.89988E-001	4.89247E-001	7	...........
	912	22.825	4.79435E-001	-1.10789E-005	0.00000E+000	4.79989E-001	4.78843E-001	7	...........
	913	22.85	4.69235E-001	-1.13929E-005	0.00000E+000	4.69991E-001	4.69040E-001	7	...........
	914	22.875	4.59435E-001	-1.17353E-005	0.00000E+000	4.59992E-001	4.59236E-001	7	...........
	915	22.9	4.49235E-001	-1.23298E-005	0.00000E+000	4.49993E-001	4.49032E-001	7	...........
	916	22.925	4.39235E-001	-1.25202E-005	0.00000E+000	4.39994E-001	4.39229E-001	7	...........
	917	22.95	4.29435E-001	-1.29061E-005	0.00000E+000	4.29996E-001	4.29025E-001	7	...........
	918	22.975	4.19435E-001	-1.32885E-005	0.00000E+000	4.19997E-001	4.19221E-001	7	...........
	919	23	4.09435E-001	-1.31850E-005	0.00000E+000	4.09998E-001	4.09018E-001	7	...........
	920	23.025	3.99435E-001	-1.32651E-005	0.00000E+000	3.99999E-001	3.99214E-001	7	...........
	921	23.05	3.89435E-001	-1.35775E-005	0.00000E+000	3.90001E-001	3.89210E-001	7	...........
	922	23.075	3.79435E-001	-1.36560E-005	0.00000E+000	3.80002E-001	3.79207E-001	7	...........
	923	23.1	3.69435E-001	-1.40735E-005	0.00000E+000	3.70003E-001	3.69003E-001	7	...........
	924	23.125	3.59435E-001	-1.44710E-005	0.00000E+000	3.60005E-001	3.59399E-001	7	...........
	925	23.15	3.49235E-001	-1.44076E-005	0.00000E+000	3.50006E-001	3.49195E-001	7	...........
	926	23.175	3.39435E-001	-1.47633E-005	0.00000E+000	3.40007E-001	3.39192E-001	7	...........
	927	23.2	3.29235E-001	-1.47099E-005	0.00000E+000	3.30008E-001	3.29388E-001	7	...........
	928	23.225	3.19435E-001	-1.43641E-005	0.00000E+000	3.20010E-001	3.19184E-001	7	...........
	929	23.25	3.09435E-001	-1.48969E-005	0.00000E+000	3.10011E-001	3.09381E-001	7	...........
	930	23.275	2.99635E-001	-1.48151E-005	0.00000E+000	3.00012E-001	2.99177E-001	7	...........
	931	23.3	2.89435E-001	-1.51107E-005	0.00000E+000	2.90013E-001	2.89373E-001	7	...........
	932	23.325	2.79435E-001	-1.51541E-005	0.00000E+000	2.80015E-001	2.79170E-001	7	...........
	933	23.35	2.69635E-001	-1.56234E-005	0.00000E+000	2.70016E-001	2.69166E-001	7	...........
	934	23.375	2.59435E-001	-1.56452E-005	0.00000E+000	2.60017E-001	2.59362E-001	7	...........
	935	23.4	2.49635E-001	-1.57320E-005	0.00000E+000	2.50018E-001	2.49159E-001	7	...........
	936	23.425	2.39435E-001	-1.54648E-005	0.00000E+000	2.40020E-001	2.39155E-001	7	...........
	937	23.45	2.29435E-001	-1.59508E-005	0.00000E+000	2.30021E-001	2.29151E-001	7	...........
	938	23.475	2.19635E-001	-1.57437E-005	0.00000E+000	2.20022E-001	2.19347E-001	7	...........
	939	23.5	2.09435E-001	-1.59358E-005	0.00000E+000	2.10023E-001	2.09344E-001	7	...........
	940	23.525	1.99435E-001	-1.60677E-005	0.00000E+000	2.00025E-001	1.99340E-001	7	...........
	941	23.55	1.89435E-001	-1.62397E-005	0.00000E+000	1.90026E-001	1.89336E-001	7	...........
	942	23.575	1.79435E-001	-1.61830E-005	0.00000E+000	1.79977E-001	1.79333E-001	7	...........
	943	23.6	1.69435E-001	-1.63283E-005	0.00000E+000	1.69979E-001	1.69329E-001	7	...........
	944	23.625	1.59635E-001	-1.65471E-005	0.00000E+000	1.59980E-001	1.59525E-001	7	...........
	945	23.65	1.49635E-001	-1.62815E-005	0.00000E+000	1.49981E-001	1.49122E-001	7	...........
	946	23.675	1.39435E-001	-1.65638E-005	0.00000E+000	1.39982E-001	1.39318E-001	7	...........
	947	23.7	1.29635E-001	-1.64903E-005	0.00000E+000	1.29984E-001	1.29314E-001	7	...........
	948	23.725	1.19635E-001	-1.67174E-005	0.00000E+000	1.19985E-001	1.19511E-001	7	...........
	949	23.75	1.09435E-001	-1.64953E-005	0.00000E+000	1.09986E-001	1.09307E-001	7	...........
	950	23.775	9.96349E-002	-1.64301E-005	0.00000E+000	9.99874E-002	9.93031E-002	7	...........
	951	23.8	8.96349E-002	-1.67157E-005	0.00000E+000	8.99886E-002	8.92994E-002	7	...........
	952	23.825	7.96349E-002	-1.68761E-005	0.00000E+000	7.99899E-002	7.92957E-002	7	...........
	953	23.85	6.96349E-002	-1.68844E-005	0.00000E+000	6.99912E-002	6.92920E-002	7	...........
	954	23.875	5.96349E-002	-1.73187E-005	0.00000E+000	5.99924E-002	5.94884E-002	7	...........
	955	23.9	4.96349E-002	-1.69446E-005	0.00000E+000	4.99937E-002	4.94847E-002	7	...........
	956	23.925	3.96349E-002	-1.71350E-005	0.00000E+000	3.99949E-002	3.94810E-002	7	...........
	957	23.95	2.96349E-002	-1.72535E-005	0.00000E+000	2.99962E-002	2.94773E-002	7	...........
	958	23.975	1.96349E-002	-1.72135E-005	0.00000E+000	1.99975E-002	1.94736E-002	7	...........
	959	24	9.63488E-003	-1.74957E-005	0.00000E+000	9.99874E-003	9.46990E-003	7	...........
	960	24.025	-3.65120E-004	-1.73387E-005	0.00000E+000	0.00000E+000	-5.33797E-004	7	...........
