EXPLAIN
TAG	PWR800_CHARGE
TITLE	LABEL	PWR Cyclic Charge Discharge (Cell) - Charge Step	Test &Identifier
DATE	LABEL	12-7-2017	Date
TIME	LABEL	16:22:43	Time
NOTES	NOTES	2	&Notes...
	supercap test cell
	6M KOH
PSTAT	PSTAT	IFC5000-01520	Potentiostat
CAPACITY	QUANT	1.00000E-003	Capacity (A-hr)
CELLTYPE	SELECTOR	1	&Cell Type
WORKINGCONNECTION	SELECTOR	0	&Working Lead
MAXCHARGETIME	VARIABLEANDUNITS	1.00000E+002	s	1.00000E+002	second(s)	Max &Charge Time
CHARGECURRENT	QUANT	1.00000E-004	&Charge Current (A) 
VOLTAGEFINISH	TWOPARAM	F	1.00000E-003	3.60000E+003	&Voltage Finish	 I (A) < 	Max Time(s)
SAMPLETIME	QUANT	1.00000E-002	Sa&mple Period (s)
CHARGESTOPAT1	MULTIPARAM	4	1.00000E+000	Charge Stop At &1	Voltage > Limit	V
CHARGESTOPAT2	MULTIPARAM	0	0.00000E+000	Charge Stop At &2	None	N/A
AESBHCSELECTOR	TOGGLE	F	Save Both Half Cells
IRCOMP	TOGGLE	F	IR &Measure
EOC	QUANT	0	Open Circuit (V)
SEQUENCER	TOGGLE	TRUE	Run as Sequence
PSTATMODEL	IQUANT	53	Pstat Model
PSTATSECTION	LABEL	IFC5000-01520	Pstat Section
PSTATSERIALNO	LABEL	01520	Pstat Serial Number
CTRLMODE	IQUANT	0	Control Mode
ELECTROMETER	IQUANT	1	RE=0 or CS=1
IESTAB	IQUANT	0	I/E Stability
CASPEED	IQUANT	4	Control Amp Speed
CONVENTION	IQUANT	1	Current Convention
ICHRANGE	IQUANT	2	Ich Range
ICHRANGEMODE	TOGGLE	T	Ich Auto Range
ICHOFFSETENABLE	TOGGLE	F	Ich Offset Enable
ICHOFFSET	QUANT	0	Ich Offset (V)
ICHFILTER	IQUANT	1	Ich Filter
VCHRANGE	IQUANT	2	Vch Range
VCHRANGEMODE	TOGGLE	T	Vch Auto Range
VCHOFFSETENABLE	TOGGLE	F	Vch Offset Enable
VCHOFFSET	QUANT	0	Vch Offset (V)
VCHFILTER	IQUANT	1	Vch Filter
IERANGELOWERLIMIT	IQUANT	9	I/E Range Lower Limit
IERANGEMODE	TOGGLE	F	I/E AutoRange
IERANGE	IQUANT	9	I/E Range
ACHSELECT	IQUANT	1	Ach Select
ACHRANGE	IQUANT	2	Ach Range
ACHOFFSETENABLE	TOGGLE	F	Ach Offset Enable
ACHOFFSET	QUANT	0	Ach Offset (V)
ACHFILTER	IQUANT	1	Ach Filter
CABLEID	IQUANT	14	Cable ID
DCCALDATE	LABEL	5-7-2017	DC Calibration Date
ACCALDATE	LABEL	12/3/2015	AC Calibration Date
FRAMEWORKVERSION	QUANT	7.01	Framework Version
INSTRUMENTVERSION	LABEL	4.00	Instrument Version
CURVE	TABLE	78
	Pt	T	Vf	Im	Vu	Pwr	Sig	Ach	Temp	IERange	Over
	#	s	V	A	V	W	V	V	deg C	#	bits
	0	0.013333	2.60089E-001	1.01225E-004	0.00000E+000	2.63275E-005	5.99601E-002	2.60160E-001	3.57680E+000	9	...........
	1	0.026667	2.82868E-001	1.01271E-004	0.00000E+000	2.86463E-005	5.99601E-002	2.82934E-001	3.57680E+000	9	...........
	2	0.04	3.04222E-001	1.01356E-004	0.00000E+000	3.08349E-005	5.99601E-002	3.04291E-001	3.57680E+000	9	...........
	3	0.053333	3.24522E-001	1.00489E-004	0.00000E+000	3.26108E-005	5.99601E-002	3.24591E-001	3.57680E+000	9	...........
	4	0.066667	3.43986E-001	1.01759E-004	0.00000E+000	3.50036E-005	5.99601E-002	3.44060E-001	3.57680E+000	9	...........
	5	0.08	3.62751E-001	1.01593E-004	0.00000E+000	3.68529E-005	5.99601E-002	3.62826E-001	3.57680E+000	9	...........
	6	0.093333	3.80919E-001	1.00581E-004	0.00000E+000	3.83133E-005	5.99601E-002	3.81001E-001	3.57680E+000	9	...........
	7	0.106667	3.98566E-001	1.00638E-004	0.00000E+000	4.01107E-005	5.99601E-002	3.98646E-001	3.57680E+000	9	...........
	8	0.12	4.15733E-001	1.00808E-004	0.00000E+000	4.19094E-005	5.99601E-002	4.15827E-001	3.57680E+000	9	...........
	9	0.133333	4.32474E-001	1.01443E-004	0.00000E+000	4.38714E-005	5.99601E-002	4.32573E-001	3.57680E+000	9	...........
	10	0.146667	4.48811E-001	1.00176E-004	0.00000E+000	4.49601E-005	5.99601E-002	4.48915E-001	3.57680E+000	9	...........
	11	0.16	4.64778E-001	1.01076E-004	0.00000E+000	4.69780E-005	5.99601E-002	4.64880E-001	3.57680E+000	9	...........
	12	0.173333	4.80394E-001	1.00701E-004	0.00000E+000	4.83762E-005	5.99601E-002	4.80497E-001	3.57680E+000	9	...........
	13	0.186667	4.95675E-001	1.01526E-004	0.00000E+000	5.03241E-005	5.99601E-002	4.95791E-001	3.57680E+000	9	...........
	14	0.2	5.10630E-001	1.01171E-004	0.00000E+000	5.16610E-005	5.99601E-002	5.10751E-001	3.57680E+000	9	...........
	15	0.213333	5.25285E-001	1.01296E-004	0.00000E+000	5.32093E-005	5.99601E-002	5.25402E-001	3.57680E+000	9	...........
	16	0.226667	5.39380E-001	1.00691E-004	0.00000E+000	5.43106E-005	5.99601E-002	5.39616E-001	3.57680E+000	9	...........
	17	0.24	5.53411E-001	1.00635E-004	0.00000E+000	5.56928E-005	5.99601E-002	5.53661E-001	3.57680E+000	9	...........
	18	0.253333	5.67211E-001	1.00141E-004	0.00000E+000	5.68008E-005	5.99601E-002	5.67457E-001	3.57680E+000	9	...........
	19	0.266667	5.80716E-001	1.01877E-004	0.00000E+000	5.91618E-005	5.99601E-002	5.80990E-001	3.57680E+000	9	...........
	20	0.28	5.93990E-001	1.01751E-004	0.00000E+000	6.04392E-005	5.99601E-002	5.94231E-001	3.57680E+000	9	...........
	21	0.293333	6.06939E-001	1.01692E-004	0.00000E+000	6.17209E-005	5.99601E-002	6.07233E-001	3.57680E+000	9	...........
	22	0.306667	6.19749E-001	1.00716E-004	0.00000E+000	6.24185E-005	5.99601E-002	6.19999E-001	3.57680E+000	9	...........
	23	0.32	6.32188E-001	1.00197E-004	0.00000E+000	6.33432E-005	5.99601E-002	6.32488E-001	3.57680E+000	9	...........
	24	0.333333	6.44440E-001	1.00776E-004	0.00000E+000	6.49441E-005	5.99601E-002	6.44719E-001	3.57680E+000	9	...........
	25	0.346667	6.56438E-001	1.01288E-004	0.00000E+000	6.64891E-005	5.99601E-002	6.56731E-001	3.57680E+000	9	...........
	26	0.36	6.68167E-001	1.00957E-004	0.00000E+000	6.74564E-005	5.99601E-002	6.68460E-001	3.57680E+000	9	...........
	27	0.373333	6.79660E-001	1.00316E-004	0.00000E+000	6.81805E-005	5.99601E-002	6.79922E-001	3.57680E+000	9	...........
	28	0.386667	6.90903E-001	1.01223E-004	0.00000E+000	6.99353E-005	5.99601E-002	6.91158E-001	3.57680E+000	9	...........
	29	0.4	7.01898E-001	1.00345E-004	0.00000E+000	7.04318E-005	5.99601E-002	7.02180E-001	3.57680E+000	9	...........
	30	0.413333	7.12660E-001	1.01152E-004	0.00000E+000	7.20871E-005	5.99601E-002	7.12958E-001	3.57680E+000	9	...........
	31	0.426667	7.23249E-001	1.00479E-004	0.00000E+000	7.26714E-005	5.99601E-002	7.23499E-001	3.57680E+000	9	...........
	32	0.44	7.33504E-001	9.95363E-005	0.00000E+000	7.30102E-005	5.99601E-002	7.33780E-001	3.57680E+000	9	...........
	33	0.453333	7.43572E-001	1.00893E-004	0.00000E+000	7.50211E-005	5.99601E-002	7.43834E-001	3.57680E+000	9	...........
	34	0.466667	7.53400E-001	1.00435E-004	0.00000E+000	7.56680E-005	5.99601E-002	7.53625E-001	3.57680E+000	9	...........
	35	0.48	7.62972E-001	1.00615E-004	0.00000E+000	7.67662E-005	5.99601E-002	7.63217E-001	3.57680E+000	9	...........
	36	0.493333	7.72322E-001	1.01486E-004	0.00000E+000	7.83796E-005	5.99601E-002	7.72577E-001	3.57680E+000	9	...........
	37	0.506667	7.81433E-001	1.00228E-004	0.00000E+000	7.83215E-005	5.99601E-002	7.81685E-001	3.57680E+000	9	...........
	38	0.52	7.90311E-001	1.02436E-004	0.00000E+000	8.09562E-005	5.99601E-002	7.90585E-001	3.57680E+000	9	...........
	39	0.533333	7.98975E-001	1.00738E-004	0.00000E+000	8.04869E-005	5.99601E-002	7.99241E-001	3.57680E+000	9	...........
	40	0.546667	8.07382E-001	1.00125E-004	0.00000E+000	8.08391E-005	5.99601E-002	8.07676E-001	3.57680E+000	9	...........
	41	0.56	8.15598E-001	1.01660E-004	0.00000E+000	8.29134E-005	5.99601E-002	8.15885E-001	3.57680E+000	9	...........
	42	0.573333	8.23591E-001	1.00603E-004	0.00000E+000	8.28558E-005	5.99601E-002	8.23887E-001	3.57680E+000	9	...........
	43	0.586667	8.31324E-001	1.00553E-004	0.00000E+000	8.35922E-005	5.99601E-002	8.31635E-001	3.57680E+000	9	...........
	44	0.6	8.38851E-001	1.01455E-004	0.00000E+000	8.51060E-005	5.99601E-002	8.39156E-001	3.57680E+000	9	...........
	45	0.613333	8.46217E-001	1.00806E-004	0.00000E+000	8.53040E-005	5.99601E-002	8.46513E-001	3.57680E+000	9	...........
	46	0.626667	8.53321E-001	1.00472E-004	0.00000E+000	8.57347E-005	5.99601E-002	8.53622E-001	3.57680E+000	9	...........
	47	0.64	8.60218E-001	1.00950E-004	0.00000E+000	8.68391E-005	5.99601E-002	8.60534E-001	3.57680E+000	9	...........
	48	0.653333	8.66901E-001	1.01250E-004	0.00000E+000	8.77738E-005	5.99601E-002	8.67226E-001	3.57680E+000	9	...........
	49	0.666667	8.73413E-001	1.00411E-004	0.00000E+000	8.77007E-005	5.99601E-002	8.73737E-001	3.57680E+000	9	...........
	50	0.68	8.79702E-001	1.00143E-004	0.00000E+000	8.80957E-005	5.99601E-002	8.80018E-001	3.57680E+000	9	...........
	51	0.693333	8.85825E-001	1.00336E-004	0.00000E+000	8.88805E-005	5.99601E-002	8.86137E-001	3.57680E+000	9	...........
	52	0.706667	8.91725E-001	1.01509E-004	0.00000E+000	9.05177E-005	5.99601E-002	8.92070E-001	3.57680E+000	9	...........
	53	0.72	8.97484E-001	1.01185E-004	0.00000E+000	9.08115E-005	5.99601E-002	8.97823E-001	3.57680E+000	9	...........
	54	0.733333	9.03049E-001	1.00998E-004	0.00000E+000	9.12062E-005	5.99601E-002	9.03394E-001	3.57680E+000	9	...........
	55	0.746667	9.08486E-001	1.01115E-004	0.00000E+000	9.18613E-005	5.99601E-002	9.08817E-001	3.57680E+000	9	...........
	56	0.76	9.13754E-001	1.00688E-004	0.00000E+000	9.20037E-005	5.99601E-002	9.14078E-001	3.57680E+000	9	...........
	57	0.773333	9.18896E-001	1.01377E-004	0.00000E+000	9.31552E-005	5.99601E-002	9.19212E-001	3.57680E+000	9	...........
	58	0.786667	9.23953E-001	1.00944E-004	0.00000E+000	9.32674E-005	5.99601E-002	9.24228E-001	3.57680E+000	9	...........
	59	0.8	9.28825E-001	1.00698E-004	0.00000E+000	9.35308E-005	5.99601E-002	9.29098E-001	3.57680E+000	9	...........
	60	0.813333	9.33603E-001	1.00420E-004	0.00000E+000	9.37522E-005	5.99601E-002	9.33884E-001	3.57680E+000	9	...........
	61	0.826667	9.38239E-001	9.99895E-005	0.00000E+000	9.38141E-005	5.99601E-002	9.38563E-001	3.57680E+000	9	...........
	62	0.84	9.42784E-001	1.01274E-004	0.00000E+000	9.54796E-005	5.99601E-002	9.43129E-001	3.57680E+000	9	...........
	63	0.853333	9.47286E-001	1.00858E-004	0.00000E+000	9.55418E-005	5.99601E-002	9.47629E-001	3.57680E+000	9	...........
	64	0.866667	9.51679E-001	1.01022E-004	0.00000E+000	9.61406E-005	5.99601E-002	9.52014E-001	3.57680E+000	9	...........
	65	0.88	9.55951E-001	1.00976E-004	0.00000E+000	9.65283E-005	5.99601E-002	9.56295E-001	3.57680E+000	9	...........
	66	0.893333	9.60161E-001	1.00927E-004	0.00000E+000	9.69064E-005	5.99601E-002	9.60520E-001	3.57680E+000	9	...........
	67	0.906667	9.64273E-001	1.01285E-004	0.00000E+000	9.76660E-005	5.99601E-002	9.64646E-001	3.57680E+000	9	...........
	68	0.92	9.68318E-001	1.00355E-004	0.00000E+000	9.71758E-005	5.99601E-002	9.68694E-001	3.57680E+000	9	...........
	69	0.933333	9.72316E-001	1.00635E-004	0.00000E+000	9.78495E-005	5.99601E-002	9.72710E-001	3.57680E+000	9	...........
	70	0.946667	9.76230E-001	1.00689E-004	0.00000E+000	9.82952E-005	5.99601E-002	9.76583E-001	3.57680E+000	9	...........
	71	0.96	9.80047E-001	1.01951E-004	0.00000E+000	9.99172E-005	5.99601E-002	9.80421E-001	3.57680E+000	9	...........
	72	0.97333	9.83760E-001	1.00587E-004	0.00000E+000	9.89530E-005	5.99601E-002	9.84145E-001	3.57680E+000	9	...........
	73	0.98667	9.87428E-001	1.02485E-004	0.00000E+000	1.01196E-004	5.99601E-002	9.87807E-001	3.57680E+000	9	...........
	74	1	9.91001E-001	1.01472E-004	0.00000E+000	1.00559E-004	5.99601E-002	9.91377E-001	3.57680E+000	9	...........
	75	1.01333	9.94480E-001	1.01799E-004	0.00000E+000	1.01237E-004	5.99601E-002	9.94862E-001	3.57680E+000	9	...........
	76	1.02667	9.97901E-001	1.00508E-004	0.00000E+000	1.00297E-004	5.99601E-002	9.98291E-001	3.57680E+000	9	...........
	77	1.03	9.99986E-001	1.01861E-004	0.00000E+000	1.01859E-004	5.99601E-002	1.00035E+000	3.57680E+000	9	...........
STARTTIMEOFFSET	QUANT	541.4102	Start Time Offset (s)
