EXPLAIN
TAG	PWR800_CHARGE
TITLE	LABEL	PWR Cyclic Charge Discharge (Cell) - Charge Step	Test &Identifier
DATE	LABEL	12-7-2017	Date
TIME	LABEL	16:16:10	Time
NOTES	NOTES	2	&Notes...
	supercap test cell
	6M KOH
PSTAT	PSTAT	IFC5000-01520	Potentiostat
CAPACITY	QUANT	1.00000E-003	Capacity (A-hr)
CELLTYPE	SELECTOR	1	&Cell Type
WORKINGCONNECTION	SELECTOR	0	&Working Lead
MAXCHARGETIME	VARIABLEANDUNITS	1.00000E+002	s	1.00000E+002	second(s)	Max &Charge Time
CHARGECURRENT	QUANT	1.00000E-004	&Charge Current (A) 
VOLTAGEFINISH	TWOPARAM	F	1.00000E-003	3.60000E+003	&Voltage Finish	 I (A) < 	Max Time(s)
SAMPLETIME	QUANT	1.00000E-002	Sa&mple Period (s)
CHARGESTOPAT1	MULTIPARAM	4	1.00000E+000	Charge Stop At &1	Voltage > Limit	V
CHARGESTOPAT2	MULTIPARAM	0	0.00000E+000	Charge Stop At &2	None	N/A
AESBHCSELECTOR	TOGGLE	F	Save Both Half Cells
IRCOMP	TOGGLE	F	IR &Measure
EOC	QUANT	0	Open Circuit (V)
SEQUENCER	TOGGLE	TRUE	Run as Sequence
PSTATMODEL	IQUANT	53	Pstat Model
PSTATSECTION	LABEL	IFC5000-01520	Pstat Section
PSTATSERIALNO	LABEL	01520	Pstat Serial Number
CTRLMODE	IQUANT	0	Control Mode
ELECTROMETER	IQUANT	1	RE=0 or CS=1
IESTAB	IQUANT	0	I/E Stability
CASPEED	IQUANT	4	Control Amp Speed
CONVENTION	IQUANT	1	Current Convention
ICHRANGE	IQUANT	2	Ich Range
ICHRANGEMODE	TOGGLE	T	Ich Auto Range
ICHOFFSETENABLE	TOGGLE	F	Ich Offset Enable
ICHOFFSET	QUANT	0	Ich Offset (V)
ICHFILTER	IQUANT	1	Ich Filter
VCHRANGE	IQUANT	2	Vch Range
VCHRANGEMODE	TOGGLE	T	Vch Auto Range
VCHOFFSETENABLE	TOGGLE	F	Vch Offset Enable
VCHOFFSET	QUANT	0	Vch Offset (V)
VCHFILTER	IQUANT	1	Vch Filter
IERANGELOWERLIMIT	IQUANT	9	I/E Range Lower Limit
IERANGEMODE	TOGGLE	F	I/E AutoRange
IERANGE	IQUANT	9	I/E Range
ACHSELECT	IQUANT	1	Ach Select
ACHRANGE	IQUANT	2	Ach Range
ACHOFFSETENABLE	TOGGLE	F	Ach Offset Enable
ACHOFFSET	QUANT	0	Ach Offset (V)
ACHFILTER	IQUANT	1	Ach Filter
CABLEID	IQUANT	14	Cable ID
DCCALDATE	LABEL	5-7-2017	DC Calibration Date
ACCALDATE	LABEL	12/3/2015	AC Calibration Date
FRAMEWORKVERSION	QUANT	7.01	Framework Version
INSTRUMENTVERSION	LABEL	4.00	Instrument Version
CURVE	TABLE	80
	Pt	T	Vf	Im	Vu	Pwr	Sig	Ach	Temp	IERange	Over
	#	s	V	A	V	W	V	V	deg C	#	bits
	0	0.013333	2.62299E-001	1.00345E-004	0.00000E+000	2.63204E-005	5.99601E-002	2.62385E-001	3.57860E+000	9	...........
	1	0.026667	2.84980E-001	1.00597E-004	0.00000E+000	2.86681E-005	5.99601E-002	2.85043E-001	3.57860E+000	9	...........
	2	0.04	3.06079E-001	1.00759E-004	0.00000E+000	3.08404E-005	5.99601E-002	3.06148E-001	3.57860E+000	9	...........
	3	0.053333	3.26008E-001	1.00432E-004	0.00000E+000	3.27417E-005	5.99601E-002	3.26075E-001	3.57860E+000	9	...........
	4	0.066667	3.44963E-001	1.00511E-004	0.00000E+000	3.46728E-005	5.99601E-002	3.45035E-001	3.57860E+000	9	...........
	5	0.08	3.63128E-001	1.01234E-004	0.00000E+000	3.67608E-005	5.99601E-002	3.63205E-001	3.57860E+000	9	...........
	6	0.093333	3.80609E-001	1.01027E-004	0.00000E+000	3.84519E-005	5.99601E-002	3.80689E-001	3.57860E+000	9	...........
	7	0.106667	3.97509E-001	1.01699E-004	0.00000E+000	4.04264E-005	5.99601E-002	3.97590E-001	3.57860E+000	9	...........
	8	0.12	4.13884E-001	1.01161E-004	0.00000E+000	4.18687E-005	5.99601E-002	4.13968E-001	3.57860E+000	9	...........
	9	0.133333	4.29801E-001	1.00738E-004	0.00000E+000	4.32971E-005	5.99601E-002	4.29892E-001	3.57860E+000	9	...........
	10	0.146667	4.45301E-001	1.00794E-004	0.00000E+000	4.48836E-005	5.99601E-002	4.45398E-001	3.57860E+000	9	...........
	11	0.16	4.60423E-001	1.00742E-004	0.00000E+000	4.63838E-005	5.99601E-002	4.60514E-001	3.57860E+000	9	...........
	12	0.173333	4.75187E-001	1.02014E-004	0.00000E+000	4.84757E-005	5.99601E-002	4.75293E-001	3.57860E+000	9	...........
	13	0.186667	4.89639E-001	1.01160E-004	0.00000E+000	4.95316E-005	5.99601E-002	4.89744E-001	3.57860E+000	9	...........
	14	0.2	5.03783E-001	1.00600E-004	0.00000E+000	5.06806E-005	5.99601E-002	5.03887E-001	3.57860E+000	9	...........
	15	0.213333	5.17637E-001	1.00764E-004	0.00000E+000	5.21590E-005	5.99601E-002	5.17749E-001	3.57860E+000	9	...........
	16	0.226667	5.31136E-001	1.01029E-004	0.00000E+000	5.36604E-005	5.99601E-002	5.31268E-001	3.57860E+000	9	...........
	17	0.24	5.44231E-001	1.00197E-004	0.00000E+000	5.45303E-005	5.99601E-002	5.44440E-001	3.57860E+000	9	...........
	18	0.253333	5.57307E-001	1.00221E-004	0.00000E+000	5.58538E-005	5.99601E-002	5.57539E-001	3.57860E+000	9	...........
	19	0.266667	5.70168E-001	1.01686E-004	0.00000E+000	5.79780E-005	5.99601E-002	5.70373E-001	3.57860E+000	9	...........
	20	0.28	5.82772E-001	1.01170E-004	0.00000E+000	5.89590E-005	5.99601E-002	5.82992E-001	3.57860E+000	9	...........
	21	0.293333	5.95183E-001	1.00305E-004	0.00000E+000	5.96999E-005	5.99601E-002	5.95413E-001	3.57860E+000	9	...........
	22	0.306667	6.07330E-001	1.00956E-004	0.00000E+000	6.13138E-005	5.99601E-002	6.07596E-001	3.57860E+000	9	...........
	23	0.32	6.19355E-001	1.00977E-004	0.00000E+000	6.25408E-005	5.99601E-002	6.19569E-001	3.57860E+000	9	...........
	24	0.333333	6.31076E-001	1.00350E-004	0.00000E+000	6.33285E-005	5.99601E-002	6.31319E-001	3.57860E+000	9	...........
	25	0.346667	6.42655E-001	1.00574E-004	0.00000E+000	6.46344E-005	5.99601E-002	6.42921E-001	3.57860E+000	9	...........
	26	0.36	6.54029E-001	1.00479E-004	0.00000E+000	6.57163E-005	5.99601E-002	6.54266E-001	3.57860E+000	9	...........
	27	0.373333	6.65164E-001	1.01066E-004	0.00000E+000	6.72253E-005	5.99601E-002	6.65437E-001	3.57860E+000	9	...........
	28	0.386667	6.76158E-001	1.01281E-004	0.00000E+000	6.84822E-005	5.99601E-002	6.76413E-001	3.57860E+000	9	...........
	29	0.4	6.86904E-001	1.00930E-004	0.00000E+000	6.93295E-005	5.99601E-002	6.87187E-001	3.57860E+000	9	...........
	30	0.413333	6.97484E-001	1.01195E-004	0.00000E+000	7.05819E-005	5.99601E-002	6.97723E-001	3.57860E+000	9	...........
	31	0.426667	7.07852E-001	1.01100E-004	0.00000E+000	7.15639E-005	5.99601E-002	7.08109E-001	3.57860E+000	9	...........
	32	0.44	7.18047E-001	1.00830E-004	0.00000E+000	7.24009E-005	5.99601E-002	7.18300E-001	3.57860E+000	9	...........
	33	0.453333	7.28032E-001	1.00892E-004	0.00000E+000	7.34524E-005	5.99601E-002	7.28290E-001	3.57860E+000	9	...........
	34	0.466667	7.37793E-001	1.01953E-004	0.00000E+000	7.52205E-005	5.99601E-002	7.38079E-001	3.57860E+000	9	...........
	35	0.48	7.47411E-001	1.00632E-004	0.00000E+000	7.52138E-005	5.99601E-002	7.47695E-001	3.57860E+000	9	...........
	36	0.493333	7.56816E-001	1.00822E-004	0.00000E+000	7.63037E-005	5.99601E-002	7.57084E-001	3.57860E+000	9	...........
	37	0.506667	7.66018E-001	1.01566E-004	0.00000E+000	7.78013E-005	5.99601E-002	7.66297E-001	3.57860E+000	9	...........
	38	0.52	7.75023E-001	1.00273E-004	0.00000E+000	7.77138E-005	5.99601E-002	7.75319E-001	3.57822E+000	9	...........
	39	0.533333	7.83857E-001	9.99676E-005	0.00000E+000	7.83604E-005	5.99601E-002	7.84125E-001	3.57800E+000	9	...........
	40	0.546667	7.92464E-001	1.00302E-004	0.00000E+000	7.94858E-005	5.99601E-002	7.92754E-001	3.57800E+000	9	...........
	41	0.56	8.00897E-001	1.00847E-004	0.00000E+000	8.07681E-005	5.99601E-002	8.01165E-001	3.57800E+000	9	...........
	42	0.573333	8.09100E-001	1.00273E-004	0.00000E+000	8.11308E-005	5.99601E-002	8.09392E-001	3.57800E+000	9	...........
	43	0.586667	8.17146E-001	1.01137E-004	0.00000E+000	8.26434E-005	5.99601E-002	8.17427E-001	3.57800E+000	9	...........
	44	0.6	8.24990E-001	1.01079E-004	0.00000E+000	8.33894E-005	5.99601E-002	8.25273E-001	3.57800E+000	9	...........
	45	0.613333	8.32625E-001	1.01212E-004	0.00000E+000	8.42714E-005	5.99601E-002	8.32923E-001	3.57800E+000	9	...........
	46	0.626667	8.40064E-001	1.01044E-004	0.00000E+000	8.48834E-005	5.99601E-002	8.40384E-001	3.57800E+000	9	...........
	47	0.64	8.47357E-001	9.98832E-005	0.00000E+000	8.46368E-005	5.99601E-002	8.47696E-001	3.57800E+000	9	...........
	48	0.653333	8.54417E-001	1.00745E-004	0.00000E+000	8.60782E-005	5.99601E-002	8.54754E-001	3.57800E+000	9	...........
	49	0.666667	8.61319E-001	1.00405E-004	0.00000E+000	8.64809E-005	5.99601E-002	8.61651E-001	3.57800E+000	9	...........
	50	0.68	8.68012E-001	1.01940E-004	0.00000E+000	8.84851E-005	5.99601E-002	8.68376E-001	3.57800E+000	9	...........
	51	0.693333	8.74578E-001	1.00166E-004	0.00000E+000	8.76027E-005	5.99601E-002	8.74904E-001	3.57800E+000	9	...........
	52	0.706667	8.80898E-001	1.00949E-004	0.00000E+000	8.89259E-005	5.99601E-002	8.81258E-001	3.57800E+000	9	...........
	53	0.72	8.87077E-001	1.01026E-004	0.00000E+000	8.96180E-005	5.99601E-002	8.87406E-001	3.57800E+000	9	...........
	54	0.733333	8.93045E-001	1.01444E-004	0.00000E+000	9.05941E-005	5.99601E-002	8.93368E-001	3.57800E+000	9	...........
	55	0.746667	8.98877E-001	1.01008E-004	0.00000E+000	9.07942E-005	5.99601E-002	8.99204E-001	3.57800E+000	9	...........
	56	0.76	9.04523E-001	1.00043E-004	0.00000E+000	9.04909E-005	5.99601E-002	9.04853E-001	3.57800E+000	9	...........
	57	0.773333	9.10023E-001	1.01069E-004	0.00000E+000	9.19750E-005	5.99601E-002	9.10374E-001	3.57800E+000	9	...........
	58	0.786667	9.15333E-001	1.00666E-004	0.00000E+000	9.21427E-005	5.99601E-002	9.15703E-001	3.57800E+000	9	...........
	59	0.8	9.20552E-001	1.00702E-004	0.00000E+000	9.27015E-005	5.99601E-002	9.20880E-001	3.57800E+000	9	...........
	60	0.813333	9.25614E-001	1.01566E-004	0.00000E+000	9.40108E-005	5.99601E-002	9.25914E-001	3.57800E+000	9	...........
	61	0.826667	9.30514E-001	1.00347E-004	0.00000E+000	9.33742E-005	5.99601E-002	9.30817E-001	3.57800E+000	9	...........
	62	0.84	9.35276E-001	1.00937E-004	0.00000E+000	9.44035E-005	5.99601E-002	9.35602E-001	3.57800E+000	9	...........
	63	0.853333	9.39904E-001	1.01032E-004	0.00000E+000	9.49608E-005	5.99601E-002	9.40245E-001	3.57800E+000	9	...........
	64	0.866667	9.44450E-001	1.01661E-004	0.00000E+000	9.60135E-005	5.99601E-002	9.44773E-001	3.57800E+000	9	...........
	65	0.88	9.48896E-001	1.01025E-004	0.00000E+000	9.58623E-005	5.99601E-002	9.49224E-001	3.57800E+000	9	...........
	66	0.893333	9.53214E-001	1.00291E-004	0.00000E+000	9.55984E-005	5.99601E-002	9.53551E-001	3.57800E+000	9	...........
	67	0.906667	9.57409E-001	1.00839E-004	0.00000E+000	9.65438E-005	5.99601E-002	9.57734E-001	3.57800E+000	9	...........
	68	0.92	9.61519E-001	1.01840E-004	0.00000E+000	9.79210E-005	5.99601E-002	9.61866E-001	3.57800E+000	9	...........
	69	0.933333	9.65531E-001	1.00541E-004	0.00000E+000	9.70751E-005	5.99601E-002	9.65900E-001	3.57800E+000	9	...........
	70	0.946667	9.69452E-001	1.01291E-004	0.00000E+000	9.81966E-005	5.99601E-002	9.69826E-001	3.57800E+000	9	...........
	71	0.96	9.73346E-001	1.01147E-004	0.00000E+000	9.84511E-005	5.99601E-002	9.73673E-001	3.57800E+000	9	...........
	72	0.97333	9.77120E-001	1.00275E-004	0.00000E+000	9.79807E-005	5.99601E-002	9.77408E-001	3.57800E+000	9	...........
	73	0.98667	9.80809E-001	1.01398E-004	0.00000E+000	9.94522E-005	5.99601E-002	9.81094E-001	3.57800E+000	9	...........
	74	1	9.84376E-001	1.00964E-004	0.00000E+000	9.93863E-005	5.99601E-002	9.84717E-001	3.57800E+000	9	...........
	75	1.01333	9.87907E-001	1.01140E-004	0.00000E+000	9.99166E-005	5.99601E-002	9.88259E-001	3.57800E+000	9	...........
	76	1.02667	9.91327E-001	1.01222E-004	0.00000E+000	1.00344E-004	5.99601E-002	9.91691E-001	3.57800E+000	9	...........
	77	1.04	9.94667E-001	1.01570E-004	0.00000E+000	1.01028E-004	5.99601E-002	9.95042E-001	3.57800E+000	9	...........
	78	1.05333	9.97948E-001	9.98739E-005	0.00000E+000	9.96689E-005	5.99601E-002	9.98304E-001	3.57800E+000	9	...........
	79	1.05667	9.99926E-001	1.01240E-004	0.00000E+000	1.01232E-004	5.99601E-002	1.00031E+000	3.57800E+000	9	...........
STARTTIMEOFFSET	QUANT	260.7483	Start Time Offset (s)
