EXPLAIN
TAG	PWR800_CHARGE
TITLE	LABEL	PWR Cyclic Charge Discharge (Cell) - Charge Step	Test &Identifier
DATE	LABEL	12-7-2017	Date
TIME	LABEL	16:21:42	Time
NOTES	NOTES	2	&Notes...
	supercap test cell
	6M KOH
PSTAT	PSTAT	IFC5000-01520	Potentiostat
CAPACITY	QUANT	1.00000E-003	Capacity (A-hr)
CELLTYPE	SELECTOR	1	&Cell Type
WORKINGCONNECTION	SELECTOR	0	&Working Lead
MAXCHARGETIME	VARIABLEANDUNITS	1.00000E+002	s	1.00000E+002	second(s)	Max &Charge Time
CHARGECURRENT	QUANT	1.00000E-004	&Charge Current (A) 
VOLTAGEFINISH	TWOPARAM	F	1.00000E-003	3.60000E+003	&Voltage Finish	 I (A) < 	Max Time(s)
SAMPLETIME	QUANT	1.00000E-002	Sa&mple Period (s)
CHARGESTOPAT1	MULTIPARAM	4	1.00000E+000	Charge Stop At &1	Voltage > Limit	V
CHARGESTOPAT2	MULTIPARAM	0	0.00000E+000	Charge Stop At &2	None	N/A
AESBHCSELECTOR	TOGGLE	F	Save Both Half Cells
IRCOMP	TOGGLE	F	IR &Measure
EOC	QUANT	0	Open Circuit (V)
SEQUENCER	TOGGLE	TRUE	Run as Sequence
PSTATMODEL	IQUANT	53	Pstat Model
PSTATSECTION	LABEL	IFC5000-01520	Pstat Section
PSTATSERIALNO	LABEL	01520	Pstat Serial Number
CTRLMODE	IQUANT	0	Control Mode
ELECTROMETER	IQUANT	1	RE=0 or CS=1
IESTAB	IQUANT	0	I/E Stability
CASPEED	IQUANT	4	Control Amp Speed
CONVENTION	IQUANT	1	Current Convention
ICHRANGE	IQUANT	2	Ich Range
ICHRANGEMODE	TOGGLE	T	Ich Auto Range
ICHOFFSETENABLE	TOGGLE	F	Ich Offset Enable
ICHOFFSET	QUANT	0	Ich Offset (V)
ICHFILTER	IQUANT	1	Ich Filter
VCHRANGE	IQUANT	2	Vch Range
VCHRANGEMODE	TOGGLE	T	Vch Auto Range
VCHOFFSETENABLE	TOGGLE	F	Vch Offset Enable
VCHOFFSET	QUANT	0	Vch Offset (V)
VCHFILTER	IQUANT	1	Vch Filter
IERANGELOWERLIMIT	IQUANT	9	I/E Range Lower Limit
IERANGEMODE	TOGGLE	F	I/E AutoRange
IERANGE	IQUANT	9	I/E Range
ACHSELECT	IQUANT	1	Ach Select
ACHRANGE	IQUANT	2	Ach Range
ACHOFFSETENABLE	TOGGLE	F	Ach Offset Enable
ACHOFFSET	QUANT	0	Ach Offset (V)
ACHFILTER	IQUANT	1	Ach Filter
CABLEID	IQUANT	14	Cable ID
DCCALDATE	LABEL	5-7-2017	DC Calibration Date
ACCALDATE	LABEL	12/3/2015	AC Calibration Date
FRAMEWORKVERSION	QUANT	7.01	Framework Version
INSTRUMENTVERSION	LABEL	4.00	Instrument Version
CURVE	TABLE	78
	Pt	T	Vf	Im	Vu	Pwr	Sig	Ach	Temp	IERange	Over
	#	s	V	A	V	W	V	V	deg C	#	bits
	0	0.013333	2.58924E-001	1.01533E-004	0.00000E+000	2.62892E-005	5.99601E-002	2.59009E-001	3.57690E+000	9	...........
	1	0.026667	2.81708E-001	1.00074E-004	0.00000E+000	2.81916E-005	5.99601E-002	2.81767E-001	3.57690E+000	9	...........
	2	0.04	3.03040E-001	1.01462E-004	0.00000E+000	3.07470E-005	5.99601E-002	3.03105E-001	3.57690E+000	9	...........
	3	0.053333	3.23316E-001	1.01634E-004	0.00000E+000	3.28597E-005	5.99601E-002	3.23378E-001	3.57690E+000	9	...........
	4	0.066667	3.42740E-001	1.01654E-004	0.00000E+000	3.48411E-005	5.99601E-002	3.42810E-001	3.57690E+000	9	...........
	5	0.08	3.61452E-001	1.01284E-004	0.00000E+000	3.66091E-005	5.99601E-002	3.61525E-001	3.57690E+000	9	...........
	6	0.093333	3.79568E-001	1.01366E-004	0.00000E+000	3.84752E-005	5.99601E-002	3.79648E-001	3.57690E+000	9	...........
	7	0.106667	3.97149E-001	1.01058E-004	0.00000E+000	4.01353E-005	5.99601E-002	3.97234E-001	3.57690E+000	9	...........
	8	0.12	4.14253E-001	1.01502E-004	0.00000E+000	4.20477E-005	5.99601E-002	4.14338E-001	3.57690E+000	9	...........
	9	0.133333	4.30919E-001	1.00441E-004	0.00000E+000	4.32818E-005	5.99601E-002	4.31013E-001	3.57690E+000	9	...........
	10	0.146667	4.47184E-001	1.01045E-004	0.00000E+000	4.51857E-005	5.99601E-002	4.47282E-001	3.57690E+000	9	...........
	11	0.16	4.63075E-001	1.00693E-004	0.00000E+000	4.66283E-005	5.99601E-002	4.63171E-001	3.57690E+000	9	...........
	12	0.173333	4.78614E-001	1.00749E-004	0.00000E+000	4.82199E-005	5.99601E-002	4.78713E-001	3.57690E+000	9	...........
	13	0.186667	4.93812E-001	1.00584E-004	0.00000E+000	4.96698E-005	5.99601E-002	4.93921E-001	3.57690E+000	9	...........
	14	0.2	5.08700E-001	9.98812E-005	0.00000E+000	5.08096E-005	5.99601E-002	5.08814E-001	3.57690E+000	9	...........
	15	0.213333	5.23289E-001	1.00664E-004	0.00000E+000	5.26762E-005	5.99601E-002	5.23404E-001	3.57690E+000	9	...........
	16	0.226667	5.37351E-001	1.00631E-004	0.00000E+000	5.40743E-005	5.99601E-002	5.37559E-001	3.57690E+000	9	...........
	17	0.24	5.51283E-001	1.00392E-004	0.00000E+000	5.53442E-005	5.99601E-002	5.51510E-001	3.57690E+000	9	...........
	18	0.253333	5.65040E-001	1.01045E-004	0.00000E+000	5.70945E-005	5.99601E-002	5.65272E-001	3.57690E+000	9	...........
	19	0.266667	5.78495E-001	1.00162E-004	0.00000E+000	5.79435E-005	5.99601E-002	5.78726E-001	3.57690E+000	9	...........
	20	0.28	5.91693E-001	1.00477E-004	0.00000E+000	5.94516E-005	5.99601E-002	5.91966E-001	3.57690E+000	9	...........
	21	0.293333	6.04637E-001	1.01373E-004	0.00000E+000	6.12940E-005	5.99601E-002	6.04925E-001	3.57690E+000	9	...........
	22	0.306667	6.17358E-001	1.01010E-004	0.00000E+000	6.23591E-005	5.99601E-002	6.17641E-001	3.57690E+000	9	...........
	23	0.32	6.29797E-001	1.00757E-004	0.00000E+000	6.34567E-005	5.99601E-002	6.30063E-001	3.57690E+000	9	...........
	24	0.333333	6.41997E-001	1.01406E-004	0.00000E+000	6.51027E-005	5.99601E-002	6.42287E-001	3.57690E+000	9	...........
	25	0.346667	6.53981E-001	1.00281E-004	0.00000E+000	6.55820E-005	5.99601E-002	6.54253E-001	3.57690E+000	9	...........
	26	0.36	6.65704E-001	1.01531E-004	0.00000E+000	6.75899E-005	5.99601E-002	6.65978E-001	3.57690E+000	9	...........
	27	0.373333	6.77172E-001	1.00613E-004	0.00000E+000	6.81320E-005	5.99601E-002	6.77457E-001	3.57690E+000	9	...........
	28	0.386667	6.88393E-001	1.01422E-004	0.00000E+000	6.98183E-005	5.99601E-002	6.88700E-001	3.57690E+000	9	...........
	29	0.4	6.99401E-001	1.01019E-004	0.00000E+000	7.06527E-005	5.99601E-002	6.99702E-001	3.57690E+000	9	...........
	30	0.413333	7.10144E-001	1.01415E-004	0.00000E+000	7.20191E-005	5.99601E-002	7.10455E-001	3.57690E+000	9	...........
	31	0.426667	7.20730E-001	1.00951E-004	0.00000E+000	7.27586E-005	5.99601E-002	7.21005E-001	3.57690E+000	9	...........
	32	0.44	7.31030E-001	1.01218E-004	0.00000E+000	7.39934E-005	5.99601E-002	7.31308E-001	3.57690E+000	9	...........
	33	0.453333	7.41088E-001	1.00359E-004	0.00000E+000	7.43751E-005	5.99601E-002	7.41380E-001	3.57690E+000	9	...........
	34	0.466667	7.50936E-001	1.01020E-004	0.00000E+000	7.58595E-005	5.99601E-002	7.51220E-001	3.57690E+000	9	...........
	35	0.48	7.60532E-001	1.01752E-004	0.00000E+000	7.73860E-005	5.99601E-002	7.60806E-001	3.57690E+000	9	...........
	36	0.493333	7.69924E-001	1.00100E-004	0.00000E+000	7.70693E-005	5.99601E-002	7.70202E-001	3.57690E+000	9	...........
	37	0.506667	7.79049E-001	1.01740E-004	0.00000E+000	7.92604E-005	5.99601E-002	7.79352E-001	3.57690E+000	9	...........
	38	0.52	7.87978E-001	1.01790E-004	0.00000E+000	8.02081E-005	5.99601E-002	7.88267E-001	3.57690E+000	9	...........
	39	0.533333	7.96677E-001	1.01121E-004	0.00000E+000	8.05608E-005	5.99601E-002	7.96978E-001	3.57690E+000	9	...........
	40	0.546667	8.05135E-001	1.02138E-004	0.00000E+000	8.22348E-005	5.99601E-002	8.05442E-001	3.57690E+000	9	...........
	41	0.56	8.13370E-001	1.00203E-004	0.00000E+000	8.15021E-005	5.99601E-002	8.13661E-001	3.57690E+000	9	...........
	42	0.573333	8.21407E-001	1.00698E-004	0.00000E+000	8.27141E-005	5.99601E-002	8.21711E-001	3.57690E+000	9	...........
	43	0.586667	8.29203E-001	1.00434E-004	0.00000E+000	8.32805E-005	5.99601E-002	8.29518E-001	3.57690E+000	9	...........
	44	0.6	8.36781E-001	1.01738E-004	0.00000E+000	8.51322E-005	5.99601E-002	8.37103E-001	3.57690E+000	9	...........
	45	0.613333	8.44176E-001	1.01785E-004	0.00000E+000	8.59242E-005	5.99601E-002	8.44491E-001	3.57690E+000	9	...........
	46	0.626667	8.51331E-001	1.01167E-004	0.00000E+000	8.61265E-005	5.99601E-002	8.51661E-001	3.57690E+000	9	...........
	47	0.64	8.58309E-001	1.01539E-004	0.00000E+000	8.71516E-005	5.99601E-002	8.58609E-001	3.57690E+000	9	...........
	48	0.653333	8.65042E-001	1.01358E-004	0.00000E+000	8.76785E-005	5.99601E-002	8.65364E-001	3.57690E+000	9	...........
	49	0.666667	8.71620E-001	1.00271E-004	0.00000E+000	8.73980E-005	5.99601E-002	8.71932E-001	3.57690E+000	9	...........
	50	0.68	8.77968E-001	9.98384E-005	0.00000E+000	8.76550E-005	5.99601E-002	8.78284E-001	3.57690E+000	9	...........
	51	0.693333	8.84116E-001	1.00737E-004	0.00000E+000	8.90628E-005	5.99601E-002	8.84452E-001	3.57690E+000	9	...........
	52	0.706667	8.90080E-001	1.01446E-004	0.00000E+000	9.02952E-005	5.99601E-002	8.90428E-001	3.57690E+000	9	...........
	53	0.72	8.95883E-001	1.00708E-004	0.00000E+000	9.02229E-005	5.99601E-002	8.96232E-001	3.57690E+000	9	...........
	54	0.733333	9.01507E-001	1.00808E-004	0.00000E+000	9.08795E-005	5.99601E-002	9.01864E-001	3.57690E+000	9	...........
	55	0.746667	9.06992E-001	1.01297E-004	0.00000E+000	9.18756E-005	5.99601E-002	9.07345E-001	3.57690E+000	9	...........
	56	0.76	9.12309E-001	1.01264E-004	0.00000E+000	9.23838E-005	5.99601E-002	9.12645E-001	3.57690E+000	9	...........
	57	0.773333	9.17489E-001	1.01685E-004	0.00000E+000	9.32946E-005	5.99601E-002	9.17837E-001	3.57690E+000	9	...........
	58	0.786667	9.22574E-001	1.01294E-004	0.00000E+000	9.34511E-005	5.99601E-002	9.22882E-001	3.57690E+000	9	...........
	59	0.8	9.27470E-001	1.00265E-004	0.00000E+000	9.29924E-005	5.99601E-002	9.27794E-001	3.57690E+000	9	...........
	60	0.813333	9.32269E-001	1.01080E-004	0.00000E+000	9.42340E-005	5.99601E-002	9.32595E-001	3.57690E+000	9	...........
	61	0.826667	9.36948E-001	1.00392E-004	0.00000E+000	9.40618E-005	5.99601E-002	9.37258E-001	3.57690E+000	9	...........
	62	0.84	9.41521E-001	1.01485E-004	0.00000E+000	9.55499E-005	5.99601E-002	9.41835E-001	3.57690E+000	9	...........
	63	0.853333	9.46010E-001	1.00716E-004	0.00000E+000	9.52780E-005	5.99601E-002	9.46348E-001	3.57690E+000	9	...........
	64	0.866667	9.50431E-001	1.01399E-004	0.00000E+000	9.63730E-005	5.99601E-002	9.50744E-001	3.57690E+000	9	...........
	65	0.88	9.54715E-001	1.00639E-004	0.00000E+000	9.60812E-005	5.99601E-002	9.55048E-001	3.57690E+000	9	...........
	66	0.893333	9.58923E-001	1.01537E-004	0.00000E+000	9.73659E-005	5.99601E-002	9.59290E-001	3.57690E+000	9	...........
	67	0.906667	9.63059E-001	1.00986E-004	0.00000E+000	9.72550E-005	5.99601E-002	9.63419E-001	3.57690E+000	9	...........
	68	0.92	9.67108E-001	1.00754E-004	0.00000E+000	9.74402E-005	5.99601E-002	9.67470E-001	3.57712E+000	9	...........
	69	0.933333	9.71100E-001	1.00923E-004	0.00000E+000	9.80064E-005	5.99601E-002	9.71474E-001	3.57830E+000	9	...........
	70	0.946667	9.75037E-001	1.01191E-004	0.00000E+000	9.86648E-005	5.99601E-002	9.75376E-001	3.57830E+000	9	...........
	71	0.96	9.78856E-001	1.02304E-004	0.00000E+000	1.00140E-004	5.99601E-002	9.79195E-001	3.57830E+000	9	...........
	72	0.97333	9.82600E-001	1.00781E-004	0.00000E+000	9.90277E-005	5.99601E-002	9.82933E-001	3.57830E+000	9	...........
	73	0.98667	9.86258E-001	1.01893E-004	0.00000E+000	1.00493E-004	5.99601E-002	9.86626E-001	3.57830E+000	9	...........
	74	1	9.89857E-001	1.01289E-004	0.00000E+000	1.00261E-004	5.99601E-002	9.90194E-001	3.57830E+000	9	...........
	75	1.01333	9.93320E-001	1.00136E-004	0.00000E+000	9.94675E-005	5.99601E-002	9.93674E-001	3.57830E+000	9	...........
	76	1.02667	9.96751E-001	1.01095E-004	0.00000E+000	1.00766E-004	5.99601E-002	9.97097E-001	3.57830E+000	9	...........
	77	1.035	9.99462E-001	9.99862E-005	0.00000E+000	9.99324E-005	5.99601E-002	9.99821E-001	3.57830E+000	9	...........
STARTTIMEOFFSET	QUANT	497.8668	Start Time Offset (s)
