EXPLAIN
TAG	PWR800_CHARGE
TITLE	LABEL	PWR Cyclic Charge Discharge (Cell) - Charge Step	Test &Identifier
DATE	LABEL	12-7-2017	Date
TIME	LABEL	16:55:59	Time
NOTES	NOTES	2	&Notes...
	supercap test cell
	6M KOH
PSTAT	PSTAT	IFC5000-01520	Potentiostat
CAPACITY	QUANT	1.00000E-003	Capacity (A-hr)
CELLTYPE	SELECTOR	1	&Cell Type
WORKINGCONNECTION	SELECTOR	0	&Working Lead
MAXCHARGETIME	VARIABLEANDUNITS	1.00000E+002	s	1.00000E+002	second(s)	Max &Charge Time
CHARGECURRENT	QUANT	1.00000E-004	&Charge Current (A) 
VOLTAGEFINISH	TWOPARAM	F	1.00000E-003	3.60000E+003	&Voltage Finish	 I (A) < 	Max Time(s)
SAMPLETIME	QUANT	1.00000E-002	Sa&mple Period (s)
CHARGESTOPAT1	MULTIPARAM	4	1.00000E+000	Charge Stop At &1	Voltage > Limit	V
CHARGESTOPAT2	MULTIPARAM	0	0.00000E+000	Charge Stop At &2	None	N/A
AESBHCSELECTOR	TOGGLE	F	Save Both Half Cells
IRCOMP	TOGGLE	F	IR &Measure
EOC	QUANT	0	Open Circuit (V)
SEQUENCER	TOGGLE	TRUE	Run as Sequence
PSTATMODEL	IQUANT	53	Pstat Model
PSTATSECTION	LABEL	IFC5000-01520	Pstat Section
PSTATSERIALNO	LABEL	01520	Pstat Serial Number
CTRLMODE	IQUANT	0	Control Mode
ELECTROMETER	IQUANT	1	RE=0 or CS=1
IESTAB	IQUANT	0	I/E Stability
CASPEED	IQUANT	4	Control Amp Speed
CONVENTION	IQUANT	1	Current Convention
ICHRANGE	IQUANT	2	Ich Range
ICHRANGEMODE	TOGGLE	T	Ich Auto Range
ICHOFFSETENABLE	TOGGLE	F	Ich Offset Enable
ICHOFFSET	QUANT	0	Ich Offset (V)
ICHFILTER	IQUANT	1	Ich Filter
VCHRANGE	IQUANT	2	Vch Range
VCHRANGEMODE	TOGGLE	T	Vch Auto Range
VCHOFFSETENABLE	TOGGLE	F	Vch Offset Enable
VCHOFFSET	QUANT	0	Vch Offset (V)
VCHFILTER	IQUANT	1	Vch Filter
IERANGELOWERLIMIT	IQUANT	9	I/E Range Lower Limit
IERANGEMODE	TOGGLE	F	I/E AutoRange
IERANGE	IQUANT	9	I/E Range
ACHSELECT	IQUANT	1	Ach Select
ACHRANGE	IQUANT	2	Ach Range
ACHOFFSETENABLE	TOGGLE	F	Ach Offset Enable
ACHOFFSET	QUANT	0	Ach Offset (V)
ACHFILTER	IQUANT	1	Ach Filter
CABLEID	IQUANT	14	Cable ID
DCCALDATE	LABEL	5-7-2017	DC Calibration Date
ACCALDATE	LABEL	12/3/2015	AC Calibration Date
FRAMEWORKVERSION	QUANT	7.01	Framework Version
INSTRUMENTVERSION	LABEL	4.00	Instrument Version
CURVE	TABLE	74
	Pt	T	Vf	Im	Vu	Pwr	Sig	Ach	Temp	IERange	Over
	#	s	V	A	V	W	V	V	deg C	#	bits
	0	0.013333	2.55718E-001	1.01003E-004	0.00000E+000	2.58283E-005	5.99601E-002	2.55793E-001	3.57630E+000	9	...........
	1	0.026667	2.78912E-001	1.01094E-004	0.00000E+000	2.81963E-005	5.99601E-002	2.78970E-001	3.57630E+000	9	...........
	2	0.04	3.00871E-001	1.02095E-004	0.00000E+000	3.07175E-005	5.99601E-002	3.00933E-001	3.57630E+000	9	...........
	3	0.053333	3.21946E-001	1.00447E-004	0.00000E+000	3.23385E-005	5.99601E-002	3.22005E-001	3.57630E+000	9	...........
	4	0.066667	3.42321E-001	1.02003E-004	0.00000E+000	3.49179E-005	5.99601E-002	3.42383E-001	3.57630E+000	9	...........
	5	0.08	3.62099E-001	1.00834E-004	0.00000E+000	3.65121E-005	5.99601E-002	3.62173E-001	3.57630E+000	9	...........
	6	0.093333	3.81367E-001	1.01943E-004	0.00000E+000	3.88777E-005	5.99601E-002	3.81437E-001	3.57630E+000	9	...........
	7	0.106667	4.00151E-001	1.00572E-004	0.00000E+000	4.02440E-005	5.99601E-002	4.00233E-001	3.57630E+000	9	...........
	8	0.12	4.18510E-001	1.00490E-004	0.00000E+000	4.20559E-005	5.99601E-002	4.18597E-001	3.57630E+000	9	...........
	9	0.133333	4.36460E-001	1.00216E-004	0.00000E+000	4.37401E-005	5.99601E-002	4.36550E-001	3.57630E+000	9	...........
	10	0.146667	4.54014E-001	1.00010E-004	0.00000E+000	4.54061E-005	5.99601E-002	4.54107E-001	3.57630E+000	9	...........
	11	0.16	4.71186E-001	9.99895E-005	0.00000E+000	4.71136E-005	5.99601E-002	4.71283E-001	3.57630E+000	9	...........
	12	0.173333	4.87998E-001	1.01464E-004	0.00000E+000	4.95141E-005	5.99601E-002	4.88098E-001	3.57630E+000	9	...........
	13	0.186667	5.04435E-001	1.01095E-004	0.00000E+000	5.09958E-005	5.99601E-002	5.04546E-001	3.57630E+000	9	...........
	14	0.2	5.20522E-001	1.02162E-004	0.00000E+000	5.31775E-005	5.99601E-002	5.20637E-001	3.57630E+000	9	...........
	15	0.213333	5.36058E-001	1.00066E-004	0.00000E+000	5.36410E-005	5.99601E-002	5.36251E-001	3.57630E+000	9	...........
	16	0.226667	5.51356E-001	1.00550E-004	0.00000E+000	5.54389E-005	5.99601E-002	5.51566E-001	3.57630E+000	9	...........
	17	0.24	5.66395E-001	1.00332E-004	0.00000E+000	5.68277E-005	5.99601E-002	5.66615E-001	3.57630E+000	9	...........
	18	0.253333	5.81051E-001	1.00244E-004	0.00000E+000	5.82467E-005	5.99601E-002	5.81302E-001	3.57630E+000	9	...........
	19	0.266667	5.95397E-001	1.00287E-004	0.00000E+000	5.97108E-005	5.99601E-002	5.95652E-001	3.57630E+000	9	...........
	20	0.28	6.09390E-001	1.00612E-004	0.00000E+000	6.13117E-005	5.99601E-002	6.09643E-001	3.57630E+000	9	...........
	21	0.293333	6.23099E-001	1.00470E-004	0.00000E+000	6.26027E-005	5.99601E-002	6.23299E-001	3.57630E+000	9	...........
	22	0.306667	6.36422E-001	1.01489E-004	0.00000E+000	6.45897E-005	5.99601E-002	6.36626E-001	3.57630E+000	9	...........
	23	0.32	6.49413E-001	1.00534E-004	0.00000E+000	6.52883E-005	5.99601E-002	6.49624E-001	3.57630E+000	9	...........
	24	0.333333	6.62079E-001	1.00315E-004	0.00000E+000	6.64161E-005	5.99601E-002	6.62317E-001	3.57630E+000	9	...........
	25	0.346667	6.74454E-001	1.00960E-004	0.00000E+000	6.80926E-005	5.99601E-002	6.74682E-001	3.57630E+000	9	...........
	26	0.36	6.86451E-001	1.02132E-004	0.00000E+000	7.01084E-005	5.99601E-002	6.86700E-001	3.57630E+000	9	...........
	27	0.373333	6.98199E-001	1.01127E-004	0.00000E+000	7.06070E-005	5.99601E-002	6.98422E-001	3.57630E+000	9	...........
	28	0.386667	7.09545E-001	9.94769E-005	0.00000E+000	7.05833E-005	5.99601E-002	7.09834E-001	3.57630E+000	9	...........
	29	0.4	7.20707E-001	1.00806E-004	0.00000E+000	7.26518E-005	5.99601E-002	7.20961E-001	3.57630E+000	9	...........
	30	0.413333	7.31479E-001	1.00253E-004	0.00000E+000	7.33331E-005	5.99601E-002	7.31754E-001	3.57630E+000	9	...........
	31	0.426667	7.41976E-001	1.00987E-004	0.00000E+000	7.49296E-005	5.99601E-002	7.42275E-001	3.57630E+000	9	...........
	32	0.44	7.52203E-001	1.01864E-004	0.00000E+000	7.66223E-005	5.99601E-002	7.52466E-001	3.57630E+000	9	...........
	33	0.453333	7.62112E-001	1.00895E-004	0.00000E+000	7.68932E-005	5.99601E-002	7.62380E-001	3.57630E+000	9	...........
	34	0.466667	7.71744E-001	1.00926E-004	0.00000E+000	7.78892E-005	5.99601E-002	7.72032E-001	3.57630E+000	9	...........
	35	0.48	7.81100E-001	1.01468E-004	0.00000E+000	7.92566E-005	5.99601E-002	7.81381E-001	3.57630E+000	9	...........
	36	0.493333	7.90156E-001	1.01835E-004	0.00000E+000	8.04653E-005	5.99601E-002	7.90452E-001	3.57630E+000	9	...........
	37	0.506667	7.99003E-001	1.00643E-004	0.00000E+000	8.04139E-005	5.99601E-002	7.99284E-001	3.57630E+000	9	...........
	38	0.52	8.07511E-001	1.01446E-004	0.00000E+000	8.19188E-005	5.99601E-002	8.07831E-001	3.57630E+000	9	...........
	39	0.533333	8.15759E-001	9.94456E-005	0.00000E+000	8.11237E-005	5.99601E-002	8.16082E-001	3.57630E+000	9	...........
	40	0.546667	8.23790E-001	1.00648E-004	0.00000E+000	8.29128E-005	5.99601E-002	8.24127E-001	3.57630E+000	9	...........
	41	0.56	8.31545E-001	1.01541E-004	0.00000E+000	8.44358E-005	5.99601E-002	8.31866E-001	3.57630E+000	9	...........
	42	0.573333	8.39038E-001	1.00518E-004	0.00000E+000	8.43382E-005	5.99601E-002	8.39363E-001	3.57630E+000	9	...........
	43	0.586667	8.46327E-001	1.00527E-004	0.00000E+000	8.50788E-005	5.99601E-002	8.46638E-001	3.57630E+000	9	...........
	44	0.6	8.53374E-001	1.01046E-004	0.00000E+000	8.62301E-005	5.99601E-002	8.53664E-001	3.57630E+000	9	...........
	45	0.613333	8.60186E-001	1.00962E-004	0.00000E+000	8.68457E-005	5.99601E-002	8.60511E-001	3.57630E+000	9	...........
	46	0.626667	8.66802E-001	1.00770E-004	0.00000E+000	8.73475E-005	5.99601E-002	8.67128E-001	3.57630E+000	9	...........
	47	0.64	8.73260E-001	1.02197E-004	0.00000E+000	8.92448E-005	5.99601E-002	8.73591E-001	3.57630E+000	9	...........
	48	0.653333	8.79498E-001	1.00113E-004	0.00000E+000	8.80496E-005	5.99601E-002	8.79809E-001	3.57630E+000	9	...........
	49	0.666667	8.85582E-001	1.01423E-004	0.00000E+000	8.98186E-005	5.99601E-002	8.85899E-001	3.57630E+000	9	...........
	50	0.68	8.91496E-001	1.00696E-004	0.00000E+000	8.97700E-005	5.99601E-002	8.91802E-001	3.57630E+000	9	...........
	51	0.693333	8.97244E-001	9.99114E-005	0.00000E+000	8.96449E-005	5.99601E-002	8.97595E-001	3.57630E+000	9	...........
	52	0.706667	9.02874E-001	1.01304E-004	0.00000E+000	9.14651E-005	5.99601E-002	9.03205E-001	3.57630E+000	9	...........
	53	0.72	9.08390E-001	1.00417E-004	0.00000E+000	9.12175E-005	5.99601E-002	9.08725E-001	3.57630E+000	9	...........
	54	0.733333	9.13770E-001	1.01254E-004	0.00000E+000	9.25232E-005	5.99601E-002	9.14122E-001	3.57630E+000	9	...........
	55	0.746667	9.19045E-001	1.00422E-004	0.00000E+000	9.22922E-005	5.99601E-002	9.19378E-001	3.57630E+000	9	...........
	56	0.76	9.24266E-001	1.00457E-004	0.00000E+000	9.28492E-005	5.99601E-002	9.24568E-001	3.57630E+000	9	...........
	57	0.773333	9.29351E-001	1.01927E-004	0.00000E+000	9.47264E-005	5.99601E-002	9.29634E-001	3.57630E+000	9	...........
	58	0.786667	9.34332E-001	1.01033E-004	0.00000E+000	9.43988E-005	5.99601E-002	9.34617E-001	3.57630E+000	9	...........
	59	0.8	9.39237E-001	1.01018E-004	0.00000E+000	9.48797E-005	5.99601E-002	9.39499E-001	3.57630E+000	9	...........
	60	0.813333	9.44058E-001	1.01390E-004	0.00000E+000	9.57178E-005	5.99601E-002	9.44346E-001	3.57630E+000	9	...........
	61	0.826667	9.48877E-001	1.01342E-004	0.00000E+000	9.61610E-005	5.99601E-002	9.49120E-001	3.57630E+000	9	...........
	62	0.84	9.53564E-001	1.01413E-004	0.00000E+000	9.67035E-005	5.99601E-002	9.53818E-001	3.57630E+000	9	...........
	63	0.853333	9.58147E-001	1.01366E-004	0.00000E+000	9.71234E-005	5.99601E-002	9.58443E-001	3.57630E+000	9	...........
	64	0.866667	9.62683E-001	1.00600E-004	0.00000E+000	9.68460E-005	5.99601E-002	9.63015E-001	3.57630E+000	9	...........
	65	0.88	9.67144E-001	1.01303E-004	0.00000E+000	9.79749E-005	5.99601E-002	9.67470E-001	3.57630E+000	9	...........
	66	0.893333	9.71530E-001	1.01237E-004	0.00000E+000	9.83545E-005	5.99601E-002	9.71889E-001	3.57630E+000	9	...........
	67	0.906667	9.75856E-001	1.01617E-004	0.00000E+000	9.91635E-005	5.99601E-002	9.76204E-001	3.57630E+000	9	...........
	68	0.92	9.80100E-001	1.01533E-004	0.00000E+000	9.95120E-005	5.99601E-002	9.80410E-001	3.57630E+000	9	...........
	69	0.933333	9.84253E-001	1.01045E-004	0.00000E+000	9.94538E-005	5.99601E-002	9.84560E-001	3.57630E+000	9	...........
	70	0.946667	9.88279E-001	9.99562E-005	0.00000E+000	9.87846E-005	5.99601E-002	9.88612E-001	3.57630E+000	9	...........
	71	0.96	9.92273E-001	1.01279E-004	0.00000E+000	1.00497E-004	5.99601E-002	9.92579E-001	3.57630E+000	9	...........
	72	0.97333	9.96181E-001	1.00267E-004	0.00000E+000	9.98837E-005	5.99601E-002	9.96495E-001	3.57630E+000	9	...........
	73	0.98167	9.99316E-001	1.00963E-004	0.00000E+000	1.00894E-004	5.99601E-002	9.99629E-001	3.57630E+000	9	...........
STARTTIMEOFFSET	QUANT	1956.813	Start Time Offset (s)
