EXPLAIN
TAG	PWR800_CHARGE
TITLE	LABEL	PWR Cyclic Charge Discharge (Cell) - Charge Step	Test &Identifier
DATE	LABEL	12-7-2017	Date
TIME	LABEL	16:52:06	Time
NOTES	NOTES	2	&Notes...
	supercap test cell
	6M KOH
PSTAT	PSTAT	IFC5000-01520	Potentiostat
CAPACITY	QUANT	1.00000E-003	Capacity (A-hr)
CELLTYPE	SELECTOR	1	&Cell Type
WORKINGCONNECTION	SELECTOR	0	&Working Lead
MAXCHARGETIME	VARIABLEANDUNITS	1.00000E+002	s	1.00000E+002	second(s)	Max &Charge Time
CHARGECURRENT	QUANT	1.00000E-004	&Charge Current (A) 
VOLTAGEFINISH	TWOPARAM	F	1.00000E-003	3.60000E+003	&Voltage Finish	 I (A) < 	Max Time(s)
SAMPLETIME	QUANT	1.00000E-002	Sa&mple Period (s)
CHARGESTOPAT1	MULTIPARAM	4	1.00000E+000	Charge Stop At &1	Voltage > Limit	V
CHARGESTOPAT2	MULTIPARAM	0	0.00000E+000	Charge Stop At &2	None	N/A
AESBHCSELECTOR	TOGGLE	F	Save Both Half Cells
IRCOMP	TOGGLE	F	IR &Measure
EOC	QUANT	0	Open Circuit (V)
SEQUENCER	TOGGLE	TRUE	Run as Sequence
PSTATMODEL	IQUANT	53	Pstat Model
PSTATSECTION	LABEL	IFC5000-01520	Pstat Section
PSTATSERIALNO	LABEL	01520	Pstat Serial Number
CTRLMODE	IQUANT	0	Control Mode
ELECTROMETER	IQUANT	1	RE=0 or CS=1
IESTAB	IQUANT	0	I/E Stability
CASPEED	IQUANT	4	Control Amp Speed
CONVENTION	IQUANT	1	Current Convention
ICHRANGE	IQUANT	2	Ich Range
ICHRANGEMODE	TOGGLE	T	Ich Auto Range
ICHOFFSETENABLE	TOGGLE	F	Ich Offset Enable
ICHOFFSET	QUANT	0	Ich Offset (V)
ICHFILTER	IQUANT	1	Ich Filter
VCHRANGE	IQUANT	2	Vch Range
VCHRANGEMODE	TOGGLE	T	Vch Auto Range
VCHOFFSETENABLE	TOGGLE	F	Vch Offset Enable
VCHOFFSET	QUANT	0	Vch Offset (V)
VCHFILTER	IQUANT	1	Vch Filter
IERANGELOWERLIMIT	IQUANT	9	I/E Range Lower Limit
IERANGEMODE	TOGGLE	F	I/E AutoRange
IERANGE	IQUANT	9	I/E Range
ACHSELECT	IQUANT	1	Ach Select
ACHRANGE	IQUANT	2	Ach Range
ACHOFFSETENABLE	TOGGLE	F	Ach Offset Enable
ACHOFFSET	QUANT	0	Ach Offset (V)
ACHFILTER	IQUANT	1	Ach Filter
CABLEID	IQUANT	14	Cable ID
DCCALDATE	LABEL	5-7-2017	DC Calibration Date
ACCALDATE	LABEL	12/3/2015	AC Calibration Date
FRAMEWORKVERSION	QUANT	7.01	Framework Version
INSTRUMENTVERSION	LABEL	4.00	Instrument Version
CURVE	TABLE	74
	Pt	T	Vf	Im	Vu	Pwr	Sig	Ach	Temp	IERange	Over
	#	s	V	A	V	W	V	V	deg C	#	bits
	0	0.013333	2.58322E-001	1.01479E-004	0.00000E+000	2.62143E-005	5.99601E-002	2.58398E-001	3.57650E+000	9	...........
	1	0.026667	2.81444E-001	1.00147E-004	0.00000E+000	2.81857E-005	5.99601E-002	2.81502E-001	3.57650E+000	9	...........
	2	0.04	3.03326E-001	1.00884E-004	0.00000E+000	3.06009E-005	5.99601E-002	3.03392E-001	3.57650E+000	9	...........
	3	0.053333	3.24322E-001	9.98728E-005	0.00000E+000	3.23909E-005	5.99601E-002	3.24387E-001	3.57650E+000	9	...........
	4	0.066667	3.44608E-001	1.01130E-004	0.00000E+000	3.48503E-005	5.99601E-002	3.44680E-001	3.57650E+000	9	...........
	5	0.08	3.64295E-001	1.00554E-004	0.00000E+000	3.66314E-005	5.99601E-002	3.64368E-001	3.57650E+000	9	...........
	6	0.093333	3.83461E-001	1.00413E-004	0.00000E+000	3.85043E-005	5.99601E-002	3.83536E-001	3.57650E+000	9	...........
	7	0.106667	4.02153E-001	1.00956E-004	0.00000E+000	4.05999E-005	5.99601E-002	4.02228E-001	3.57650E+000	9	...........
	8	0.12	4.20404E-001	1.01346E-004	0.00000E+000	4.26063E-005	5.99601E-002	4.20489E-001	3.57650E+000	9	...........
	9	0.133333	4.38257E-001	9.99166E-005	0.00000E+000	4.37891E-005	5.99601E-002	4.38344E-001	3.57650E+000	9	...........
	10	0.146667	4.55708E-001	1.01430E-004	0.00000E+000	4.62226E-005	5.99601E-002	4.55798E-001	3.57650E+000	9	...........
	11	0.16	4.72782E-001	1.00947E-004	0.00000E+000	4.77259E-005	5.99601E-002	4.72875E-001	3.57650E+000	9	...........
	12	0.173333	4.89482E-001	1.00567E-004	0.00000E+000	4.92256E-005	5.99601E-002	4.89582E-001	3.57650E+000	9	...........
	13	0.186667	5.05820E-001	1.01433E-004	0.00000E+000	5.13066E-005	5.99601E-002	5.05925E-001	3.57650E+000	9	...........
	14	0.2	5.21802E-001	1.01276E-004	0.00000E+000	5.28462E-005	5.99601E-002	5.21910E-001	3.57650E+000	9	...........
	15	0.213333	5.37255E-001	1.00643E-004	0.00000E+000	5.40708E-005	5.99601E-002	5.37399E-001	3.57650E+000	9	...........
	16	0.226667	5.52431E-001	1.00058E-004	0.00000E+000	5.52752E-005	5.99601E-002	5.52629E-001	3.57650E+000	9	...........
	17	0.24	5.67381E-001	1.00672E-004	0.00000E+000	5.71194E-005	5.99601E-002	5.67587E-001	3.57650E+000	9	...........
	18	0.253333	5.81959E-001	1.00801E-004	0.00000E+000	5.86621E-005	5.99601E-002	5.82181E-001	3.57650E+000	9	...........
	19	0.266667	5.96223E-001	1.00787E-004	0.00000E+000	6.00913E-005	5.99601E-002	5.96465E-001	3.57650E+000	9	...........
	20	0.28	6.10126E-001	1.01337E-004	0.00000E+000	6.18281E-005	5.99601E-002	6.10378E-001	3.57650E+000	9	...........
	21	0.293333	6.23766E-001	1.01070E-004	0.00000E+000	6.30440E-005	5.99601E-002	6.23964E-001	3.57650E+000	9	...........
	22	0.306667	6.36996E-001	1.02064E-004	0.00000E+000	6.50143E-005	5.99601E-002	6.37234E-001	3.57650E+000	9	...........
	23	0.32	6.49952E-001	9.99916E-005	0.00000E+000	6.49897E-005	5.99601E-002	6.50189E-001	3.57650E+000	9	...........
	24	0.333333	6.62565E-001	1.01429E-004	0.00000E+000	6.72036E-005	5.99601E-002	6.62809E-001	3.57650E+000	9	...........
	25	0.346667	6.74868E-001	1.00902E-004	0.00000E+000	6.80957E-005	5.99601E-002	6.75114E-001	3.57650E+000	9	...........
	26	0.36	6.86829E-001	1.01087E-004	0.00000E+000	6.94292E-005	5.99601E-002	6.87070E-001	3.57650E+000	9	...........
	27	0.373333	6.98516E-001	1.01689E-004	0.00000E+000	7.10313E-005	5.99601E-002	6.98730E-001	3.57650E+000	9	...........
	28	0.386667	7.09864E-001	1.00850E-004	0.00000E+000	7.15898E-005	5.99601E-002	7.10101E-001	3.57650E+000	9	...........
	29	0.4	7.20933E-001	1.01316E-004	0.00000E+000	7.30419E-005	5.99601E-002	7.21158E-001	3.57650E+000	9	...........
	30	0.413333	7.31672E-001	1.00886E-004	0.00000E+000	7.38151E-005	5.99601E-002	7.31919E-001	3.57650E+000	9	...........
	31	0.426667	7.42104E-001	1.00592E-004	0.00000E+000	7.46496E-005	5.99601E-002	7.42359E-001	3.57650E+000	9	...........
	32	0.44	7.52312E-001	1.01209E-004	0.00000E+000	7.61404E-005	5.99601E-002	7.52544E-001	3.57650E+000	9	...........
	33	0.453333	7.62192E-001	1.01555E-004	0.00000E+000	7.74047E-005	5.99601E-002	7.62425E-001	3.57650E+000	9	...........
	34	0.466667	7.71803E-001	9.98259E-005	0.00000E+000	7.70459E-005	5.99601E-002	7.72050E-001	3.57650E+000	9	...........
	35	0.48	7.81125E-001	1.00518E-004	0.00000E+000	7.85169E-005	5.99601E-002	7.81391E-001	3.57650E+000	9	...........
	36	0.493333	7.90165E-001	1.00247E-004	0.00000E+000	7.92115E-005	5.99601E-002	7.90429E-001	3.57650E+000	9	...........
	37	0.506667	7.98973E-001	1.01450E-004	0.00000E+000	8.10560E-005	5.99601E-002	7.99199E-001	3.57650E+000	9	...........
	38	0.52	8.07465E-001	1.02636E-004	0.00000E+000	8.28749E-005	5.99601E-002	8.07686E-001	3.57650E+000	9	...........
	39	0.533333	8.15689E-001	1.00433E-004	0.00000E+000	8.19224E-005	5.99601E-002	8.15948E-001	3.57650E+000	9	...........
	40	0.546667	8.23695E-001	1.00335E-004	0.00000E+000	8.26457E-005	5.99601E-002	8.23955E-001	3.57650E+000	9	...........
	41	0.56	8.31405E-001	1.00243E-004	0.00000E+000	8.33423E-005	5.99601E-002	8.31695E-001	3.57650E+000	9	...........
	42	0.573333	8.38884E-001	1.02437E-004	0.00000E+000	8.59327E-005	5.99601E-002	8.39185E-001	3.57650E+000	9	...........
	43	0.586667	8.46140E-001	1.00547E-004	0.00000E+000	8.50768E-005	5.99601E-002	8.46460E-001	3.57650E+000	9	...........
	44	0.6	8.53171E-001	1.00496E-004	0.00000E+000	8.57401E-005	5.99601E-002	8.53467E-001	3.57650E+000	9	...........
	45	0.613333	8.59988E-001	1.01441E-004	0.00000E+000	8.72379E-005	5.99601E-002	8.60303E-001	3.57650E+000	9	...........
	46	0.626667	8.66583E-001	9.96717E-005	0.00000E+000	8.63738E-005	5.99601E-002	8.66924E-001	3.57650E+000	9	...........
	47	0.64	8.73025E-001	1.00802E-004	0.00000E+000	8.80029E-005	5.99601E-002	8.73336E-001	3.57650E+000	9	...........
	48	0.653333	8.79254E-001	1.00753E-004	0.00000E+000	8.85877E-005	5.99601E-002	8.79543E-001	3.57650E+000	9	...........
	49	0.666667	8.85327E-001	1.01643E-004	0.00000E+000	8.99873E-005	5.99601E-002	8.85614E-001	3.57650E+000	9	...........
	50	0.68	8.91225E-001	1.02009E-004	0.00000E+000	9.09126E-005	5.99601E-002	8.91482E-001	3.57650E+000	9	...........
	51	0.693333	8.96959E-001	1.01154E-004	0.00000E+000	9.07313E-005	5.99601E-002	8.97263E-001	3.57650E+000	9	...........
	52	0.706667	9.02554E-001	1.00762E-004	0.00000E+000	9.09427E-005	5.99601E-002	9.02864E-001	3.57650E+000	9	...........
	53	0.72	9.08025E-001	1.02168E-004	0.00000E+000	9.27711E-005	5.99601E-002	9.08344E-001	3.57650E+000	9	...........
	54	0.733333	9.13418E-001	1.00532E-004	0.00000E+000	9.18280E-005	5.99601E-002	9.13708E-001	3.57650E+000	9	...........
	55	0.746667	9.18673E-001	1.02049E-004	0.00000E+000	9.37500E-005	5.99601E-002	9.18980E-001	3.57650E+000	9	...........
	56	0.76	9.23849E-001	1.00083E-004	0.00000E+000	9.24618E-005	5.99601E-002	9.24143E-001	3.57650E+000	9	...........
	57	0.773333	9.28916E-001	1.00903E-004	0.00000E+000	9.37306E-005	5.99601E-002	9.29206E-001	3.57650E+000	9	...........
	58	0.786667	9.33888E-001	1.00903E-004	0.00000E+000	9.42323E-005	5.99601E-002	9.34198E-001	3.57650E+000	9	...........
	59	0.8	9.38773E-001	1.00123E-004	0.00000E+000	9.39927E-005	5.99601E-002	9.39083E-001	3.57650E+000	9	...........
	60	0.813333	9.43568E-001	1.01051E-004	0.00000E+000	9.53486E-005	5.99601E-002	9.43878E-001	3.57650E+000	9	...........
	61	0.826667	9.48352E-001	1.00024E-004	0.00000E+000	9.48579E-005	5.99601E-002	9.48649E-001	3.57650E+000	9	...........
	62	0.84	9.53011E-001	1.01751E-004	0.00000E+000	9.69702E-005	5.99601E-002	9.53321E-001	3.57650E+000	9	...........
	63	0.853333	9.57585E-001	1.00948E-004	0.00000E+000	9.66664E-005	5.99601E-002	9.57926E-001	3.57650E+000	9	...........
	64	0.866667	9.62087E-001	1.00700E-004	0.00000E+000	9.68822E-005	5.99601E-002	9.62446E-001	3.57650E+000	9	...........
	65	0.88	9.66512E-001	1.01957E-004	0.00000E+000	9.85423E-005	5.99601E-002	9.66879E-001	3.57650E+000	9	...........
	66	0.893333	9.70904E-001	1.01864E-004	0.00000E+000	9.89000E-005	5.99601E-002	9.71276E-001	3.57650E+000	9	...........
	67	0.906667	9.75238E-001	1.00977E-004	0.00000E+000	9.84768E-005	5.99601E-002	9.75561E-001	3.57650E+000	9	...........
	68	0.92	9.79441E-001	1.00742E-004	0.00000E+000	9.86706E-005	5.99601E-002	9.79770E-001	3.57650E+000	9	...........
	69	0.933333	9.83560E-001	1.01005E-004	0.00000E+000	9.93448E-005	5.99601E-002	9.83861E-001	3.57650E+000	9	...........
	70	0.946667	9.87614E-001	9.99218E-005	0.00000E+000	9.86842E-005	5.99601E-002	9.87939E-001	3.57650E+000	9	...........
	71	0.96	9.91570E-001	1.01363E-004	0.00000E+000	1.00508E-004	5.99601E-002	9.91876E-001	3.57650E+000	9	...........
	72	0.97333	9.95451E-001	1.00850E-004	0.00000E+000	1.00391E-004	5.99601E-002	9.95767E-001	3.57676E+000	9	...........
	73	0.985	9.99026E-001	1.01897E-004	0.00000E+000	1.01798E-004	5.99601E-002	9.99335E-001	3.57680E+000	9	...........
STARTTIMEOFFSET	QUANT	1792.504	Start Time Offset (s)
