EXPLAIN
TAG	PWR800_CHARGE
TITLE	LABEL	PWR Cyclic Charge Discharge (Cell) - Charge Step	Test &Identifier
DATE	LABEL	12-7-2017	Date
TIME	LABEL	16:30:31	Time
NOTES	NOTES	2	&Notes...
	supercap test cell
	6M KOH
PSTAT	PSTAT	IFC5000-01520	Potentiostat
CAPACITY	QUANT	1.00000E-003	Capacity (A-hr)
CELLTYPE	SELECTOR	1	&Cell Type
WORKINGCONNECTION	SELECTOR	0	&Working Lead
MAXCHARGETIME	VARIABLEANDUNITS	1.00000E+002	s	1.00000E+002	second(s)	Max &Charge Time
CHARGECURRENT	QUANT	1.00000E-004	&Charge Current (A) 
VOLTAGEFINISH	TWOPARAM	F	1.00000E-003	3.60000E+003	&Voltage Finish	 I (A) < 	Max Time(s)
SAMPLETIME	QUANT	1.00000E-002	Sa&mple Period (s)
CHARGESTOPAT1	MULTIPARAM	4	1.00000E+000	Charge Stop At &1	Voltage > Limit	V
CHARGESTOPAT2	MULTIPARAM	0	0.00000E+000	Charge Stop At &2	None	N/A
AESBHCSELECTOR	TOGGLE	F	Save Both Half Cells
IRCOMP	TOGGLE	F	IR &Measure
EOC	QUANT	0	Open Circuit (V)
SEQUENCER	TOGGLE	TRUE	Run as Sequence
PSTATMODEL	IQUANT	53	Pstat Model
PSTATSECTION	LABEL	IFC5000-01520	Pstat Section
PSTATSERIALNO	LABEL	01520	Pstat Serial Number
CTRLMODE	IQUANT	0	Control Mode
ELECTROMETER	IQUANT	1	RE=0 or CS=1
IESTAB	IQUANT	0	I/E Stability
CASPEED	IQUANT	4	Control Amp Speed
CONVENTION	IQUANT	1	Current Convention
ICHRANGE	IQUANT	2	Ich Range
ICHRANGEMODE	TOGGLE	T	Ich Auto Range
ICHOFFSETENABLE	TOGGLE	F	Ich Offset Enable
ICHOFFSET	QUANT	0	Ich Offset (V)
ICHFILTER	IQUANT	1	Ich Filter
VCHRANGE	IQUANT	2	Vch Range
VCHRANGEMODE	TOGGLE	T	Vch Auto Range
VCHOFFSETENABLE	TOGGLE	F	Vch Offset Enable
VCHOFFSET	QUANT	0	Vch Offset (V)
VCHFILTER	IQUANT	1	Vch Filter
IERANGELOWERLIMIT	IQUANT	9	I/E Range Lower Limit
IERANGEMODE	TOGGLE	F	I/E AutoRange
IERANGE	IQUANT	9	I/E Range
ACHSELECT	IQUANT	1	Ach Select
ACHRANGE	IQUANT	2	Ach Range
ACHOFFSETENABLE	TOGGLE	F	Ach Offset Enable
ACHOFFSET	QUANT	0	Ach Offset (V)
ACHFILTER	IQUANT	1	Ach Filter
CABLEID	IQUANT	14	Cable ID
DCCALDATE	LABEL	5-7-2017	DC Calibration Date
ACCALDATE	LABEL	12/3/2015	AC Calibration Date
FRAMEWORKVERSION	QUANT	7.01	Framework Version
INSTRUMENTVERSION	LABEL	4.00	Instrument Version
CURVE	TABLE	77
	Pt	T	Vf	Im	Vu	Pwr	Sig	Ach	Temp	IERange	Over
	#	s	V	A	V	W	V	V	deg C	#	bits
	0	0.013333	2.57804E-001	1.01661E-004	0.00000E+000	2.62086E-005	5.99601E-002	2.57880E-001	3.57740E+000	9	...........
	1	0.026667	2.80712E-001	1.00448E-004	0.00000E+000	2.81969E-005	5.99601E-002	2.80773E-001	3.57740E+000	9	...........
	2	0.04	3.02287E-001	1.01321E-004	0.00000E+000	3.06280E-005	5.99601E-002	3.02356E-001	3.57740E+000	9	...........
	3	0.053333	3.22898E-001	1.01977E-004	0.00000E+000	3.29283E-005	5.99601E-002	3.22970E-001	3.57740E+000	9	...........
	4	0.066667	3.42738E-001	1.02283E-004	0.00000E+000	3.50561E-005	5.99601E-002	3.42809E-001	3.57740E+000	9	...........
	5	0.08	3.61939E-001	1.01313E-004	0.00000E+000	3.66690E-005	5.99601E-002	3.62012E-001	3.57740E+000	9	...........
	6	0.093333	3.80591E-001	1.01443E-004	0.00000E+000	3.86083E-005	5.99601E-002	3.80669E-001	3.57740E+000	9	...........
	7	0.106667	3.98745E-001	1.01246E-004	0.00000E+000	4.03713E-005	5.99601E-002	3.98833E-001	3.57740E+000	9	...........
	8	0.12	4.16439E-001	1.01451E-004	0.00000E+000	4.22483E-005	5.99601E-002	4.16532E-001	3.57740E+000	9	...........
	9	0.133333	4.33722E-001	1.01029E-004	0.00000E+000	4.38187E-005	5.99601E-002	4.33814E-001	3.57740E+000	9	...........
	10	0.146667	4.50601E-001	9.93946E-005	0.00000E+000	4.47873E-005	5.99601E-002	4.50701E-001	3.57740E+000	9	...........
	11	0.16	4.67111E-001	1.00961E-004	0.00000E+000	4.71598E-005	5.99601E-002	4.67212E-001	3.57740E+000	9	...........
	12	0.173333	4.83264E-001	1.02553E-004	0.00000E+000	4.95599E-005	5.99601E-002	4.83367E-001	3.57740E+000	9	...........
	13	0.186667	4.99059E-001	1.02561E-004	0.00000E+000	5.11839E-005	5.99601E-002	4.99168E-001	3.57740E+000	9	...........
	14	0.2	5.14523E-001	1.01234E-004	0.00000E+000	5.20870E-005	5.99601E-002	5.14631E-001	3.57740E+000	9	...........
	15	0.213333	5.29604E-001	1.01821E-004	0.00000E+000	5.39249E-005	5.99601E-002	5.29710E-001	3.57740E+000	9	...........
	16	0.226667	5.44166E-001	1.00787E-004	0.00000E+000	5.48446E-005	5.99601E-002	5.44414E-001	3.57725E+000	9	...........
	17	0.24	5.58673E-001	1.02042E-004	0.00000E+000	5.70081E-005	5.99601E-002	5.58907E-001	3.57720E+000	9	...........
	18	0.253333	5.72874E-001	1.01125E-004	0.00000E+000	5.79320E-005	5.99601E-002	5.73133E-001	3.57720E+000	9	...........
	19	0.266667	5.86753E-001	1.01603E-004	0.00000E+000	5.96161E-005	5.99601E-002	5.87032E-001	3.57720E+000	9	...........
	20	0.28	6.00346E-001	9.99833E-005	0.00000E+000	6.00245E-005	5.99601E-002	6.00625E-001	3.57720E+000	9	...........
	21	0.293333	6.13677E-001	1.00525E-004	0.00000E+000	6.16899E-005	5.99601E-002	6.13956E-001	3.57720E+000	9	...........
	22	0.306667	6.26731E-001	1.00629E-004	0.00000E+000	6.30674E-005	5.99601E-002	6.26963E-001	3.57720E+000	9	...........
	23	0.32	6.39445E-001	1.01794E-004	0.00000E+000	6.50917E-005	5.99601E-002	6.39728E-001	3.57720E+000	9	...........
	24	0.333333	6.51922E-001	1.01604E-004	0.00000E+000	6.62382E-005	5.99601E-002	6.52166E-001	3.57720E+000	9	...........
	25	0.346667	6.64087E-001	1.00545E-004	0.00000E+000	6.67705E-005	5.99601E-002	6.64323E-001	3.57720E+000	9	...........
	26	0.36	6.75988E-001	1.01412E-004	0.00000E+000	6.85530E-005	5.99601E-002	6.76229E-001	3.57720E+000	9	...........
	27	0.373333	6.87593E-001	1.00971E-004	0.00000E+000	6.94269E-005	5.99601E-002	6.87838E-001	3.57720E+000	9	...........
	28	0.386667	6.98938E-001	1.00528E-004	0.00000E+000	7.02630E-005	5.99601E-002	6.99180E-001	3.57720E+000	9	...........
	29	0.4	7.09985E-001	1.01900E-004	0.00000E+000	7.23477E-005	5.99601E-002	7.10210E-001	3.57720E+000	9	...........
	30	0.413333	7.20819E-001	1.00497E-004	0.00000E+000	7.24401E-005	5.99601E-002	7.21028E-001	3.57720E+000	9	...........
	31	0.426667	7.31334E-001	1.00989E-004	0.00000E+000	7.38565E-005	5.99601E-002	7.31559E-001	3.57720E+000	9	...........
	32	0.44	7.41596E-001	1.00563E-004	0.00000E+000	7.45767E-005	5.99601E-002	7.41841E-001	3.57720E+000	9	...........
	33	0.453333	7.51633E-001	1.02035E-004	0.00000E+000	7.66927E-005	5.99601E-002	7.51840E-001	3.57720E+000	9	...........
	34	0.466667	7.61358E-001	9.96217E-005	0.00000E+000	7.58478E-005	5.99601E-002	7.61594E-001	3.57720E+000	9	...........
	35	0.48	7.70848E-001	1.01556E-004	0.00000E+000	7.82846E-005	5.99601E-002	7.71096E-001	3.57720E+000	9	...........
	36	0.493333	7.80067E-001	1.00141E-004	0.00000E+000	7.81164E-005	5.99601E-002	7.80325E-001	3.57720E+000	9	...........
	37	0.506667	7.89056E-001	1.00764E-004	0.00000E+000	7.95081E-005	5.99601E-002	7.89295E-001	3.57720E+000	9	...........
	38	0.52	7.97806E-001	1.01070E-004	0.00000E+000	8.06342E-005	5.99601E-002	7.98031E-001	3.57720E+000	9	...........
	39	0.533333	8.06289E-001	1.02258E-004	0.00000E+000	8.24493E-005	5.99601E-002	8.06532E-001	3.57720E+000	9	...........
	40	0.546667	8.14484E-001	1.00831E-004	0.00000E+000	8.21255E-005	5.99601E-002	8.14771E-001	3.57720E+000	9	...........
	41	0.56	8.22517E-001	1.01630E-004	0.00000E+000	8.35928E-005	5.99601E-002	8.22803E-001	3.57720E+000	9	...........
	42	0.573333	8.30251E-001	1.01007E-004	0.00000E+000	8.38615E-005	5.99601E-002	8.30561E-001	3.57720E+000	9	...........
	43	0.586667	8.37760E-001	1.01227E-004	0.00000E+000	8.48041E-005	5.99601E-002	8.38091E-001	3.57720E+000	9	...........
	44	0.6	8.45094E-001	1.01311E-004	0.00000E+000	8.56170E-005	5.99601E-002	8.45408E-001	3.57720E+000	9	...........
	45	0.613333	8.52146E-001	1.00236E-004	0.00000E+000	8.54161E-005	5.99601E-002	8.52474E-001	3.57720E+000	9	...........
	46	0.626667	8.59003E-001	9.99218E-005	0.00000E+000	8.58331E-005	5.99601E-002	8.59332E-001	3.57720E+000	9	...........
	47	0.64	8.65639E-001	1.00964E-004	0.00000E+000	8.73981E-005	5.99601E-002	8.65983E-001	3.57720E+000	9	...........
	48	0.653333	8.72101E-001	1.00847E-004	0.00000E+000	8.79488E-005	5.99601E-002	8.72434E-001	3.57720E+000	9	...........
	49	0.666667	8.78321E-001	1.01378E-004	0.00000E+000	8.90427E-005	5.99601E-002	8.78659E-001	3.57720E+000	9	...........
	50	0.68	8.84386E-001	1.01129E-004	0.00000E+000	8.94374E-005	5.99601E-002	8.84731E-001	3.57720E+000	9	...........
	51	0.693333	8.90253E-001	1.00948E-004	0.00000E+000	8.98693E-005	5.99601E-002	8.90592E-001	3.57720E+000	9	...........
	52	0.706667	8.95978E-001	1.00695E-004	0.00000E+000	9.02203E-005	5.99601E-002	8.96342E-001	3.57720E+000	9	...........
	53	0.72	9.01546E-001	1.01127E-004	0.00000E+000	9.11709E-005	5.99601E-002	9.01872E-001	3.57720E+000	9	...........
	54	0.733333	9.06943E-001	1.00952E-004	0.00000E+000	9.15579E-005	5.99601E-002	9.07305E-001	3.57720E+000	9	...........
	55	0.746667	9.12262E-001	1.00848E-004	0.00000E+000	9.19999E-005	5.99601E-002	9.12560E-001	3.57720E+000	9	...........
	56	0.76	9.17388E-001	1.02803E-004	0.00000E+000	9.43099E-005	5.99601E-002	9.17735E-001	3.57720E+000	9	...........
	57	0.773333	9.22476E-001	1.01079E-004	0.00000E+000	9.32433E-005	5.99601E-002	9.22802E-001	3.57720E+000	9	...........
	58	0.786667	9.27414E-001	1.01215E-004	0.00000E+000	9.38680E-005	5.99601E-002	9.27758E-001	3.57720E+000	9	...........
	59	0.8	9.32235E-001	1.01936E-004	0.00000E+000	9.50280E-005	5.99601E-002	9.32557E-001	3.57720E+000	9	...........
	60	0.813333	9.36966E-001	1.01327E-004	0.00000E+000	9.49403E-005	5.99601E-002	9.37309E-001	3.57720E+000	9	...........
	61	0.826667	9.41604E-001	1.00522E-004	0.00000E+000	9.46519E-005	5.99601E-002	9.41945E-001	3.57720E+000	9	...........
	62	0.84	9.46180E-001	1.00781E-004	0.00000E+000	9.53573E-005	5.99601E-002	9.46525E-001	3.57720E+000	9	...........
	63	0.853333	9.50690E-001	1.01863E-004	0.00000E+000	9.68400E-005	5.99601E-002	9.51033E-001	3.57720E+000	9	...........
	64	0.866667	9.55072E-001	1.00453E-004	0.00000E+000	9.59400E-005	5.99601E-002	9.55421E-001	3.57720E+000	9	...........
	65	0.88	9.59407E-001	1.01789E-004	0.00000E+000	9.76570E-005	5.99601E-002	9.59754E-001	3.57720E+000	9	...........
	66	0.893333	9.63640E-001	1.01060E-004	0.00000E+000	9.73850E-005	5.99601E-002	9.63999E-001	3.57720E+000	9	...........
	67	0.906667	9.67797E-001	1.01520E-004	0.00000E+000	9.82507E-005	5.99601E-002	9.68169E-001	3.57720E+000	9	...........
	68	0.92	9.71911E-001	1.01876E-004	0.00000E+000	9.90147E-005	5.99601E-002	9.72296E-001	3.57720E+000	9	...........
	69	0.933333	9.75947E-001	1.00815E-004	0.00000E+000	9.83898E-005	5.99601E-002	9.76328E-001	3.57720E+000	9	...........
	70	0.946667	9.79894E-001	1.00739E-004	0.00000E+000	9.87131E-005	5.99601E-002	9.80274E-001	3.57720E+000	9	...........
	71	0.96	9.83741E-001	1.00971E-004	0.00000E+000	9.93293E-005	5.99601E-002	9.84125E-001	3.57720E+000	9	...........
	72	0.97333	9.87513E-001	1.01863E-004	0.00000E+000	1.00591E-004	5.99601E-002	9.87929E-001	3.57720E+000	9	...........
	73	0.98667	9.91215E-001	1.00684E-004	0.00000E+000	9.98000E-005	5.99601E-002	9.91587E-001	3.57720E+000	9	...........
	74	1	9.94825E-001	1.01427E-004	0.00000E+000	1.00902E-004	5.99601E-002	9.95206E-001	3.57720E+000	9	...........
	75	1.01333	9.98380E-001	1.01217E-004	0.00000E+000	1.01053E-004	5.99601E-002	9.98754E-001	3.57720E+000	9	...........
	76	1.015	1.00032E+000	1.02965E-004	0.00000E+000	1.02998E-004	5.99601E-002	1.00072E+000	3.57720E+000	9	...........
STARTTIMEOFFSET	QUANT	875.5953	Start Time Offset (s)
