EXPLAIN
TAG	PWR800_CHARGE
TITLE	LABEL	PWR Cyclic Charge Discharge (Cell) - Charge Step	Test &Identifier
DATE	LABEL	12-7-2017	Date
TIME	LABEL	16:48:13	Time
NOTES	NOTES	2	&Notes...
	supercap test cell
	6M KOH
PSTAT	PSTAT	IFC5000-01520	Potentiostat
CAPACITY	QUANT	1.00000E-003	Capacity (A-hr)
CELLTYPE	SELECTOR	1	&Cell Type
WORKINGCONNECTION	SELECTOR	0	&Working Lead
MAXCHARGETIME	VARIABLEANDUNITS	1.00000E+002	s	1.00000E+002	second(s)	Max &Charge Time
CHARGECURRENT	QUANT	1.00000E-004	&Charge Current (A) 
VOLTAGEFINISH	TWOPARAM	F	1.00000E-003	3.60000E+003	&Voltage Finish	 I (A) < 	Max Time(s)
SAMPLETIME	QUANT	1.00000E-002	Sa&mple Period (s)
CHARGESTOPAT1	MULTIPARAM	4	1.00000E+000	Charge Stop At &1	Voltage > Limit	V
CHARGESTOPAT2	MULTIPARAM	0	0.00000E+000	Charge Stop At &2	None	N/A
AESBHCSELECTOR	TOGGLE	F	Save Both Half Cells
IRCOMP	TOGGLE	F	IR &Measure
EOC	QUANT	0	Open Circuit (V)
SEQUENCER	TOGGLE	TRUE	Run as Sequence
PSTATMODEL	IQUANT	53	Pstat Model
PSTATSECTION	LABEL	IFC5000-01520	Pstat Section
PSTATSERIALNO	LABEL	01520	Pstat Serial Number
CTRLMODE	IQUANT	0	Control Mode
ELECTROMETER	IQUANT	1	RE=0 or CS=1
IESTAB	IQUANT	0	I/E Stability
CASPEED	IQUANT	4	Control Amp Speed
CONVENTION	IQUANT	1	Current Convention
ICHRANGE	IQUANT	2	Ich Range
ICHRANGEMODE	TOGGLE	T	Ich Auto Range
ICHOFFSETENABLE	TOGGLE	F	Ich Offset Enable
ICHOFFSET	QUANT	0	Ich Offset (V)
ICHFILTER	IQUANT	1	Ich Filter
VCHRANGE	IQUANT	2	Vch Range
VCHRANGEMODE	TOGGLE	T	Vch Auto Range
VCHOFFSETENABLE	TOGGLE	F	Vch Offset Enable
VCHOFFSET	QUANT	0	Vch Offset (V)
VCHFILTER	IQUANT	1	Vch Filter
IERANGELOWERLIMIT	IQUANT	9	I/E Range Lower Limit
IERANGEMODE	TOGGLE	F	I/E AutoRange
IERANGE	IQUANT	9	I/E Range
ACHSELECT	IQUANT	1	Ach Select
ACHRANGE	IQUANT	2	Ach Range
ACHOFFSETENABLE	TOGGLE	F	Ach Offset Enable
ACHOFFSET	QUANT	0	Ach Offset (V)
ACHFILTER	IQUANT	1	Ach Filter
CABLEID	IQUANT	14	Cable ID
DCCALDATE	LABEL	5-7-2017	DC Calibration Date
ACCALDATE	LABEL	12/3/2015	AC Calibration Date
FRAMEWORKVERSION	QUANT	7.01	Framework Version
INSTRUMENTVERSION	LABEL	4.00	Instrument Version
CURVE	TABLE	75
	Pt	T	Vf	Im	Vu	Pwr	Sig	Ach	Temp	IERange	Over
	#	s	V	A	V	W	V	V	deg C	#	bits
	0	0.013333	2.59011E-001	9.98957E-005	0.00000E+000	2.58741E-005	5.99601E-002	2.59076E-001	3.57650E+000	9	...........
	1	0.026667	2.82054E-001	1.00434E-004	0.00000E+000	2.83280E-005	5.99601E-002	2.82112E-001	3.57650E+000	9	...........
	2	0.04	3.03854E-001	1.01525E-004	0.00000E+000	3.08489E-005	5.99601E-002	3.03917E-001	3.57650E+000	9	...........
	3	0.053333	3.24766E-001	1.00533E-004	0.00000E+000	3.26498E-005	5.99601E-002	3.24831E-001	3.57650E+000	9	...........
	4	0.066667	3.44962E-001	1.00869E-004	0.00000E+000	3.47959E-005	5.99601E-002	3.45027E-001	3.57650E+000	9	...........
	5	0.08	3.64555E-001	1.00365E-004	0.00000E+000	3.65885E-005	5.99601E-002	3.64633E-001	3.57650E+000	9	...........
	6	0.093333	3.83637E-001	1.01242E-004	0.00000E+000	3.88401E-005	5.99601E-002	3.83716E-001	3.57650E+000	9	...........
	7	0.106667	4.02253E-001	1.00466E-004	0.00000E+000	4.04126E-005	5.99601E-002	4.02332E-001	3.57650E+000	9	...........
	8	0.12	4.20418E-001	9.99812E-005	0.00000E+000	4.20338E-005	5.99601E-002	4.20504E-001	3.57650E+000	9	...........
	9	0.133333	4.38179E-001	1.01552E-004	0.00000E+000	4.44981E-005	5.99601E-002	4.38272E-001	3.57650E+000	9	...........
	10	0.146667	4.55550E-001	1.00301E-004	0.00000E+000	4.56921E-005	5.99601E-002	4.55645E-001	3.57650E+000	9	...........
	11	0.16	4.72542E-001	1.00931E-004	0.00000E+000	4.76943E-005	5.99601E-002	4.72646E-001	3.57650E+000	9	...........
	12	0.173333	4.89170E-001	1.01496E-004	0.00000E+000	4.96488E-005	5.99601E-002	4.89273E-001	3.57650E+000	9	...........
	13	0.186667	5.05426E-001	1.00236E-004	0.00000E+000	5.06621E-005	5.99601E-002	5.05538E-001	3.57650E+000	9	...........
	14	0.2	5.21337E-001	1.02394E-004	0.00000E+000	5.33819E-005	5.99601E-002	5.21455E-001	3.57650E+000	9	...........
	15	0.213333	5.36722E-001	1.01781E-004	0.00000E+000	5.46278E-005	5.99601E-002	5.36904E-001	3.57650E+000	9	...........
	16	0.226667	5.51834E-001	1.00559E-004	0.00000E+000	5.54921E-005	5.99601E-002	5.52064E-001	3.57650E+000	9	...........
	17	0.24	5.66718E-001	1.01740E-004	0.00000E+000	5.76579E-005	5.99601E-002	5.66948E-001	3.57650E+000	9	...........
	18	0.253333	5.81225E-001	1.00902E-004	0.00000E+000	5.86469E-005	5.99601E-002	5.81495E-001	3.57650E+000	9	...........
	19	0.266667	5.95450E-001	1.00887E-004	0.00000E+000	6.00729E-005	5.99601E-002	5.95707E-001	3.57650E+000	9	...........
	20	0.28	6.09302E-001	1.01754E-004	0.00000E+000	6.19992E-005	5.99601E-002	6.09571E-001	3.57650E+000	9	...........
	21	0.293333	6.22887E-001	1.00764E-004	0.00000E+000	6.27643E-005	5.99601E-002	6.23116E-001	3.57650E+000	9	...........
	22	0.306667	6.36093E-001	1.00819E-004	0.00000E+000	6.41301E-005	5.99601E-002	6.36349E-001	3.57650E+000	9	...........
	23	0.32	6.49000E-001	1.01157E-004	0.00000E+000	6.56512E-005	5.99601E-002	6.49257E-001	3.57650E+000	9	...........
	24	0.333333	6.61581E-001	1.00453E-004	0.00000E+000	6.64579E-005	5.99601E-002	6.61808E-001	3.57650E+000	9	...........
	25	0.346667	6.73847E-001	1.01272E-004	0.00000E+000	6.82419E-005	5.99601E-002	6.74080E-001	3.57650E+000	9	...........
	26	0.36	6.85775E-001	1.02982E-004	0.00000E+000	7.06223E-005	5.99601E-002	6.86008E-001	3.57650E+000	9	...........
	27	0.373333	6.97423E-001	1.00997E-004	0.00000E+000	7.04376E-005	5.99601E-002	6.97664E-001	3.57650E+000	9	...........
	28	0.386667	7.08736E-001	1.01295E-004	0.00000E+000	7.17914E-005	5.99601E-002	7.08996E-001	3.57650E+000	9	...........
	29	0.4	7.19822E-001	9.87997E-005	0.00000E+000	7.11182E-005	5.99601E-002	7.20044E-001	3.57650E+000	9	...........
	30	0.413333	7.30540E-001	1.00720E-004	0.00000E+000	7.35799E-005	5.99601E-002	7.30795E-001	3.57650E+000	9	...........
	31	0.426667	7.40990E-001	1.02307E-004	0.00000E+000	7.58082E-005	5.99601E-002	7.41255E-001	3.57650E+000	9	...........
	32	0.44	7.51162E-001	1.01071E-004	0.00000E+000	7.59206E-005	5.99601E-002	7.51427E-001	3.57650E+000	9	...........
	33	0.453333	7.61036E-001	9.95696E-005	0.00000E+000	7.57761E-005	5.99601E-002	7.61291E-001	3.57650E+000	9	...........
	34	0.466667	7.70669E-001	1.00466E-004	0.00000E+000	7.74257E-005	5.99601E-002	7.70910E-001	3.57650E+000	9	...........
	35	0.48	7.79986E-001	1.01302E-004	0.00000E+000	7.90144E-005	5.99601E-002	7.80241E-001	3.57650E+000	9	...........
	36	0.493333	7.89023E-001	9.96426E-005	0.00000E+000	7.86203E-005	5.99601E-002	7.89291E-001	3.57650E+000	9	...........
	37	0.506667	7.97816E-001	1.01272E-004	0.00000E+000	8.07965E-005	5.99601E-002	7.98083E-001	3.57650E+000	9	...........
	38	0.52	8.06341E-001	1.01180E-004	0.00000E+000	8.15859E-005	5.99601E-002	8.06621E-001	3.57650E+000	9	...........
	39	0.533333	8.14569E-001	1.01363E-004	0.00000E+000	8.25669E-005	5.99601E-002	8.14852E-001	3.57650E+000	9	...........
	40	0.546667	8.22593E-001	1.01285E-004	0.00000E+000	8.33160E-005	5.99601E-002	8.22873E-001	3.57650E+000	9	...........
	41	0.56	8.30330E-001	1.01149E-004	0.00000E+000	8.39871E-005	5.99601E-002	8.30612E-001	3.57650E+000	9	...........
	42	0.573333	8.37817E-001	1.00726E-004	0.00000E+000	8.43901E-005	5.99601E-002	8.38121E-001	3.57650E+000	9	...........
	43	0.586667	8.45093E-001	1.01306E-004	0.00000E+000	8.56133E-005	5.99601E-002	8.45387E-001	3.57650E+000	9	...........
	44	0.6	8.52136E-001	1.00593E-004	0.00000E+000	8.57188E-005	5.99601E-002	8.52439E-001	3.57650E+000	9	...........
	45	0.613333	8.58956E-001	1.00677E-004	0.00000E+000	8.64773E-005	5.99601E-002	8.59269E-001	3.57650E+000	9	...........
	46	0.626667	8.65564E-001	1.01364E-004	0.00000E+000	8.77368E-005	5.99601E-002	8.65858E-001	3.57650E+000	9	...........
	47	0.64	8.72005E-001	9.89153E-005	0.00000E+000	8.62547E-005	5.99601E-002	8.72291E-001	3.57650E+000	9	...........
	48	0.653333	8.78225E-001	1.01030E-004	0.00000E+000	8.87274E-005	5.99601E-002	8.78523E-001	3.57650E+000	9	...........
	49	0.666667	8.84278E-001	1.01727E-004	0.00000E+000	8.99553E-005	5.99601E-002	8.84583E-001	3.57650E+000	9	...........
	50	0.68	8.90195E-001	1.01597E-004	0.00000E+000	9.04413E-005	5.99601E-002	8.90478E-001	3.57650E+000	9	...........
	51	0.693333	8.95915E-001	1.00764E-004	0.00000E+000	9.02757E-005	5.99601E-002	8.96240E-001	3.57650E+000	9	...........
	52	0.706667	9.01528E-001	1.01422E-004	0.00000E+000	9.14349E-005	5.99601E-002	9.01829E-001	3.57650E+000	9	...........
	53	0.72	9.06989E-001	1.01229E-004	0.00000E+000	9.18139E-005	5.99601E-002	9.07304E-001	3.57650E+000	9	...........
	54	0.733333	9.12356E-001	1.01637E-004	0.00000E+000	9.27289E-005	5.99601E-002	9.12613E-001	3.57650E+000	9	...........
	55	0.746667	9.17607E-001	1.00272E-004	0.00000E+000	9.20101E-005	5.99601E-002	9.17859E-001	3.57650E+000	9	...........
	56	0.76	9.22786E-001	1.00999E-004	0.00000E+000	9.32006E-005	5.99601E-002	9.22985E-001	3.57650E+000	9	...........
	57	0.773333	9.27823E-001	1.00902E-004	0.00000E+000	9.36194E-005	5.99601E-002	9.28037E-001	3.57650E+000	9	...........
	58	0.786667	9.32791E-001	1.00469E-004	0.00000E+000	9.37164E-005	5.99601E-002	9.32983E-001	3.57650E+000	9	...........
	59	0.8	9.37623E-001	9.95926E-005	0.00000E+000	9.33803E-005	5.99601E-002	9.37864E-001	3.57650E+000	9	...........
	60	0.813333	9.42421E-001	1.02890E-004	0.00000E+000	9.69658E-005	5.99601E-002	9.42669E-001	3.57650E+000	9	...........
	61	0.826667	9.47168E-001	1.00692E-004	0.00000E+000	9.53720E-005	5.99601E-002	9.47411E-001	3.57650E+000	9	...........
	62	0.84	9.51813E-001	9.99468E-005	0.00000E+000	9.51307E-005	5.99601E-002	9.52075E-001	3.57650E+000	9	...........
	63	0.853333	9.56362E-001	1.01260E-004	0.00000E+000	9.68408E-005	5.99601E-002	9.56643E-001	3.57650E+000	9	...........
	64	0.866667	9.60862E-001	1.01455E-004	0.00000E+000	9.74846E-005	5.99601E-002	9.61161E-001	3.57650E+000	9	...........
	65	0.88	9.65283E-001	1.00802E-004	0.00000E+000	9.73026E-005	5.99601E-002	9.65579E-001	3.57650E+000	9	...........
	66	0.893333	9.69606E-001	1.00975E-004	0.00000E+000	9.79061E-005	5.99601E-002	9.69946E-001	3.57650E+000	9	...........
	67	0.906667	9.73939E-001	1.01484E-004	0.00000E+000	9.88388E-005	5.99601E-002	9.74233E-001	3.57650E+000	9	...........
	68	0.92	9.78125E-001	1.01129E-004	0.00000E+000	9.89172E-005	5.99601E-002	9.78429E-001	3.57650E+000	9	...........
	69	0.933333	9.82229E-001	1.02214E-004	0.00000E+000	1.00398E-004	5.99601E-002	9.82546E-001	3.57685E+000	9	...........
	70	0.946667	9.86251E-001	1.01323E-004	0.00000E+000	9.99300E-005	5.99601E-002	9.86605E-001	3.57790E+000	9	...........
	71	0.96	9.90212E-001	1.01218E-004	0.00000E+000	1.00227E-004	5.99601E-002	9.90535E-001	3.57790E+000	9	...........
	72	0.97333	9.94054E-001	1.00386E-004	0.00000E+000	9.97896E-005	5.99601E-002	9.94372E-001	3.57790E+000	9	...........
	73	0.98667	9.97844E-001	1.00613E-004	0.00000E+000	1.00396E-004	5.99601E-002	9.98177E-001	3.57790E+000	9	...........
	74	0.99	1.00017E+000	1.01506E-004	0.00000E+000	1.01524E-004	5.99601E-002	1.00045E+000	3.57790E+000	9	...........
STARTTIMEOFFSET	QUANT	1627.61	Start Time Offset (s)
