EXPLAIN
TAG	PWR800_CHARGE
TITLE	LABEL	PWR Cyclic Charge Discharge (Cell) - Charge Step	Test &Identifier
DATE	LABEL	12-7-2017	Date
TIME	LABEL	16:15:08	Time
NOTES	NOTES	2	&Notes...
	supercap test cell
	6M KOH
PSTAT	PSTAT	IFC5000-01520	Potentiostat
CAPACITY	QUANT	1.00000E-003	Capacity (A-hr)
CELLTYPE	SELECTOR	1	&Cell Type
WORKINGCONNECTION	SELECTOR	0	&Working Lead
MAXCHARGETIME	VARIABLEANDUNITS	1.00000E+002	s	1.00000E+002	second(s)	Max &Charge Time
CHARGECURRENT	QUANT	1.00000E-004	&Charge Current (A) 
VOLTAGEFINISH	TWOPARAM	F	1.00000E-003	3.60000E+003	&Voltage Finish	 I (A) < 	Max Time(s)
SAMPLETIME	QUANT	1.00000E-002	Sa&mple Period (s)
CHARGESTOPAT1	MULTIPARAM	4	1.00000E+000	Charge Stop At &1	Voltage > Limit	V
CHARGESTOPAT2	MULTIPARAM	0	0.00000E+000	Charge Stop At &2	None	N/A
AESBHCSELECTOR	TOGGLE	F	Save Both Half Cells
IRCOMP	TOGGLE	F	IR &Measure
EOC	QUANT	0	Open Circuit (V)
SEQUENCER	TOGGLE	TRUE	Run as Sequence
PSTATMODEL	IQUANT	53	Pstat Model
PSTATSECTION	LABEL	IFC5000-01520	Pstat Section
PSTATSERIALNO	LABEL	01520	Pstat Serial Number
CTRLMODE	IQUANT	0	Control Mode
ELECTROMETER	IQUANT	1	RE=0 or CS=1
IESTAB	IQUANT	0	I/E Stability
CASPEED	IQUANT	4	Control Amp Speed
CONVENTION	IQUANT	1	Current Convention
ICHRANGE	IQUANT	2	Ich Range
ICHRANGEMODE	TOGGLE	T	Ich Auto Range
ICHOFFSETENABLE	TOGGLE	F	Ich Offset Enable
ICHOFFSET	QUANT	0	Ich Offset (V)
ICHFILTER	IQUANT	1	Ich Filter
VCHRANGE	IQUANT	2	Vch Range
VCHRANGEMODE	TOGGLE	T	Vch Auto Range
VCHOFFSETENABLE	TOGGLE	F	Vch Offset Enable
VCHOFFSET	QUANT	0	Vch Offset (V)
VCHFILTER	IQUANT	1	Vch Filter
IERANGELOWERLIMIT	IQUANT	9	I/E Range Lower Limit
IERANGEMODE	TOGGLE	F	I/E AutoRange
IERANGE	IQUANT	9	I/E Range
ACHSELECT	IQUANT	1	Ach Select
ACHRANGE	IQUANT	2	Ach Range
ACHOFFSETENABLE	TOGGLE	F	Ach Offset Enable
ACHOFFSET	QUANT	0	Ach Offset (V)
ACHFILTER	IQUANT	1	Ach Filter
CABLEID	IQUANT	14	Cable ID
DCCALDATE	LABEL	5-7-2017	DC Calibration Date
ACCALDATE	LABEL	12/3/2015	AC Calibration Date
FRAMEWORKVERSION	QUANT	7.01	Framework Version
INSTRUMENTVERSION	LABEL	4.00	Instrument Version
CURVE	TABLE	80
	Pt	T	Vf	Im	Vu	Pwr	Sig	Ach	Temp	IERange	Over
	#	s	V	A	V	W	V	V	deg C	#	bits
	0	0.013333	2.59297E-001	1.00368E-004	0.00000E+000	2.60250E-005	5.99601E-002	2.59382E-001	3.57820E+000	9	...........
	1	0.026667	2.82074E-001	1.00965E-004	0.00000E+000	2.84796E-005	5.99601E-002	2.82135E-001	3.57820E+000	9	...........
	2	0.04	3.03250E-001	1.01123E-004	0.00000E+000	3.06656E-005	5.99601E-002	3.03313E-001	3.57820E+000	9	...........
	3	0.053333	3.23237E-001	1.00748E-004	0.00000E+000	3.25655E-005	5.99601E-002	3.23303E-001	3.57820E+000	9	...........
	4	0.066667	3.42227E-001	1.00906E-004	0.00000E+000	3.45329E-005	5.99601E-002	3.42299E-001	3.57820E+000	9	...........
	5	0.08	3.60387E-001	1.00170E-004	0.00000E+000	3.60999E-005	5.99601E-002	3.60454E-001	3.57820E+000	9	...........
	6	0.093333	3.77837E-001	1.02024E-004	0.00000E+000	3.85486E-005	5.99601E-002	3.77909E-001	3.57820E+000	9	...........
	7	0.106667	3.94669E-001	1.00195E-004	0.00000E+000	3.95438E-005	5.99601E-002	3.94750E-001	3.57820E+000	9	...........
	8	0.12	4.10967E-001	1.00925E-004	0.00000E+000	4.14768E-005	5.99601E-002	4.11050E-001	3.57820E+000	9	...........
	9	0.133333	4.26787E-001	1.00748E-004	0.00000E+000	4.29980E-005	5.99601E-002	4.26876E-001	3.57820E+000	9	...........
	10	0.146667	4.42182E-001	1.01261E-004	0.00000E+000	4.47756E-005	5.99601E-002	4.42278E-001	3.57820E+000	9	...........
	11	0.16	4.57181E-001	1.00842E-004	0.00000E+000	4.61029E-005	5.99601E-002	4.57280E-001	3.57820E+000	9	...........
	12	0.173333	4.71826E-001	1.00683E-004	0.00000E+000	4.75050E-005	5.99601E-002	4.71925E-001	3.57820E+000	9	...........
	13	0.186667	4.86144E-001	1.01210E-004	0.00000E+000	4.92025E-005	5.99601E-002	4.86252E-001	3.57820E+000	9	...........
	14	0.2	5.00161E-001	1.00838E-004	0.00000E+000	5.04350E-005	5.99601E-002	5.00268E-001	3.57820E+000	9	...........
	15	0.213333	5.13880E-001	1.00035E-004	0.00000E+000	5.14062E-005	5.99601E-002	5.13995E-001	3.57820E+000	9	...........
	16	0.226667	5.27338E-001	1.00592E-004	0.00000E+000	5.30458E-005	5.99601E-002	5.27456E-001	3.57820E+000	9	...........
	17	0.24	5.40227E-001	1.00998E-004	0.00000E+000	5.45619E-005	5.99601E-002	5.40466E-001	3.57820E+000	9	...........
	18	0.253333	5.53188E-001	1.00614E-004	0.00000E+000	5.56583E-005	5.99601E-002	5.53431E-001	3.57820E+000	9	...........
	19	0.266667	5.65943E-001	1.00995E-004	0.00000E+000	5.71574E-005	5.99601E-002	5.66180E-001	3.57820E+000	9	...........
	20	0.28	5.78429E-001	1.00879E-004	0.00000E+000	5.83515E-005	5.99601E-002	5.78667E-001	3.57820E+000	9	...........
	21	0.293333	5.90722E-001	1.01409E-004	0.00000E+000	5.99043E-005	5.99601E-002	5.90965E-001	3.57820E+000	9	...........
	22	0.306667	6.02797E-001	1.01098E-004	0.00000E+000	6.09416E-005	5.99601E-002	6.03052E-001	3.57820E+000	9	...........
	23	0.32	6.14675E-001	1.00547E-004	0.00000E+000	6.18037E-005	5.99601E-002	6.14929E-001	3.57820E+000	9	...........
	24	0.333333	6.26373E-001	1.00297E-004	0.00000E+000	6.28232E-005	5.99601E-002	6.26604E-001	3.57820E+000	9	...........
	25	0.346667	6.37836E-001	1.00251E-004	0.00000E+000	6.39437E-005	5.99601E-002	6.38091E-001	3.57820E+000	9	...........
	26	0.36	6.49143E-001	1.01243E-004	0.00000E+000	6.57211E-005	5.99601E-002	6.49379E-001	3.57820E+000	9	...........
	27	0.373333	6.60217E-001	1.00495E-004	0.00000E+000	6.63484E-005	5.99601E-002	6.60450E-001	3.57820E+000	9	...........
	28	0.386667	6.71149E-001	1.01451E-004	0.00000E+000	6.80890E-005	5.99601E-002	6.71367E-001	3.57820E+000	9	...........
	29	0.4	6.81856E-001	1.01642E-004	0.00000E+000	6.93052E-005	5.99601E-002	6.82093E-001	3.57820E+000	9	...........
	30	0.413333	6.92381E-001	1.01503E-004	0.00000E+000	7.02790E-005	5.99601E-002	6.92639E-001	3.57820E+000	9	...........
	31	0.426667	7.02744E-001	1.01297E-004	0.00000E+000	7.11859E-005	5.99601E-002	7.03000E-001	3.57820E+000	9	...........
	32	0.44	7.12920E-001	9.91477E-005	0.00000E+000	7.06843E-005	5.99601E-002	7.13148E-001	3.57820E+000	9	...........
	33	0.453333	7.22919E-001	1.00993E-004	0.00000E+000	7.30096E-005	5.99601E-002	7.23161E-001	3.57820E+000	9	...........
	34	0.466667	7.32722E-001	1.00768E-004	0.00000E+000	7.38348E-005	5.99601E-002	7.32956E-001	3.57820E+000	9	...........
	35	0.48	7.42330E-001	1.00625E-004	0.00000E+000	7.46970E-005	5.99601E-002	7.42583E-001	3.57820E+000	9	...........
	36	0.493333	7.51761E-001	1.01130E-004	0.00000E+000	7.60258E-005	5.99601E-002	7.51999E-001	3.57820E+000	9	...........
	37	0.506667	7.60991E-001	1.02230E-004	0.00000E+000	7.77958E-005	5.99601E-002	7.61231E-001	3.57820E+000	9	...........
	38	0.52	7.70039E-001	1.01105E-004	0.00000E+000	7.78550E-005	5.99601E-002	7.70297E-001	3.57820E+000	9	...........
	39	0.533333	7.78904E-001	1.01231E-004	0.00000E+000	7.88496E-005	5.99601E-002	7.79161E-001	3.57820E+000	9	...........
	40	0.546667	7.87573E-001	1.00806E-004	0.00000E+000	7.93923E-005	5.99601E-002	7.87814E-001	3.57820E+000	9	...........
	41	0.56	7.96084E-001	1.00911E-004	0.00000E+000	8.03333E-005	5.99601E-002	7.96351E-001	3.57820E+000	9	...........
	42	0.573333	8.04345E-001	1.00861E-004	0.00000E+000	8.11267E-005	5.99601E-002	8.04658E-001	3.57820E+000	9	...........
	43	0.586667	8.12448E-001	1.00725E-004	0.00000E+000	8.18339E-005	5.99601E-002	8.12750E-001	3.57820E+000	9	...........
	44	0.6	8.20363E-001	1.01207E-004	0.00000E+000	8.30269E-005	5.99601E-002	8.20707E-001	3.57820E+000	9	...........
	45	0.613333	8.28086E-001	1.00396E-004	0.00000E+000	8.31364E-005	5.99601E-002	8.28417E-001	3.57876E+000	9	...........
	46	0.626667	8.35622E-001	1.00371E-004	0.00000E+000	8.38720E-005	5.99601E-002	8.35967E-001	3.57950E+000	9	...........
	47	0.64	8.43009E-001	1.01188E-004	0.00000E+000	8.53021E-005	5.99601E-002	8.43336E-001	3.57950E+000	9	...........
	48	0.653333	8.50182E-001	1.00207E-004	0.00000E+000	8.51944E-005	5.99601E-002	8.50528E-001	3.57950E+000	9	...........
	49	0.666667	8.57189E-001	1.00806E-004	0.00000E+000	8.64101E-005	5.99601E-002	8.57516E-001	3.57950E+000	9	...........
	50	0.68	8.64021E-001	1.00774E-004	0.00000E+000	8.70709E-005	5.99601E-002	8.64346E-001	3.57950E+000	9	...........
	51	0.693333	8.70667E-001	1.00584E-004	0.00000E+000	8.75755E-005	5.99601E-002	8.71016E-001	3.57950E+000	9	...........
	52	0.706667	8.77134E-001	1.00675E-004	0.00000E+000	8.83056E-005	5.99601E-002	8.77478E-001	3.57950E+000	9	...........
	53	0.72	8.83425E-001	1.01027E-004	0.00000E+000	8.92500E-005	5.99601E-002	8.83781E-001	3.57950E+000	9	...........
	54	0.733333	8.89551E-001	1.00826E-004	0.00000E+000	8.96900E-005	5.99601E-002	8.89879E-001	3.57950E+000	9	...........
	55	0.746667	8.95477E-001	1.01239E-004	0.00000E+000	9.06570E-005	5.99601E-002	8.95810E-001	3.57950E+000	9	...........
	56	0.76	9.01275E-001	1.01190E-004	0.00000E+000	9.11997E-005	5.99601E-002	9.01595E-001	3.57950E+000	9	...........
	57	0.773333	9.06887E-001	1.01352E-004	0.00000E+000	9.19150E-005	5.99601E-002	9.07234E-001	3.57950E+000	9	...........
	58	0.786667	9.12339E-001	1.01140E-004	0.00000E+000	9.22737E-005	5.99601E-002	9.12653E-001	3.57950E+000	9	...........
	59	0.8	9.17617E-001	1.00429E-004	0.00000E+000	9.21555E-005	5.99601E-002	9.17962E-001	3.57950E+000	9	...........
	60	0.813333	9.22828E-001	1.00385E-004	0.00000E+000	9.26384E-005	5.99601E-002	9.23128E-001	3.57950E+000	9	...........
	61	0.826667	9.27819E-001	1.00562E-004	0.00000E+000	9.33029E-005	5.99601E-002	9.28129E-001	3.57950E+000	9	...........
	62	0.84	9.32687E-001	1.01458E-004	0.00000E+000	9.46282E-005	5.99601E-002	9.32977E-001	3.57950E+000	9	...........
	63	0.853333	9.37418E-001	1.01043E-004	0.00000E+000	9.47194E-005	5.99601E-002	9.37731E-001	3.57950E+000	9	...........
	64	0.866667	9.42026E-001	1.01901E-004	0.00000E+000	9.59937E-005	5.99601E-002	9.42338E-001	3.57950E+000	9	...........
	65	0.88	9.46539E-001	1.00680E-004	0.00000E+000	9.52978E-005	5.99601E-002	9.46873E-001	3.57950E+000	9	...........
	66	0.893333	9.50925E-001	1.00514E-004	0.00000E+000	9.55809E-005	5.99601E-002	9.51264E-001	3.57950E+000	9	...........
	67	0.906667	9.55204E-001	1.00703E-004	0.00000E+000	9.61922E-005	5.99601E-002	9.55520E-001	3.57950E+000	9	...........
	68	0.92	9.59369E-001	1.01537E-004	0.00000E+000	9.74111E-005	5.99601E-002	9.59726E-001	3.57950E+000	9	...........
	69	0.933333	9.63455E-001	1.00828E-004	0.00000E+000	9.71435E-005	5.99601E-002	9.63803E-001	3.57950E+000	9	...........
	70	0.946667	9.67435E-001	1.00890E-004	0.00000E+000	9.76042E-005	5.99601E-002	9.67770E-001	3.57950E+000	9	...........
	71	0.96	9.71318E-001	1.01113E-004	0.00000E+000	9.82125E-005	5.99601E-002	9.71679E-001	3.57950E+000	9	...........
	72	0.97333	9.75166E-001	1.00582E-004	0.00000E+000	9.80844E-005	5.99601E-002	9.75493E-001	3.57950E+000	9	...........
	73	0.98667	9.78891E-001	1.01100E-004	0.00000E+000	9.89660E-005	5.99601E-002	9.79216E-001	3.57950E+000	9	...........
	74	1	9.82521E-001	1.01025E-004	0.00000E+000	9.92593E-005	5.99601E-002	9.82844E-001	3.57950E+000	9	...........
	75	1.01333	9.86051E-001	1.00997E-004	0.00000E+000	9.95882E-005	5.99601E-002	9.86415E-001	3.57950E+000	9	...........
	76	1.02667	9.89532E-001	1.01016E-004	0.00000E+000	9.99583E-005	5.99601E-002	9.89884E-001	3.57950E+000	9	...........
	77	1.04	9.92903E-001	1.00347E-004	0.00000E+000	9.96348E-005	5.99601E-002	9.93255E-001	3.57950E+000	9	...........
	78	1.05333	9.96205E-001	1.00249E-004	0.00000E+000	9.98685E-005	5.99601E-002	9.96527E-001	3.57950E+000	9	...........
	79	1.065	9.99206E-001	1.01354E-004	0.00000E+000	1.01274E-004	5.99601E-002	9.99563E-001	3.57950E+000	9	...........
STARTTIMEOFFSET	QUANT	216.4383	Start Time Offset (s)
