EXPLAIN
TAG	PWR800_CHARGE
TITLE	LABEL	PWR Cyclic Charge Discharge (Cell) - Charge Step	Test &Identifier
DATE	LABEL	12-7-2017	Date
TIME	LABEL	16:21:14	Time
NOTES	NOTES	2	&Notes...
	supercap test cell
	6M KOH
PSTAT	PSTAT	IFC5000-01520	Potentiostat
CAPACITY	QUANT	1.00000E-003	Capacity (A-hr)
CELLTYPE	SELECTOR	1	&Cell Type
WORKINGCONNECTION	SELECTOR	0	&Working Lead
MAXCHARGETIME	VARIABLEANDUNITS	1.00000E+002	s	1.00000E+002	second(s)	Max &Charge Time
CHARGECURRENT	QUANT	1.00000E-004	&Charge Current (A) 
VOLTAGEFINISH	TWOPARAM	F	1.00000E-003	3.60000E+003	&Voltage Finish	 I (A) < 	Max Time(s)
SAMPLETIME	QUANT	1.00000E-002	Sa&mple Period (s)
CHARGESTOPAT1	MULTIPARAM	4	1.00000E+000	Charge Stop At &1	Voltage > Limit	V
CHARGESTOPAT2	MULTIPARAM	0	0.00000E+000	Charge Stop At &2	None	N/A
AESBHCSELECTOR	TOGGLE	F	Save Both Half Cells
IRCOMP	TOGGLE	F	IR &Measure
EOC	QUANT	0	Open Circuit (V)
SEQUENCER	TOGGLE	TRUE	Run as Sequence
PSTATMODEL	IQUANT	53	Pstat Model
PSTATSECTION	LABEL	IFC5000-01520	Pstat Section
PSTATSERIALNO	LABEL	01520	Pstat Serial Number
CTRLMODE	IQUANT	0	Control Mode
ELECTROMETER	IQUANT	1	RE=0 or CS=1
IESTAB	IQUANT	0	I/E Stability
CASPEED	IQUANT	4	Control Amp Speed
CONVENTION	IQUANT	1	Current Convention
ICHRANGE	IQUANT	2	Ich Range
ICHRANGEMODE	TOGGLE	T	Ich Auto Range
ICHOFFSETENABLE	TOGGLE	F	Ich Offset Enable
ICHOFFSET	QUANT	0	Ich Offset (V)
ICHFILTER	IQUANT	1	Ich Filter
VCHRANGE	IQUANT	2	Vch Range
VCHRANGEMODE	TOGGLE	T	Vch Auto Range
VCHOFFSETENABLE	TOGGLE	F	Vch Offset Enable
VCHOFFSET	QUANT	0	Vch Offset (V)
VCHFILTER	IQUANT	1	Vch Filter
IERANGELOWERLIMIT	IQUANT	9	I/E Range Lower Limit
IERANGEMODE	TOGGLE	F	I/E AutoRange
IERANGE	IQUANT	9	I/E Range
ACHSELECT	IQUANT	1	Ach Select
ACHRANGE	IQUANT	2	Ach Range
ACHOFFSETENABLE	TOGGLE	F	Ach Offset Enable
ACHOFFSET	QUANT	0	Ach Offset (V)
ACHFILTER	IQUANT	1	Ach Filter
CABLEID	IQUANT	14	Cable ID
DCCALDATE	LABEL	5-7-2017	DC Calibration Date
ACCALDATE	LABEL	12/3/2015	AC Calibration Date
FRAMEWORKVERSION	QUANT	7.01	Framework Version
INSTRUMENTVERSION	LABEL	4.00	Instrument Version
CURVE	TABLE	78
	Pt	T	Vf	Im	Vu	Pwr	Sig	Ach	Temp	IERange	Over
	#	s	V	A	V	W	V	V	deg C	#	bits
	0	0.013333	2.62490E-001	9.99020E-005	0.00000E+000	2.62233E-005	5.99601E-002	2.62553E-001	3.57840E+000	9	...........
	1	0.026667	2.85211E-001	1.00902E-004	0.00000E+000	2.87784E-005	5.99601E-002	2.85271E-001	3.57840E+000	9	...........
	2	0.04	3.06468E-001	1.01625E-004	0.00000E+000	3.11449E-005	5.99601E-002	3.06533E-001	3.57840E+000	9	...........
	3	0.053333	3.26647E-001	1.00535E-004	0.00000E+000	3.28396E-005	5.99601E-002	3.26714E-001	3.57840E+000	9	...........
	4	0.066667	3.45974E-001	1.00102E-004	0.00000E+000	3.46327E-005	5.99601E-002	3.46051E-001	3.57840E+000	9	...........
	5	0.08	3.64596E-001	1.01023E-004	0.00000E+000	3.68326E-005	5.99601E-002	3.64671E-001	3.57840E+000	9	...........
	6	0.093333	3.82601E-001	1.01286E-004	0.00000E+000	3.87520E-005	5.99601E-002	3.82683E-001	3.57840E+000	9	...........
	7	0.106667	4.00075E-001	1.01287E-004	0.00000E+000	4.05222E-005	5.99601E-002	4.00155E-001	3.57840E+000	9	...........
	8	0.12	4.17058E-001	1.00794E-004	0.00000E+000	4.20368E-005	5.99601E-002	4.17144E-001	3.57840E+000	9	...........
	9	0.133333	4.33610E-001	1.01728E-004	0.00000E+000	4.41104E-005	5.99601E-002	4.33704E-001	3.57840E+000	9	...........
	10	0.146667	4.49764E-001	1.00073E-004	0.00000E+000	4.50092E-005	5.99601E-002	4.49857E-001	3.57840E+000	9	...........
	11	0.16	4.65549E-001	1.01144E-004	0.00000E+000	4.70874E-005	5.99601E-002	4.65651E-001	3.57840E+000	9	...........
	12	0.173333	4.80988E-001	1.01572E-004	0.00000E+000	4.88550E-005	5.99601E-002	4.81092E-001	3.57840E+000	9	...........
	13	0.186667	4.96089E-001	1.01690E-004	0.00000E+000	5.04472E-005	5.99601E-002	4.96198E-001	3.57840E+000	9	...........
	14	0.2	5.10876E-001	1.00729E-004	0.00000E+000	5.14601E-005	5.99601E-002	5.10986E-001	3.57840E+000	9	...........
	15	0.213333	5.25357E-001	1.01320E-004	0.00000E+000	5.32292E-005	5.99601E-002	5.25472E-001	3.57840E+000	9	...........
	16	0.226667	5.39292E-001	1.00038E-004	0.00000E+000	5.39500E-005	5.99601E-002	5.39501E-001	3.57840E+000	9	...........
	17	0.24	5.53171E-001	1.01181E-004	0.00000E+000	5.59706E-005	5.99601E-002	5.53379E-001	3.57840E+000	9	...........
	18	0.253333	5.66835E-001	1.01318E-004	0.00000E+000	5.74305E-005	5.99601E-002	5.67041E-001	3.57840E+000	9	...........
	19	0.266667	5.80170E-001	1.01745E-004	0.00000E+000	5.90294E-005	5.99601E-002	5.80425E-001	3.57840E+000	9	...........
	20	0.28	5.93299E-001	1.00710E-004	0.00000E+000	5.97515E-005	5.99601E-002	5.93586E-001	3.57840E+000	9	...........
	21	0.293333	6.06162E-001	1.00357E-004	0.00000E+000	6.08327E-005	5.99601E-002	6.06438E-001	3.57840E+000	9	...........
	22	0.306667	6.18830E-001	1.01774E-004	0.00000E+000	6.29810E-005	5.99601E-002	6.19071E-001	3.57840E+000	9	...........
	23	0.32	6.31188E-001	1.01372E-004	0.00000E+000	6.39849E-005	5.99601E-002	6.31437E-001	3.57840E+000	9	...........
	24	0.333333	6.43315E-001	1.00285E-004	0.00000E+000	6.45151E-005	5.99601E-002	6.43557E-001	3.57840E+000	9	...........
	25	0.346667	6.55227E-001	1.00953E-004	0.00000E+000	6.61473E-005	5.99601E-002	6.55479E-001	3.57840E+000	9	...........
	26	0.36	6.66873E-001	1.01334E-004	0.00000E+000	6.75766E-005	5.99601E-002	6.67163E-001	3.57840E+000	9	...........
	27	0.373333	6.78310E-001	1.00385E-004	0.00000E+000	6.80924E-005	5.99601E-002	6.78558E-001	3.57840E+000	9	...........
	28	0.386667	6.89498E-001	1.01086E-004	0.00000E+000	6.96983E-005	5.99601E-002	6.89757E-001	3.57840E+000	9	...........
	29	0.4	7.00439E-001	1.02071E-004	0.00000E+000	7.14947E-005	5.99601E-002	7.00709E-001	3.57840E+000	9	...........
	30	0.413333	7.11142E-001	1.01728E-004	0.00000E+000	7.23433E-005	5.99601E-002	7.11396E-001	3.57840E+000	9	...........
	31	0.426667	7.21641E-001	1.01045E-004	0.00000E+000	7.29181E-005	5.99601E-002	7.21895E-001	3.57840E+000	9	...........
	32	0.44	7.31892E-001	1.01668E-004	0.00000E+000	7.44100E-005	5.99601E-002	7.32170E-001	3.57840E+000	9	...........
	33	0.453333	7.41931E-001	1.00880E-004	0.00000E+000	7.48462E-005	5.99601E-002	7.42211E-001	3.57735E+000	9	...........
	34	0.466667	7.51744E-001	1.00571E-004	0.00000E+000	7.56036E-005	5.99601E-002	7.51986E-001	3.57720E+000	9	...........
	35	0.48	7.61298E-001	1.00997E-004	0.00000E+000	7.68888E-005	5.99601E-002	7.61556E-001	3.57720E+000	9	...........
	36	0.493333	7.70661E-001	1.01188E-004	0.00000E+000	7.79814E-005	5.99601E-002	7.70902E-001	3.57720E+000	9	...........
	37	0.506667	7.79785E-001	1.00562E-004	0.00000E+000	7.84163E-005	5.99601E-002	7.80040E-001	3.57720E+000	9	...........
	38	0.52	7.88675E-001	1.01659E-004	0.00000E+000	8.01756E-005	5.99601E-002	7.88909E-001	3.57720E+000	9	...........
	39	0.533333	7.97360E-001	1.01141E-004	0.00000E+000	8.06456E-005	5.99601E-002	7.97608E-001	3.57720E+000	9	...........
	40	0.546667	8.05778E-001	1.01367E-004	0.00000E+000	8.16792E-005	5.99601E-002	8.06060E-001	3.57720E+000	9	...........
	41	0.56	8.14000E-001	1.00461E-004	0.00000E+000	8.17756E-005	5.99601E-002	8.14268E-001	3.57720E+000	9	...........
	42	0.573333	8.22035E-001	1.00325E-004	0.00000E+000	8.24707E-005	5.99601E-002	8.22338E-001	3.57720E+000	9	...........
	43	0.586667	8.29804E-001	1.02090E-004	0.00000E+000	8.47147E-005	5.99601E-002	8.30111E-001	3.57720E+000	9	...........
	44	0.6	8.37391E-001	1.00992E-004	0.00000E+000	8.45696E-005	5.99601E-002	8.37700E-001	3.57720E+000	9	...........
	45	0.613333	8.44771E-001	1.00716E-004	0.00000E+000	8.50817E-005	5.99601E-002	8.45088E-001	3.57720E+000	9	...........
	46	0.626667	8.51925E-001	1.01155E-004	0.00000E+000	8.61768E-005	5.99601E-002	8.52258E-001	3.57720E+000	9	...........
	47	0.64	8.58878E-001	9.96842E-005	0.00000E+000	8.56166E-005	5.99601E-002	8.59208E-001	3.57720E+000	9	...........
	48	0.653333	8.65613E-001	1.00986E-004	0.00000E+000	8.74144E-005	5.99601E-002	8.65948E-001	3.57720E+000	9	...........
	49	0.666667	8.72193E-001	1.00891E-004	0.00000E+000	8.79962E-005	5.99601E-002	8.72506E-001	3.57720E+000	9	...........
	50	0.68	8.78534E-001	1.00279E-004	0.00000E+000	8.80986E-005	5.99601E-002	8.78857E-001	3.57720E+000	9	...........
	51	0.693333	8.84695E-001	1.01366E-004	0.00000E+000	8.96778E-005	5.99601E-002	8.85029E-001	3.57720E+000	9	...........
	52	0.706667	8.90674E-001	1.01221E-004	0.00000E+000	9.01550E-005	5.99601E-002	8.90990E-001	3.57720E+000	9	...........
	53	0.72	8.96464E-001	1.01895E-004	0.00000E+000	9.13453E-005	5.99601E-002	8.96800E-001	3.57720E+000	9	...........
	54	0.733333	9.02107E-001	1.01736E-004	0.00000E+000	9.17765E-005	5.99601E-002	9.02448E-001	3.57720E+000	9	...........
	55	0.746667	9.07558E-001	1.01032E-004	0.00000E+000	9.16928E-005	5.99601E-002	9.07904E-001	3.57720E+000	9	...........
	56	0.76	9.12863E-001	1.01204E-004	0.00000E+000	9.23857E-005	5.99601E-002	9.13240E-001	3.57720E+000	9	...........
	57	0.773333	9.18041E-001	1.01111E-004	0.00000E+000	9.28236E-005	5.99601E-002	9.18415E-001	3.57720E+000	9	...........
	58	0.786667	9.23138E-001	1.00514E-004	0.00000E+000	9.27879E-005	5.99601E-002	9.23467E-001	3.57720E+000	9	...........
	59	0.8	9.28027E-001	1.01400E-004	0.00000E+000	9.41021E-005	5.99601E-002	9.28357E-001	3.57720E+000	9	...........
	60	0.813333	9.32799E-001	1.00722E-004	0.00000E+000	9.39533E-005	5.99601E-002	9.33137E-001	3.57720E+000	9	...........
	61	0.826667	9.37480E-001	1.00087E-004	0.00000E+000	9.38300E-005	5.99601E-002	9.37794E-001	3.57720E+000	9	...........
	62	0.84	9.42040E-001	1.01098E-004	0.00000E+000	9.52384E-005	5.99601E-002	9.42349E-001	3.57720E+000	9	...........
	63	0.853333	9.46526E-001	1.01121E-004	0.00000E+000	9.57137E-005	5.99601E-002	9.46834E-001	3.57720E+000	9	...........
	64	0.866667	9.50904E-001	1.01002E-004	0.00000E+000	9.60434E-005	5.99601E-002	9.51251E-001	3.57720E+000	9	...........
	65	0.88	9.55202E-001	1.01394E-004	0.00000E+000	9.68517E-005	5.99601E-002	9.55545E-001	3.57720E+000	9	...........
	66	0.893333	9.59391E-001	1.01745E-004	0.00000E+000	9.76133E-005	5.99601E-002	9.59744E-001	3.57720E+000	9	...........
	67	0.906667	9.63513E-001	1.01503E-004	0.00000E+000	9.77998E-005	5.99601E-002	9.63871E-001	3.57720E+000	9	...........
	68	0.92	9.67537E-001	1.00519E-004	0.00000E+000	9.72556E-005	5.99601E-002	9.67884E-001	3.57720E+000	9	...........
	69	0.933333	9.71527E-001	1.02369E-004	0.00000E+000	9.94544E-005	5.99601E-002	9.71865E-001	3.57720E+000	9	...........
	70	0.946667	9.75458E-001	1.00776E-004	0.00000E+000	9.83029E-005	5.99601E-002	9.75786E-001	3.57720E+000	9	...........
	71	0.96	9.79267E-001	1.01012E-004	0.00000E+000	9.89173E-005	5.99601E-002	9.79579E-001	3.57720E+000	9	...........
	72	0.97333	9.82987E-001	1.00216E-004	0.00000E+000	9.85107E-005	5.99601E-002	9.83307E-001	3.57720E+000	9	...........
	73	0.98667	9.86622E-001	1.01378E-004	0.00000E+000	1.00022E-004	5.99601E-002	9.86980E-001	3.57720E+000	9	...........
	74	1	9.90204E-001	1.00447E-004	0.00000E+000	9.94629E-005	5.99601E-002	9.90537E-001	3.57720E+000	9	...........
	75	1.01333	9.93647E-001	1.01230E-004	0.00000E+000	1.00587E-004	5.99601E-002	9.94020E-001	3.57720E+000	9	...........
	76	1.02667	9.97090E-001	1.01269E-004	0.00000E+000	1.00974E-004	5.99601E-002	9.97444E-001	3.57720E+000	9	...........
	77	1.03333	9.99556E-001	9.97624E-005	0.00000E+000	9.97181E-005	5.99601E-002	9.99930E-001	3.57720E+000	9	...........
STARTTIMEOFFSET	QUANT	478.1102	Start Time Offset (s)
