EXPLAIN
TAG	PWR800_CHARGE
TITLE	LABEL	PWR Cyclic Charge Discharge (Cell) - Charge Step	Test &Identifier
DATE	LABEL	12-7-2017	Date
TIME	LABEL	16:20:29	Time
NOTES	NOTES	2	&Notes...
	supercap test cell
	6M KOH
PSTAT	PSTAT	IFC5000-01520	Potentiostat
CAPACITY	QUANT	1.00000E-003	Capacity (A-hr)
CELLTYPE	SELECTOR	1	&Cell Type
WORKINGCONNECTION	SELECTOR	0	&Working Lead
MAXCHARGETIME	VARIABLEANDUNITS	1.00000E+002	s	1.00000E+002	second(s)	Max &Charge Time
CHARGECURRENT	QUANT	1.00000E-004	&Charge Current (A) 
VOLTAGEFINISH	TWOPARAM	F	1.00000E-003	3.60000E+003	&Voltage Finish	 I (A) < 	Max Time(s)
SAMPLETIME	QUANT	1.00000E-002	Sa&mple Period (s)
CHARGESTOPAT1	MULTIPARAM	4	1.00000E+000	Charge Stop At &1	Voltage > Limit	V
CHARGESTOPAT2	MULTIPARAM	0	0.00000E+000	Charge Stop At &2	None	N/A
AESBHCSELECTOR	TOGGLE	F	Save Both Half Cells
IRCOMP	TOGGLE	F	IR &Measure
EOC	QUANT	0	Open Circuit (V)
SEQUENCER	TOGGLE	TRUE	Run as Sequence
PSTATMODEL	IQUANT	53	Pstat Model
PSTATSECTION	LABEL	IFC5000-01520	Pstat Section
PSTATSERIALNO	LABEL	01520	Pstat Serial Number
CTRLMODE	IQUANT	0	Control Mode
ELECTROMETER	IQUANT	1	RE=0 or CS=1
IESTAB	IQUANT	0	I/E Stability
CASPEED	IQUANT	4	Control Amp Speed
CONVENTION	IQUANT	1	Current Convention
ICHRANGE	IQUANT	2	Ich Range
ICHRANGEMODE	TOGGLE	T	Ich Auto Range
ICHOFFSETENABLE	TOGGLE	F	Ich Offset Enable
ICHOFFSET	QUANT	0	Ich Offset (V)
ICHFILTER	IQUANT	1	Ich Filter
VCHRANGE	IQUANT	2	Vch Range
VCHRANGEMODE	TOGGLE	T	Vch Auto Range
VCHOFFSETENABLE	TOGGLE	F	Vch Offset Enable
VCHOFFSET	QUANT	0	Vch Offset (V)
VCHFILTER	IQUANT	1	Vch Filter
IERANGELOWERLIMIT	IQUANT	9	I/E Range Lower Limit
IERANGEMODE	TOGGLE	F	I/E AutoRange
IERANGE	IQUANT	9	I/E Range
ACHSELECT	IQUANT	1	Ach Select
ACHRANGE	IQUANT	2	Ach Range
ACHOFFSETENABLE	TOGGLE	F	Ach Offset Enable
ACHOFFSET	QUANT	0	Ach Offset (V)
ACHFILTER	IQUANT	1	Ach Filter
CABLEID	IQUANT	14	Cable ID
DCCALDATE	LABEL	5-7-2017	DC Calibration Date
ACCALDATE	LABEL	12/3/2015	AC Calibration Date
FRAMEWORKVERSION	QUANT	7.01	Framework Version
INSTRUMENTVERSION	LABEL	4.00	Instrument Version
CURVE	TABLE	78
	Pt	T	Vf	Im	Vu	Pwr	Sig	Ach	Temp	IERange	Over
	#	s	V	A	V	W	V	V	deg C	#	bits
	0	0.013333	2.63750E-001	1.00150E-004	0.00000E+000	2.64146E-005	5.99601E-002	2.63830E-001	3.57720E+000	9	...........
	1	0.026667	2.86408E-001	1.00739E-004	0.00000E+000	2.88524E-005	5.99601E-002	2.86473E-001	3.57720E+000	9	...........
	2	0.04	3.07592E-001	1.01045E-004	0.00000E+000	3.10806E-005	5.99601E-002	3.07657E-001	3.57720E+000	9	...........
	3	0.053333	3.27690E-001	1.01994E-004	0.00000E+000	3.34224E-005	5.99601E-002	3.27760E-001	3.57720E+000	9	...........
	4	0.066667	3.46922E-001	1.00518E-004	0.00000E+000	3.48718E-005	5.99601E-002	3.47000E-001	3.57720E+000	9	...........
	5	0.08	3.65445E-001	1.00647E-004	0.00000E+000	3.67809E-005	5.99601E-002	3.65523E-001	3.57720E+000	9	...........
	6	0.093333	3.83350E-001	1.01040E-004	0.00000E+000	3.87335E-005	5.99601E-002	3.83432E-001	3.57720E+000	9	...........
	7	0.106667	4.00718E-001	1.00848E-004	0.00000E+000	4.04116E-005	5.99601E-002	4.00800E-001	3.57720E+000	9	...........
	8	0.12	4.17605E-001	1.01973E-004	0.00000E+000	4.25846E-005	5.99601E-002	4.17692E-001	3.57720E+000	9	...........
	9	0.133333	4.34058E-001	1.01003E-004	0.00000E+000	4.38413E-005	5.99601E-002	4.34153E-001	3.57720E+000	9	...........
	10	0.146667	4.50103E-001	1.01130E-004	0.00000E+000	4.55191E-005	5.99601E-002	4.50198E-001	3.57720E+000	9	...........
	11	0.16	4.65782E-001	1.00877E-004	0.00000E+000	4.69868E-005	5.99601E-002	4.65883E-001	3.57720E+000	9	...........
	12	0.173333	4.81104E-001	1.00583E-004	0.00000E+000	4.83910E-005	5.99601E-002	4.81214E-001	3.57720E+000	9	...........
	13	0.186667	4.96107E-001	1.00576E-004	0.00000E+000	4.98965E-005	5.99601E-002	4.96218E-001	3.57720E+000	9	...........
	14	0.2	5.10790E-001	1.01588E-004	0.00000E+000	5.18900E-005	5.99601E-002	5.10907E-001	3.57720E+000	9	...........
	15	0.213333	5.25178E-001	1.00985E-004	0.00000E+000	5.30348E-005	5.99601E-002	5.25297E-001	3.57720E+000	9	...........
	16	0.226667	5.39015E-001	1.01006E-004	0.00000E+000	5.44440E-005	5.99601E-002	5.39236E-001	3.57720E+000	9	...........
	17	0.24	5.52808E-001	1.01500E-004	0.00000E+000	5.61102E-005	5.99601E-002	5.53052E-001	3.57720E+000	9	...........
	18	0.253333	5.66387E-001	1.01481E-004	0.00000E+000	5.74778E-005	5.99601E-002	5.66632E-001	3.57720E+000	9	...........
	19	0.266667	5.79676E-001	1.00682E-004	0.00000E+000	5.83631E-005	5.99601E-002	5.79923E-001	3.57720E+000	9	...........
	20	0.28	5.92733E-001	1.01151E-004	0.00000E+000	5.99557E-005	5.99601E-002	5.92980E-001	3.57720E+000	9	...........
	21	0.293333	6.05514E-001	1.01378E-004	0.00000E+000	6.13860E-005	5.99601E-002	6.05792E-001	3.57720E+000	9	...........
	22	0.306667	6.18091E-001	1.00817E-004	0.00000E+000	6.23139E-005	5.99601E-002	6.18347E-001	3.57720E+000	9	...........
	23	0.32	6.30408E-001	1.01679E-004	0.00000E+000	6.40996E-005	5.99601E-002	6.30671E-001	3.57720E+000	9	...........
	24	0.333333	6.42495E-001	9.93519E-005	0.00000E+000	6.38331E-005	5.99601E-002	6.42762E-001	3.57720E+000	9	...........
	25	0.346667	6.54336E-001	1.00321E-004	0.00000E+000	6.56435E-005	5.99601E-002	6.54597E-001	3.57720E+000	9	...........
	26	0.36	6.65949E-001	1.01332E-004	0.00000E+000	6.74823E-005	5.99601E-002	6.66219E-001	3.57720E+000	9	...........
	27	0.373333	6.77342E-001	1.00712E-004	0.00000E+000	6.82161E-005	5.99601E-002	6.77610E-001	3.57720E+000	9	...........
	28	0.386667	6.88485E-001	1.00937E-004	0.00000E+000	6.94933E-005	5.99601E-002	6.88759E-001	3.57720E+000	9	...........
	29	0.4	6.99424E-001	1.01299E-004	0.00000E+000	7.08510E-005	5.99601E-002	6.99683E-001	3.57720E+000	9	...........
	30	0.413333	7.10083E-001	1.00718E-004	0.00000E+000	7.15179E-005	5.99601E-002	7.10381E-001	3.57720E+000	9	...........
	31	0.426667	7.20575E-001	1.01512E-004	0.00000E+000	7.31468E-005	5.99601E-002	7.20855E-001	3.57720E+000	9	...........
	32	0.44	7.30814E-001	1.01425E-004	0.00000E+000	7.41230E-005	5.99601E-002	7.31096E-001	3.57720E+000	9	...........
	33	0.453333	7.40828E-001	9.98895E-005	0.00000E+000	7.40009E-005	5.99601E-002	7.41093E-001	3.57720E+000	9	...........
	34	0.466667	7.50619E-001	1.00115E-004	0.00000E+000	7.51479E-005	5.99601E-002	7.50883E-001	3.57720E+000	9	...........
	35	0.48	7.60199E-001	1.01813E-004	0.00000E+000	7.73980E-005	5.99601E-002	7.60479E-001	3.57720E+000	9	...........
	36	0.493333	7.69557E-001	1.01184E-004	0.00000E+000	7.78665E-005	5.99601E-002	7.69835E-001	3.57720E+000	9	...........
	37	0.506667	7.78690E-001	1.01338E-004	0.00000E+000	7.89107E-005	5.99601E-002	7.78969E-001	3.57720E+000	9	...........
	38	0.52	7.87576E-001	1.01373E-004	0.00000E+000	7.98391E-005	5.99601E-002	7.87844E-001	3.57720E+000	9	...........
	39	0.533333	7.96287E-001	9.99353E-005	0.00000E+000	7.95772E-005	5.99601E-002	7.96558E-001	3.57720E+000	9	...........
	40	0.546667	8.04739E-001	1.01280E-004	0.00000E+000	8.15043E-005	5.99601E-002	8.05006E-001	3.57720E+000	9	...........
	41	0.56	8.12973E-001	1.00539E-004	0.00000E+000	8.17352E-005	5.99601E-002	8.13262E-001	3.57720E+000	9	...........
	42	0.573333	8.21011E-001	1.01184E-004	0.00000E+000	8.30728E-005	5.99601E-002	8.21322E-001	3.57720E+000	9	...........
	43	0.586667	8.28822E-001	1.02405E-004	0.00000E+000	8.48751E-005	5.99601E-002	8.29136E-001	3.57720E+000	9	...........
	44	0.6	8.36406E-001	1.00040E-004	0.00000E+000	8.36736E-005	5.99601E-002	8.36755E-001	3.57720E+000	9	...........
	45	0.613333	8.43832E-001	1.01888E-004	0.00000E+000	8.59762E-005	5.99601E-002	8.44151E-001	3.57720E+000	9	...........
	46	0.626667	8.51033E-001	1.01624E-004	0.00000E+000	8.64856E-005	5.99601E-002	8.51357E-001	3.57720E+000	9	...........
	47	0.64	8.57996E-001	1.02019E-004	0.00000E+000	8.75320E-005	5.99601E-002	8.58349E-001	3.57720E+000	9	...........
	48	0.653333	8.64784E-001	1.00724E-004	0.00000E+000	8.71045E-005	5.99601E-002	8.65112E-001	3.57720E+000	9	...........
	49	0.666667	8.71395E-001	1.01641E-004	0.00000E+000	8.85693E-005	5.99601E-002	8.71723E-001	3.57720E+000	9	...........
	50	0.68	8.77778E-001	1.01069E-004	0.00000E+000	8.87161E-005	5.99601E-002	8.78088E-001	3.57720E+000	9	...........
	51	0.693333	8.83967E-001	1.00838E-004	0.00000E+000	8.91371E-005	5.99601E-002	8.84307E-001	3.57720E+000	9	...........
	52	0.706667	8.89979E-001	1.01167E-004	0.00000E+000	9.00364E-005	5.99601E-002	8.90317E-001	3.57720E+000	9	...........
	53	0.72	8.95811E-001	1.00279E-004	0.00000E+000	8.98312E-005	5.99601E-002	8.96142E-001	3.57720E+000	9	...........
	54	0.733333	9.01458E-001	1.01012E-004	0.00000E+000	9.10577E-005	5.99601E-002	9.01803E-001	3.57720E+000	9	...........
	55	0.746667	9.06945E-001	1.01977E-004	0.00000E+000	9.24879E-005	5.99601E-002	9.07313E-001	3.57720E+000	9	...........
	56	0.76	9.12281E-001	1.01416E-004	0.00000E+000	9.25198E-005	5.99601E-002	9.12639E-001	3.57720E+000	9	...........
	57	0.773333	9.17484E-001	1.01494E-004	0.00000E+000	9.31191E-005	5.99601E-002	9.17845E-001	3.57720E+000	9	...........
	58	0.786667	9.22595E-001	1.00440E-004	0.00000E+000	9.26651E-005	5.99601E-002	9.22907E-001	3.57720E+000	9	...........
	59	0.8	9.27520E-001	1.01092E-004	0.00000E+000	9.37647E-005	5.99601E-002	9.27835E-001	3.57720E+000	9	...........
	60	0.813333	9.32291E-001	1.00970E-004	0.00000E+000	9.41333E-005	5.99601E-002	9.32635E-001	3.57720E+000	9	...........
	61	0.826667	9.36979E-001	1.00415E-004	0.00000E+000	9.40864E-005	5.99601E-002	9.37339E-001	3.57720E+000	9	...........
	62	0.84	9.41543E-001	1.00968E-004	0.00000E+000	9.50656E-005	5.99601E-002	9.41890E-001	3.57720E+000	9	...........
	63	0.853333	9.46021E-001	1.01303E-004	0.00000E+000	9.58351E-005	5.99601E-002	9.46405E-001	3.57720E+000	9	...........
	64	0.866667	9.50428E-001	1.01615E-004	0.00000E+000	9.65776E-005	5.99601E-002	9.50798E-001	3.57765E+000	9	...........
	65	0.88	9.54743E-001	1.00964E-004	0.00000E+000	9.63944E-005	5.99601E-002	9.55069E-001	3.57840E+000	9	...........
	66	0.893333	9.58930E-001	1.02291E-004	0.00000E+000	9.80899E-005	5.99601E-002	9.59290E-001	3.57840E+000	9	...........
	67	0.906667	9.63036E-001	1.01017E-004	0.00000E+000	9.72828E-005	5.99601E-002	9.63426E-001	3.57840E+000	9	...........
	68	0.92	9.67084E-001	1.01037E-004	0.00000E+000	9.77109E-005	5.99601E-002	9.67460E-001	3.57840E+000	9	...........
	69	0.933333	9.71042E-001	1.01170E-004	0.00000E+000	9.82402E-005	5.99601E-002	9.71433E-001	3.57840E+000	9	...........
	70	0.946667	9.74957E-001	1.01087E-004	0.00000E+000	9.85551E-005	5.99601E-002	9.75325E-001	3.57840E+000	9	...........
	71	0.96	9.78772E-001	1.00510E-004	0.00000E+000	9.83768E-005	5.99601E-002	9.79103E-001	3.57840E+000	9	...........
	72	0.97333	9.82471E-001	1.00999E-004	0.00000E+000	9.92287E-005	5.99601E-002	9.82827E-001	3.57840E+000	9	...........
	73	0.98667	9.86115E-001	1.00706E-004	0.00000E+000	9.93080E-005	5.99601E-002	9.86472E-001	3.57840E+000	9	...........
	74	1	9.89675E-001	1.00539E-004	0.00000E+000	9.95005E-005	5.99601E-002	9.90035E-001	3.57840E+000	9	...........
	75	1.01333	9.93147E-001	1.00137E-004	0.00000E+000	9.94512E-005	5.99601E-002	9.93497E-001	3.57840E+000	9	...........
	76	1.02667	9.96560E-001	1.01214E-004	0.00000E+000	1.00866E-004	5.99601E-002	9.96906E-001	3.57840E+000	9	...........
	77	1.035	9.99274E-001	1.01150E-004	0.00000E+000	1.01076E-004	5.99601E-002	9.99625E-001	3.57840E+000	9	...........
STARTTIMEOFFSET	QUANT	446.3818	Start Time Offset (s)
