EXPLAIN
TAG	PWR800_CHARGE
TITLE	LABEL	PWR Cyclic Charge Discharge (Cell) - Charge Step	Test &Identifier
DATE	LABEL	12-7-2017	Date
TIME	LABEL	16:38:19	Time
NOTES	NOTES	2	&Notes...
	supercap test cell
	6M KOH
PSTAT	PSTAT	IFC5000-01520	Potentiostat
CAPACITY	QUANT	1.00000E-003	Capacity (A-hr)
CELLTYPE	SELECTOR	1	&Cell Type
WORKINGCONNECTION	SELECTOR	0	&Working Lead
MAXCHARGETIME	VARIABLEANDUNITS	1.00000E+002	s	1.00000E+002	second(s)	Max &Charge Time
CHARGECURRENT	QUANT	1.00000E-004	&Charge Current (A) 
VOLTAGEFINISH	TWOPARAM	F	1.00000E-003	3.60000E+003	&Voltage Finish	 I (A) < 	Max Time(s)
SAMPLETIME	QUANT	1.00000E-002	Sa&mple Period (s)
CHARGESTOPAT1	MULTIPARAM	4	1.00000E+000	Charge Stop At &1	Voltage > Limit	V
CHARGESTOPAT2	MULTIPARAM	0	0.00000E+000	Charge Stop At &2	None	N/A
AESBHCSELECTOR	TOGGLE	F	Save Both Half Cells
IRCOMP	TOGGLE	F	IR &Measure
EOC	QUANT	0	Open Circuit (V)
SEQUENCER	TOGGLE	TRUE	Run as Sequence
PSTATMODEL	IQUANT	53	Pstat Model
PSTATSECTION	LABEL	IFC5000-01520	Pstat Section
PSTATSERIALNO	LABEL	01520	Pstat Serial Number
CTRLMODE	IQUANT	0	Control Mode
ELECTROMETER	IQUANT	1	RE=0 or CS=1
IESTAB	IQUANT	0	I/E Stability
CASPEED	IQUANT	4	Control Amp Speed
CONVENTION	IQUANT	1	Current Convention
ICHRANGE	IQUANT	2	Ich Range
ICHRANGEMODE	TOGGLE	T	Ich Auto Range
ICHOFFSETENABLE	TOGGLE	F	Ich Offset Enable
ICHOFFSET	QUANT	0	Ich Offset (V)
ICHFILTER	IQUANT	1	Ich Filter
VCHRANGE	IQUANT	2	Vch Range
VCHRANGEMODE	TOGGLE	T	Vch Auto Range
VCHOFFSETENABLE	TOGGLE	F	Vch Offset Enable
VCHOFFSET	QUANT	0	Vch Offset (V)
VCHFILTER	IQUANT	1	Vch Filter
IERANGELOWERLIMIT	IQUANT	9	I/E Range Lower Limit
IERANGEMODE	TOGGLE	F	I/E AutoRange
IERANGE	IQUANT	9	I/E Range
ACHSELECT	IQUANT	1	Ach Select
ACHRANGE	IQUANT	2	Ach Range
ACHOFFSETENABLE	TOGGLE	F	Ach Offset Enable
ACHOFFSET	QUANT	0	Ach Offset (V)
ACHFILTER	IQUANT	1	Ach Filter
CABLEID	IQUANT	14	Cable ID
DCCALDATE	LABEL	5-7-2017	DC Calibration Date
ACCALDATE	LABEL	12/3/2015	AC Calibration Date
FRAMEWORKVERSION	QUANT	7.01	Framework Version
INSTRUMENTVERSION	LABEL	4.00	Instrument Version
CURVE	TABLE	76
	Pt	T	Vf	Im	Vu	Pwr	Sig	Ach	Temp	IERange	Over
	#	s	V	A	V	W	V	V	deg C	#	bits
	0	0.013333	2.60524E-001	1.01520E-004	0.00000E+000	2.64484E-005	5.99601E-002	2.60597E-001	3.57660E+000	9	...........
	1	0.026667	2.83476E-001	1.00732E-004	0.00000E+000	2.85552E-005	5.99601E-002	2.83535E-001	3.57660E+000	9	...........
	2	0.04	3.05146E-001	1.01653E-004	0.00000E+000	3.10191E-005	5.99601E-002	3.05213E-001	3.57660E+000	9	...........
	3	0.053333	3.25893E-001	9.98478E-005	0.00000E+000	3.25397E-005	5.99601E-002	3.25961E-001	3.57660E+000	9	...........
	4	0.066667	3.45898E-001	9.98384E-005	0.00000E+000	3.45339E-005	5.99601E-002	3.45967E-001	3.57654E+000	9	...........
	5	0.08	3.65284E-001	1.01114E-004	0.00000E+000	3.69352E-005	5.99601E-002	3.65363E-001	3.57650E+000	9	...........
	6	0.093333	3.84138E-001	1.01375E-004	0.00000E+000	3.89421E-005	5.99601E-002	3.84214E-001	3.57650E+000	9	...........
	7	0.106667	4.02512E-001	1.01966E-004	0.00000E+000	4.10425E-005	5.99601E-002	4.02595E-001	3.57650E+000	9	...........
	8	0.12	4.20438E-001	1.01039E-004	0.00000E+000	4.24805E-005	5.99601E-002	4.20524E-001	3.57650E+000	9	...........
	9	0.133333	4.37942E-001	1.00733E-004	0.00000E+000	4.41154E-005	5.99601E-002	4.38037E-001	3.57650E+000	9	...........
	10	0.146667	4.55056E-001	1.01531E-004	0.00000E+000	4.62026E-005	5.99601E-002	4.55152E-001	3.57650E+000	9	...........
	11	0.16	4.71796E-001	1.01505E-004	0.00000E+000	4.78898E-005	5.99601E-002	4.71892E-001	3.57650E+000	9	...........
	12	0.173333	4.88161E-001	1.00854E-004	0.00000E+000	4.92331E-005	5.99601E-002	4.88259E-001	3.57650E+000	9	...........
	13	0.186667	5.04173E-001	1.01069E-004	0.00000E+000	5.09562E-005	5.99601E-002	5.04281E-001	3.57650E+000	9	...........
	14	0.2	5.19841E-001	9.99301E-005	0.00000E+000	5.19477E-005	5.99601E-002	5.19951E-001	3.57650E+000	9	...........
	15	0.213333	5.35040E-001	1.00704E-004	0.00000E+000	5.38808E-005	5.99601E-002	5.35188E-001	3.57650E+000	9	...........
	16	0.226667	5.49876E-001	1.00791E-004	0.00000E+000	5.54224E-005	5.99601E-002	5.50102E-001	3.57650E+000	9	...........
	17	0.24	5.64571E-001	1.01935E-004	0.00000E+000	5.75494E-005	5.99601E-002	5.64797E-001	3.57650E+000	9	...........
	18	0.253333	5.78909E-001	1.01536E-004	0.00000E+000	5.87799E-005	5.99601E-002	5.79150E-001	3.57650E+000	9	...........
	19	0.266667	5.92916E-001	1.01288E-004	0.00000E+000	6.00550E-005	5.99601E-002	5.93165E-001	3.57650E+000	9	...........
	20	0.28	6.06604E-001	1.00831E-004	0.00000E+000	6.11647E-005	5.99601E-002	6.06906E-001	3.57650E+000	9	...........
	21	0.293333	6.20056E-001	9.97457E-005	0.00000E+000	6.18479E-005	5.99601E-002	6.20294E-001	3.57650E+000	9	...........
	22	0.306667	6.33133E-001	1.00496E-004	0.00000E+000	6.36272E-005	5.99601E-002	6.33384E-001	3.57650E+000	9	...........
	23	0.32	6.45921E-001	1.01611E-004	0.00000E+000	6.56325E-005	5.99601E-002	6.46207E-001	3.57650E+000	9	...........
	24	0.333333	6.58414E-001	1.00914E-004	0.00000E+000	6.64429E-005	5.99601E-002	6.58673E-001	3.57650E+000	9	...........
	25	0.346667	6.70621E-001	1.00262E-004	0.00000E+000	6.72381E-005	5.99601E-002	6.70892E-001	3.57650E+000	9	...........
	26	0.36	6.82485E-001	1.01378E-004	0.00000E+000	6.91892E-005	5.99601E-002	6.82790E-001	3.57650E+000	9	...........
	27	0.373333	6.94109E-001	1.01648E-004	0.00000E+000	7.05549E-005	5.99601E-002	6.94370E-001	3.57650E+000	9	...........
	28	0.386667	7.05407E-001	1.00303E-004	0.00000E+000	7.07545E-005	5.99601E-002	7.05679E-001	3.57650E+000	9	...........
	29	0.4	7.16440E-001	1.01652E-004	0.00000E+000	7.28278E-005	5.99601E-002	7.16699E-001	3.57650E+000	9	...........
	30	0.413333	7.27191E-001	1.00229E-004	0.00000E+000	7.28858E-005	5.99601E-002	7.27438E-001	3.57650E+000	9	...........
	31	0.426667	7.37655E-001	9.96332E-005	0.00000E+000	7.34949E-005	5.99601E-002	7.37878E-001	3.57650E+000	9	...........
	32	0.44	7.47838E-001	1.01573E-004	0.00000E+000	7.59603E-005	5.99601E-002	7.48080E-001	3.57650E+000	9	...........
	33	0.453333	7.57719E-001	1.00972E-004	0.00000E+000	7.65084E-005	5.99601E-002	7.57969E-001	3.57650E+000	9	...........
	34	0.466667	7.67354E-001	1.00664E-004	0.00000E+000	7.72446E-005	5.99601E-002	7.67646E-001	3.57650E+000	9	...........
	35	0.48	7.76730E-001	1.00268E-004	0.00000E+000	7.78809E-005	5.99601E-002	7.77006E-001	3.57650E+000	9	...........
	36	0.493333	7.85819E-001	1.02728E-004	0.00000E+000	8.07253E-005	5.99601E-002	7.86094E-001	3.57650E+000	9	...........
	37	0.506667	7.94668E-001	1.01347E-004	0.00000E+000	8.05372E-005	5.99601E-002	7.94930E-001	3.57650E+000	9	...........
	38	0.52	8.03262E-001	1.00331E-004	0.00000E+000	8.05923E-005	5.99601E-002	8.03495E-001	3.57650E+000	9	...........
	39	0.533333	8.11569E-001	1.00863E-004	0.00000E+000	8.18570E-005	5.99601E-002	8.11833E-001	3.57650E+000	9	...........
	40	0.546667	8.19654E-001	1.00791E-004	0.00000E+000	8.26136E-005	5.99601E-002	8.19938E-001	3.57650E+000	9	...........
	41	0.56	8.27477E-001	1.00680E-004	0.00000E+000	8.33106E-005	5.99601E-002	8.27765E-001	3.57650E+000	9	...........
	42	0.573333	8.35061E-001	1.01287E-004	0.00000E+000	8.45806E-005	5.99601E-002	8.35350E-001	3.57650E+000	9	...........
	43	0.586667	8.42402E-001	1.00990E-004	0.00000E+000	8.50739E-005	5.99601E-002	8.42701E-001	3.57650E+000	9	...........
	44	0.6	8.49542E-001	1.00897E-004	0.00000E+000	8.57162E-005	5.99601E-002	8.49866E-001	3.57650E+000	9	...........
	45	0.613333	8.56423E-001	1.00593E-004	0.00000E+000	8.61500E-005	5.99601E-002	8.56747E-001	3.57650E+000	9	...........
	46	0.626667	8.63094E-001	1.00687E-004	0.00000E+000	8.69020E-005	5.99601E-002	8.63448E-001	3.57650E+000	9	...........
	47	0.64	8.69597E-001	1.00700E-004	0.00000E+000	8.75684E-005	5.99601E-002	8.69927E-001	3.57650E+000	9	...........
	48	0.653333	8.75870E-001	1.00262E-004	0.00000E+000	8.78169E-005	5.99601E-002	8.76203E-001	3.57650E+000	9	...........
	49	0.666667	8.81960E-001	1.00917E-004	0.00000E+000	8.90046E-005	5.99601E-002	8.82292E-001	3.57650E+000	9	...........
	50	0.68	8.87896E-001	1.00957E-004	0.00000E+000	8.96397E-005	5.99601E-002	8.88241E-001	3.57650E+000	9	...........
	51	0.693333	8.93669E-001	1.00769E-004	0.00000E+000	9.00540E-005	5.99601E-002	8.94003E-001	3.57650E+000	9	...........
	52	0.706667	8.99275E-001	1.00972E-004	0.00000E+000	9.08016E-005	5.99601E-002	8.99625E-001	3.57650E+000	9	...........
	53	0.72	9.04741E-001	1.00759E-004	0.00000E+000	9.11612E-005	5.99601E-002	9.05090E-001	3.57650E+000	9	...........
	54	0.733333	9.10119E-001	1.00130E-004	0.00000E+000	9.11304E-005	5.99601E-002	9.10447E-001	3.57650E+000	9	...........
	55	0.746667	9.15308E-001	1.00140E-004	0.00000E+000	9.16586E-005	5.99601E-002	9.15687E-001	3.57650E+000	9	...........
	56	0.76	9.20488E-001	1.00765E-004	0.00000E+000	9.27527E-005	5.99601E-002	9.20807E-001	3.57650E+000	9	...........
	57	0.773333	9.25511E-001	1.01193E-004	0.00000E+000	9.36551E-005	5.99601E-002	9.25834E-001	3.57650E+000	9	...........
	58	0.786667	9.30440E-001	1.01668E-004	0.00000E+000	9.45960E-005	5.99601E-002	9.30742E-001	3.57650E+000	9	...........
	59	0.8	9.35255E-001	1.00678E-004	0.00000E+000	9.41597E-005	5.99601E-002	9.35578E-001	3.57650E+000	9	...........
	60	0.813333	9.39991E-001	9.99478E-005	0.00000E+000	9.39501E-005	5.99601E-002	9.40304E-001	3.57650E+000	9	...........
	61	0.826667	9.44642E-001	1.00826E-004	0.00000E+000	9.52446E-005	5.99601E-002	9.44930E-001	3.57650E+000	9	...........
	62	0.84	9.49248E-001	1.01298E-004	0.00000E+000	9.61571E-005	5.99601E-002	9.49536E-001	3.57650E+000	9	...........
	63	0.853333	9.53748E-001	9.97520E-005	0.00000E+000	9.51382E-005	5.99601E-002	9.54043E-001	3.57650E+000	9	...........
	64	0.866667	9.58187E-001	1.01300E-004	0.00000E+000	9.70645E-005	5.99601E-002	9.58481E-001	3.57650E+000	9	...........
	65	0.88	9.62513E-001	1.02135E-004	0.00000E+000	9.83061E-005	5.99601E-002	9.62854E-001	3.57650E+000	9	...........
	66	0.893333	9.66788E-001	1.01471E-004	0.00000E+000	9.81010E-005	5.99601E-002	9.67145E-001	3.57650E+000	9	...........
	67	0.906667	9.70989E-001	1.00679E-004	0.00000E+000	9.77584E-005	5.99601E-002	9.71350E-001	3.57650E+000	9	...........
	68	0.92	9.75172E-001	1.01936E-004	0.00000E+000	9.94049E-005	5.99601E-002	9.75509E-001	3.57650E+000	9	...........
	69	0.933333	9.79210E-001	1.00839E-004	0.00000E+000	9.87422E-005	5.99601E-002	9.79546E-001	3.57650E+000	9	...........
	70	0.946667	9.83166E-001	1.01655E-004	0.00000E+000	9.99442E-005	5.99601E-002	9.83534E-001	3.57650E+000	9	...........
	71	0.96	9.87061E-001	1.01524E-004	0.00000E+000	1.00211E-004	5.99601E-002	9.87416E-001	3.57650E+000	9	...........
	72	0.97333	9.90873E-001	1.01621E-004	0.00000E+000	1.00694E-004	5.99601E-002	9.91221E-001	3.57650E+000	9	...........
	73	0.98667	9.94607E-001	1.02487E-004	0.00000E+000	1.01934E-004	5.99601E-002	9.94952E-001	3.57650E+000	9	...........
	74	1	9.98263E-001	1.02096E-004	0.00000E+000	1.01919E-004	5.99601E-002	9.98610E-001	3.57650E+000	9	...........
	75	1.00167	1.00026E+000	9.93060E-005	0.00000E+000	9.93315E-005	5.99601E-002	1.00065E+000	3.57650E+000	9	...........
STARTTIMEOFFSET	QUANT	1206.755	Start Time Offset (s)
