EXPLAIN
TAG	PWR800_CHARGE
TITLE	LABEL	PWR Cyclic Charge Discharge (Cell) - Charge Step	Test &Identifier
DATE	LABEL	12-7-2017	Date
TIME	LABEL	16:45:09	Time
NOTES	NOTES	2	&Notes...
	supercap test cell
	6M KOH
PSTAT	PSTAT	IFC5000-01520	Potentiostat
CAPACITY	QUANT	1.00000E-003	Capacity (A-hr)
CELLTYPE	SELECTOR	1	&Cell Type
WORKINGCONNECTION	SELECTOR	0	&Working Lead
MAXCHARGETIME	VARIABLEANDUNITS	1.00000E+002	s	1.00000E+002	second(s)	Max &Charge Time
CHARGECURRENT	QUANT	1.00000E-004	&Charge Current (A) 
VOLTAGEFINISH	TWOPARAM	F	1.00000E-003	3.60000E+003	&Voltage Finish	 I (A) < 	Max Time(s)
SAMPLETIME	QUANT	1.00000E-002	Sa&mple Period (s)
CHARGESTOPAT1	MULTIPARAM	4	1.00000E+000	Charge Stop At &1	Voltage > Limit	V
CHARGESTOPAT2	MULTIPARAM	0	0.00000E+000	Charge Stop At &2	None	N/A
AESBHCSELECTOR	TOGGLE	F	Save Both Half Cells
IRCOMP	TOGGLE	F	IR &Measure
EOC	QUANT	0	Open Circuit (V)
SEQUENCER	TOGGLE	TRUE	Run as Sequence
PSTATMODEL	IQUANT	53	Pstat Model
PSTATSECTION	LABEL	IFC5000-01520	Pstat Section
PSTATSERIALNO	LABEL	01520	Pstat Serial Number
CTRLMODE	IQUANT	0	Control Mode
ELECTROMETER	IQUANT	1	RE=0 or CS=1
IESTAB	IQUANT	0	I/E Stability
CASPEED	IQUANT	4	Control Amp Speed
CONVENTION	IQUANT	1	Current Convention
ICHRANGE	IQUANT	2	Ich Range
ICHRANGEMODE	TOGGLE	T	Ich Auto Range
ICHOFFSETENABLE	TOGGLE	F	Ich Offset Enable
ICHOFFSET	QUANT	0	Ich Offset (V)
ICHFILTER	IQUANT	1	Ich Filter
VCHRANGE	IQUANT	2	Vch Range
VCHRANGEMODE	TOGGLE	T	Vch Auto Range
VCHOFFSETENABLE	TOGGLE	F	Vch Offset Enable
VCHOFFSET	QUANT	0	Vch Offset (V)
VCHFILTER	IQUANT	1	Vch Filter
IERANGELOWERLIMIT	IQUANT	9	I/E Range Lower Limit
IERANGEMODE	TOGGLE	F	I/E AutoRange
IERANGE	IQUANT	9	I/E Range
ACHSELECT	IQUANT	1	Ach Select
ACHRANGE	IQUANT	2	Ach Range
ACHOFFSETENABLE	TOGGLE	F	Ach Offset Enable
ACHOFFSET	QUANT	0	Ach Offset (V)
ACHFILTER	IQUANT	1	Ach Filter
CABLEID	IQUANT	14	Cable ID
DCCALDATE	LABEL	5-7-2017	DC Calibration Date
ACCALDATE	LABEL	12/3/2015	AC Calibration Date
FRAMEWORKVERSION	QUANT	7.01	Framework Version
INSTRUMENTVERSION	LABEL	4.00	Instrument Version
CURVE	TABLE	75
	Pt	T	Vf	Im	Vu	Pwr	Sig	Ach	Temp	IERange	Over
	#	s	V	A	V	W	V	V	deg C	#	bits
	0	0.013333	2.57508E-001	1.01474E-004	0.00000E+000	2.61304E-005	5.99601E-002	2.57576E-001	3.57650E+000	9	...........
	1	0.026667	2.80549E-001	1.01863E-004	0.00000E+000	2.85776E-005	5.99601E-002	2.80610E-001	3.57650E+000	9	...........
	2	0.04	3.02343E-001	1.00806E-004	0.00000E+000	3.04781E-005	5.99601E-002	3.02403E-001	3.57650E+000	9	...........
	3	0.053333	3.23251E-001	1.01771E-004	0.00000E+000	3.28976E-005	5.99601E-002	3.23315E-001	3.57650E+000	9	...........
	4	0.066667	3.43424E-001	1.00513E-004	0.00000E+000	3.45184E-005	5.99601E-002	3.43496E-001	3.57650E+000	9	...........
	5	0.08	3.63009E-001	1.01781E-004	0.00000E+000	3.69472E-005	5.99601E-002	3.63078E-001	3.57650E+000	9	...........
	6	0.093333	3.82052E-001	9.95915E-005	0.00000E+000	3.80492E-005	5.99601E-002	3.82131E-001	3.57650E+000	9	...........
	7	0.106667	4.00642E-001	1.01627E-004	0.00000E+000	4.07162E-005	5.99601E-002	4.00719E-001	3.57650E+000	9	...........
	8	0.12	4.18775E-001	1.00519E-004	0.00000E+000	4.20948E-005	5.99601E-002	4.18864E-001	3.57650E+000	9	...........
	9	0.133333	4.36500E-001	1.01189E-004	0.00000E+000	4.41689E-005	5.99601E-002	4.36593E-001	3.57650E+000	9	...........
	10	0.146667	4.53828E-001	1.00337E-004	0.00000E+000	4.55359E-005	5.99601E-002	4.53924E-001	3.57650E+000	9	...........
	11	0.16	4.70784E-001	9.98353E-005	0.00000E+000	4.70009E-005	5.99601E-002	4.70883E-001	3.57650E+000	9	...........
	12	0.173333	4.87378E-001	1.01045E-004	0.00000E+000	4.92470E-005	5.99601E-002	4.87468E-001	3.57650E+000	9	...........
	13	0.186667	5.03598E-001	1.00378E-004	0.00000E+000	5.05502E-005	5.99601E-002	5.03699E-001	3.57650E+000	9	...........
	14	0.2	5.19475E-001	1.00784E-004	0.00000E+000	5.23551E-005	5.99601E-002	5.19585E-001	3.57650E+000	9	...........
	15	0.213333	5.34856E-001	1.00893E-004	0.00000E+000	5.39632E-005	5.99601E-002	5.35030E-001	3.57650E+000	9	...........
	16	0.226667	5.49910E-001	1.00869E-004	0.00000E+000	5.54688E-005	5.99601E-002	5.50149E-001	3.57650E+000	9	...........
	17	0.24	5.64756E-001	1.00817E-004	0.00000E+000	5.69369E-005	5.99601E-002	5.65004E-001	3.57650E+000	9	...........
	18	0.253333	5.79273E-001	1.01149E-004	0.00000E+000	5.85930E-005	5.99601E-002	5.79527E-001	3.57690E+000	9	...........
	19	0.266667	5.93478E-001	1.00477E-004	0.00000E+000	5.96310E-005	5.99601E-002	5.93737E-001	3.57690E+000	9	...........
	20	0.28	6.07315E-001	1.00427E-004	0.00000E+000	6.09908E-005	5.99601E-002	6.07605E-001	3.57690E+000	9	...........
	21	0.293333	6.20916E-001	1.01376E-004	0.00000E+000	6.29461E-005	5.99601E-002	6.21133E-001	3.57690E+000	9	...........
	22	0.306667	6.34120E-001	1.00363E-004	0.00000E+000	6.36418E-005	5.99601E-002	6.34328E-001	3.57690E+000	9	...........
	23	0.32	6.46987E-001	1.00728E-004	0.00000E+000	6.51698E-005	5.99601E-002	6.47241E-001	3.57690E+000	9	...........
	24	0.333333	6.59588E-001	1.01023E-004	0.00000E+000	6.66336E-005	5.99601E-002	6.59809E-001	3.57690E+000	9	...........
	25	0.346667	6.71876E-001	1.01106E-004	0.00000E+000	6.79310E-005	5.99601E-002	6.72113E-001	3.57690E+000	9	...........
	26	0.36	6.83819E-001	1.00667E-004	0.00000E+000	6.88378E-005	5.99601E-002	6.84060E-001	3.57690E+000	9	...........
	27	0.373333	6.95507E-001	1.01160E-004	0.00000E+000	7.03572E-005	5.99601E-002	6.95717E-001	3.57690E+000	9	...........
	28	0.386667	7.06836E-001	1.01125E-004	0.00000E+000	7.14789E-005	5.99601E-002	7.07080E-001	3.57690E+000	9	...........
	29	0.4	7.17908E-001	1.00334E-004	0.00000E+000	7.20309E-005	5.99601E-002	7.18166E-001	3.57690E+000	9	...........
	30	0.413333	7.28693E-001	1.00592E-004	0.00000E+000	7.33005E-005	5.99601E-002	7.28935E-001	3.57690E+000	9	...........
	31	0.426667	7.39161E-001	1.01240E-004	0.00000E+000	7.48325E-005	5.99601E-002	7.39404E-001	3.57690E+000	9	...........
	32	0.44	7.49353E-001	1.00504E-004	0.00000E+000	7.53132E-005	5.99601E-002	7.49616E-001	3.57690E+000	9	...........
	33	0.453333	7.59290E-001	1.02620E-004	0.00000E+000	7.79185E-005	5.99601E-002	7.59519E-001	3.57690E+000	9	...........
	34	0.466667	7.68902E-001	1.00290E-004	0.00000E+000	7.71128E-005	5.99601E-002	7.69161E-001	3.57690E+000	9	...........
	35	0.48	7.78284E-001	1.00200E-004	0.00000E+000	7.79840E-005	5.99601E-002	7.78497E-001	3.57690E+000	9	...........
	36	0.493333	7.87361E-001	1.01670E-004	0.00000E+000	8.00511E-005	5.99601E-002	7.87580E-001	3.57690E+000	9	...........
	37	0.506667	7.96211E-001	9.99520E-005	0.00000E+000	7.95829E-005	5.99601E-002	7.96431E-001	3.57690E+000	9	...........
	38	0.52	8.04714E-001	1.00689E-004	0.00000E+000	8.10255E-005	5.99601E-002	8.04998E-001	3.57690E+000	9	...........
	39	0.533333	8.12993E-001	1.00167E-004	0.00000E+000	8.14348E-005	5.99601E-002	8.13285E-001	3.57690E+000	9	...........
	40	0.546667	8.21075E-001	1.00823E-004	0.00000E+000	8.27832E-005	5.99601E-002	8.21356E-001	3.57690E+000	9	...........
	41	0.56	8.28856E-001	1.00256E-004	0.00000E+000	8.30980E-005	5.99601E-002	8.29131E-001	3.57690E+000	9	...........
	42	0.573333	8.36363E-001	9.99093E-005	0.00000E+000	8.35604E-005	5.99601E-002	8.36677E-001	3.57690E+000	9	...........
	43	0.586667	8.43695E-001	1.00491E-004	0.00000E+000	8.47834E-005	5.99601E-002	8.43981E-001	3.57690E+000	9	...........
	44	0.6	8.50767E-001	1.02397E-004	0.00000E+000	8.71163E-005	5.99601E-002	8.51066E-001	3.57690E+000	9	...........
	45	0.613333	8.57608E-001	1.00488E-004	0.00000E+000	8.61789E-005	5.99601E-002	8.57941E-001	3.57690E+000	9	...........
	46	0.626667	8.64260E-001	1.01801E-004	0.00000E+000	8.79828E-005	5.99601E-002	8.64574E-001	3.57690E+000	9	...........
	47	0.64	8.70717E-001	1.01380E-004	0.00000E+000	8.82737E-005	5.99601E-002	8.71033E-001	3.57690E+000	9	...........
	48	0.653333	8.76962E-001	1.00886E-004	0.00000E+000	8.84728E-005	5.99601E-002	8.77297E-001	3.57690E+000	9	...........
	49	0.666667	8.83055E-001	1.00097E-004	0.00000E+000	8.83910E-005	5.99601E-002	8.83369E-001	3.57690E+000	9	...........
	50	0.68	8.88957E-001	1.00489E-004	0.00000E+000	8.93301E-005	5.99601E-002	8.89274E-001	3.57690E+000	9	...........
	51	0.693333	8.94708E-001	1.00588E-004	0.00000E+000	8.99965E-005	5.99601E-002	8.95032E-001	3.57690E+000	9	...........
	52	0.706667	9.00344E-001	9.95686E-005	0.00000E+000	8.96460E-005	5.99601E-002	9.00673E-001	3.57690E+000	9	...........
	53	0.72	9.05817E-001	1.02353E-004	0.00000E+000	9.27127E-005	5.99601E-002	9.06178E-001	3.57690E+000	9	...........
	54	0.733333	9.11194E-001	1.00676E-004	0.00000E+000	9.17355E-005	5.99601E-002	9.11517E-001	3.57690E+000	9	...........
	55	0.746667	9.16424E-001	1.01049E-004	0.00000E+000	9.26038E-005	5.99601E-002	9.16784E-001	3.57690E+000	9	...........
	56	0.76	9.21623E-001	1.01245E-004	0.00000E+000	9.33097E-005	5.99601E-002	9.21923E-001	3.57690E+000	9	...........
	57	0.773333	9.26695E-001	1.00315E-004	0.00000E+000	9.29610E-005	5.99601E-002	9.26974E-001	3.57690E+000	9	...........
	58	0.786667	9.31647E-001	1.00432E-004	0.00000E+000	9.35675E-005	5.99601E-002	9.31943E-001	3.57690E+000	9	...........
	59	0.8	9.36491E-001	9.99447E-005	0.00000E+000	9.35974E-005	5.99601E-002	9.36790E-001	3.57690E+000	9	...........
	60	0.813333	9.41272E-001	1.00682E-004	0.00000E+000	9.47695E-005	5.99601E-002	9.41578E-001	3.57690E+000	9	...........
	61	0.826667	9.45987E-001	1.02280E-004	0.00000E+000	9.67552E-005	5.99601E-002	9.46295E-001	3.57690E+000	9	...........
	62	0.84	9.50642E-001	1.01140E-004	0.00000E+000	9.61476E-005	5.99601E-002	9.50934E-001	3.57690E+000	9	...........
	63	0.853333	9.55202E-001	1.01494E-004	0.00000E+000	9.69473E-005	5.99601E-002	9.55503E-001	3.57690E+000	9	...........
	64	0.866667	9.59666E-001	9.97572E-005	0.00000E+000	9.57336E-005	5.99601E-002	9.59986E-001	3.57690E+000	9	...........
	65	0.88	9.64049E-001	1.00378E-004	0.00000E+000	9.67694E-005	5.99601E-002	9.64406E-001	3.57690E+000	9	...........
	66	0.893333	9.68408E-001	1.01754E-004	0.00000E+000	9.85398E-005	5.99601E-002	9.68745E-001	3.57690E+000	9	...........
	67	0.906667	9.72685E-001	1.02003E-004	0.00000E+000	9.92172E-005	5.99601E-002	9.73020E-001	3.57690E+000	9	...........
	68	0.92	9.76871E-001	1.02012E-004	0.00000E+000	9.96524E-005	5.99601E-002	9.77221E-001	3.57690E+000	9	...........
	69	0.933333	9.80959E-001	1.00742E-004	0.00000E+000	9.88235E-005	5.99601E-002	9.81316E-001	3.57690E+000	9	...........
	70	0.946667	9.84954E-001	1.01840E-004	0.00000E+000	1.00308E-004	5.99601E-002	9.85345E-001	3.57690E+000	9	...........
	71	0.96	9.88907E-001	1.01605E-004	0.00000E+000	1.00478E-004	5.99601E-002	9.89266E-001	3.57690E+000	9	...........
	72	0.97333	9.92745E-001	1.00327E-004	0.00000E+000	9.95992E-005	5.99601E-002	9.93106E-001	3.57690E+000	9	...........
	73	0.98667	9.96530E-001	1.02005E-004	0.00000E+000	1.01651E-004	5.99601E-002	9.96899E-001	3.57690E+000	9	...........
	74	0.995	9.99520E-001	1.00271E-004	0.00000E+000	1.00223E-004	5.99601E-002	9.99911E-001	3.57690E+000	9	...........
STARTTIMEOFFSET	QUANT	1496.707	Start Time Offset (s)
