EXPLAIN
TAG	PWR800_CHARGE
TITLE	LABEL	PWR Cyclic Charge Discharge (Cell) - Charge Step	Test &Identifier
DATE	LABEL	12-7-2017	Date
TIME	LABEL	16:51:23	Time
NOTES	NOTES	2	&Notes...
	supercap test cell
	6M KOH
PSTAT	PSTAT	IFC5000-01520	Potentiostat
CAPACITY	QUANT	1.00000E-003	Capacity (A-hr)
CELLTYPE	SELECTOR	1	&Cell Type
WORKINGCONNECTION	SELECTOR	0	&Working Lead
MAXCHARGETIME	VARIABLEANDUNITS	1.00000E+002	s	1.00000E+002	second(s)	Max &Charge Time
CHARGECURRENT	QUANT	1.00000E-004	&Charge Current (A) 
VOLTAGEFINISH	TWOPARAM	F	1.00000E-003	3.60000E+003	&Voltage Finish	 I (A) < 	Max Time(s)
SAMPLETIME	QUANT	1.00000E-002	Sa&mple Period (s)
CHARGESTOPAT1	MULTIPARAM	4	1.00000E+000	Charge Stop At &1	Voltage > Limit	V
CHARGESTOPAT2	MULTIPARAM	0	0.00000E+000	Charge Stop At &2	None	N/A
AESBHCSELECTOR	TOGGLE	F	Save Both Half Cells
IRCOMP	TOGGLE	F	IR &Measure
EOC	QUANT	0	Open Circuit (V)
SEQUENCER	TOGGLE	TRUE	Run as Sequence
PSTATMODEL	IQUANT	53	Pstat Model
PSTATSECTION	LABEL	IFC5000-01520	Pstat Section
PSTATSERIALNO	LABEL	01520	Pstat Serial Number
CTRLMODE	IQUANT	0	Control Mode
ELECTROMETER	IQUANT	1	RE=0 or CS=1
IESTAB	IQUANT	0	I/E Stability
CASPEED	IQUANT	4	Control Amp Speed
CONVENTION	IQUANT	1	Current Convention
ICHRANGE	IQUANT	2	Ich Range
ICHRANGEMODE	TOGGLE	T	Ich Auto Range
ICHOFFSETENABLE	TOGGLE	F	Ich Offset Enable
ICHOFFSET	QUANT	0	Ich Offset (V)
ICHFILTER	IQUANT	1	Ich Filter
VCHRANGE	IQUANT	2	Vch Range
VCHRANGEMODE	TOGGLE	T	Vch Auto Range
VCHOFFSETENABLE	TOGGLE	F	Vch Offset Enable
VCHOFFSET	QUANT	0	Vch Offset (V)
VCHFILTER	IQUANT	1	Vch Filter
IERANGELOWERLIMIT	IQUANT	9	I/E Range Lower Limit
IERANGEMODE	TOGGLE	F	I/E AutoRange
IERANGE	IQUANT	9	I/E Range
ACHSELECT	IQUANT	1	Ach Select
ACHRANGE	IQUANT	2	Ach Range
ACHOFFSETENABLE	TOGGLE	F	Ach Offset Enable
ACHOFFSET	QUANT	0	Ach Offset (V)
ACHFILTER	IQUANT	1	Ach Filter
CABLEID	IQUANT	14	Cable ID
DCCALDATE	LABEL	5-7-2017	DC Calibration Date
ACCALDATE	LABEL	12/3/2015	AC Calibration Date
FRAMEWORKVERSION	QUANT	7.01	Framework Version
INSTRUMENTVERSION	LABEL	4.00	Instrument Version
CURVE	TABLE	74
	Pt	T	Vf	Im	Vu	Pwr	Sig	Ach	Temp	IERange	Over
	#	s	V	A	V	W	V	V	deg C	#	bits
	0	0.013333	2.56935E-001	1.00794E-004	0.00000E+000	2.58975E-005	5.99601E-002	2.57011E-001	3.57630E+000	9	...........
	1	0.026667	2.80043E-001	1.00696E-004	0.00000E+000	2.81991E-005	5.99601E-002	2.80106E-001	3.57630E+000	9	...........
	2	0.04	3.01930E-001	9.97686E-005	0.00000E+000	3.01231E-005	5.99601E-002	3.01985E-001	3.57630E+000	9	...........
	3	0.053333	3.22926E-001	1.00433E-004	0.00000E+000	3.24325E-005	5.99601E-002	3.22986E-001	3.57630E+000	9	...........
	4	0.066667	3.43202E-001	1.00540E-004	0.00000E+000	3.45054E-005	5.99601E-002	3.43272E-001	3.57630E+000	9	...........
	5	0.08	3.62901E-001	1.00421E-004	0.00000E+000	3.64428E-005	5.99601E-002	3.62971E-001	3.57630E+000	9	...........
	6	0.093333	3.82064E-001	1.00215E-004	0.00000E+000	3.82883E-005	5.99601E-002	3.82138E-001	3.57630E+000	9	...........
	7	0.106667	4.00759E-001	1.01958E-004	0.00000E+000	4.08604E-005	5.99601E-002	4.00841E-001	3.57630E+000	9	...........
	8	0.12	4.19023E-001	9.99187E-005	0.00000E+000	4.18682E-005	5.99601E-002	4.19104E-001	3.57630E+000	9	...........
	9	0.133333	4.36880E-001	1.01225E-004	0.00000E+000	4.42232E-005	5.99601E-002	4.36969E-001	3.57630E+000	9	...........
	10	0.146667	4.54331E-001	1.00142E-004	0.00000E+000	4.54975E-005	5.99601E-002	4.54430E-001	3.57630E+000	9	...........
	11	0.16	4.71416E-001	1.00481E-004	0.00000E+000	4.73685E-005	5.99601E-002	4.71515E-001	3.57630E+000	9	...........
	12	0.173333	4.88139E-001	1.00890E-004	0.00000E+000	4.92482E-005	5.99601E-002	4.88240E-001	3.57630E+000	9	...........
	13	0.186667	5.04491E-001	1.00968E-004	0.00000E+000	5.09374E-005	5.99601E-002	5.04599E-001	3.57674E+000	9	...........
	14	0.2	5.20488E-001	1.01004E-004	0.00000E+000	5.25715E-005	5.99601E-002	5.20603E-001	3.57680E+000	9	...........
	15	0.213333	5.35956E-001	1.00576E-004	0.00000E+000	5.39043E-005	5.99601E-002	5.36130E-001	3.57680E+000	9	...........
	16	0.226667	5.51133E-001	1.02090E-004	0.00000E+000	5.62651E-005	5.99601E-002	5.51364E-001	3.57680E+000	9	...........
	17	0.24	5.66114E-001	1.00600E-004	0.00000E+000	5.69511E-005	5.99601E-002	5.66347E-001	3.57680E+000	9	...........
	18	0.253333	5.80699E-001	1.01740E-004	0.00000E+000	5.90802E-005	5.99601E-002	5.80965E-001	3.57680E+000	9	...........
	19	0.266667	5.95009E-001	1.01635E-004	0.00000E+000	6.04735E-005	5.99601E-002	5.95261E-001	3.57680E+000	9	...........
	20	0.28	6.08925E-001	1.00520E-004	0.00000E+000	6.12091E-005	5.99601E-002	6.09177E-001	3.57680E+000	9	...........
	21	0.293333	6.22584E-001	1.01198E-004	0.00000E+000	6.30043E-005	5.99601E-002	6.22808E-001	3.57680E+000	9	...........
	22	0.306667	6.35848E-001	1.00100E-004	0.00000E+000	6.36483E-005	5.99601E-002	6.36083E-001	3.57680E+000	9	...........
	23	0.32	6.48796E-001	1.01127E-004	0.00000E+000	6.56110E-005	5.99601E-002	6.49042E-001	3.57680E+000	9	...........
	24	0.333333	6.61441E-001	1.01146E-004	0.00000E+000	6.69021E-005	5.99601E-002	6.61659E-001	3.57680E+000	9	...........
	25	0.346667	6.73764E-001	1.01348E-004	0.00000E+000	6.82847E-005	5.99601E-002	6.73998E-001	3.57680E+000	9	...........
	26	0.36	6.85766E-001	9.98353E-005	0.00000E+000	6.84637E-005	5.99601E-002	6.85995E-001	3.57680E+000	9	...........
	27	0.373333	6.97445E-001	1.00536E-004	0.00000E+000	7.01187E-005	5.99601E-002	6.97670E-001	3.57680E+000	9	...........
	28	0.386667	7.08793E-001	1.01936E-004	0.00000E+000	7.22514E-005	5.99601E-002	7.09074E-001	3.57680E+000	9	...........
	29	0.4	7.19901E-001	1.00747E-004	0.00000E+000	7.25279E-005	5.99601E-002	7.20143E-001	3.57680E+000	9	...........
	30	0.413333	7.30665E-001	1.00349E-004	0.00000E+000	7.33215E-005	5.99601E-002	7.30920E-001	3.57680E+000	9	...........
	31	0.426667	7.41138E-001	1.01048E-004	0.00000E+000	7.48905E-005	5.99601E-002	7.41423E-001	3.57680E+000	9	...........
	32	0.44	7.51329E-001	1.01181E-004	0.00000E+000	7.60206E-005	5.99601E-002	7.51612E-001	3.57680E+000	9	...........
	33	0.453333	7.61243E-001	1.00605E-004	0.00000E+000	7.65850E-005	5.99601E-002	7.61509E-001	3.57680E+000	9	...........
	34	0.466667	7.70873E-001	1.02187E-004	0.00000E+000	7.87730E-005	5.99601E-002	7.71162E-001	3.57680E+000	9	...........
	35	0.48	7.80205E-001	1.00831E-004	0.00000E+000	7.86691E-005	5.99601E-002	7.80495E-001	3.57680E+000	9	...........
	36	0.493333	7.89298E-001	1.00978E-004	0.00000E+000	7.97020E-005	5.99601E-002	7.89579E-001	3.57680E+000	9	...........
	37	0.506667	7.98115E-001	1.01002E-004	0.00000E+000	8.06114E-005	5.99601E-002	7.98391E-001	3.57680E+000	9	...........
	38	0.52	8.06630E-001	1.00799E-004	0.00000E+000	8.13075E-005	5.99601E-002	8.06896E-001	3.57680E+000	9	...........
	39	0.533333	8.14883E-001	1.01323E-004	0.00000E+000	8.25664E-005	5.99601E-002	8.15167E-001	3.57680E+000	9	...........
	40	0.546667	8.22931E-001	1.01788E-004	0.00000E+000	8.37643E-005	5.99601E-002	8.23200E-001	3.57680E+000	9	...........
	41	0.56	8.30682E-001	1.02434E-004	0.00000E+000	8.50899E-005	5.99601E-002	8.30956E-001	3.57680E+000	9	...........
	42	0.573333	8.38172E-001	1.00007E-004	0.00000E+000	8.38233E-005	5.99601E-002	8.38448E-001	3.57680E+000	9	...........
	43	0.586667	8.45456E-001	1.00654E-004	0.00000E+000	8.50988E-005	5.99601E-002	8.45773E-001	3.57680E+000	9	...........
	44	0.6	8.52500E-001	1.01332E-004	0.00000E+000	8.63860E-005	5.99601E-002	8.52818E-001	3.57680E+000	9	...........
	45	0.613333	8.59338E-001	1.02369E-004	0.00000E+000	8.79697E-005	5.99601E-002	8.59656E-001	3.57680E+000	9	...........
	46	0.626667	8.65959E-001	1.00847E-004	0.00000E+000	8.73294E-005	5.99601E-002	8.66257E-001	3.57680E+000	9	...........
	47	0.64	8.72416E-001	1.02390E-004	0.00000E+000	8.93267E-005	5.99601E-002	8.72706E-001	3.57680E+000	9	...........
	48	0.653333	8.78635E-001	1.01470E-004	0.00000E+000	8.91551E-005	5.99601E-002	8.78916E-001	3.57680E+000	9	...........
	49	0.666667	8.84713E-001	1.01280E-004	0.00000E+000	8.96041E-005	5.99601E-002	8.84994E-001	3.57680E+000	9	...........
	50	0.68	8.90613E-001	1.01669E-004	0.00000E+000	9.05478E-005	5.99601E-002	8.90890E-001	3.57680E+000	9	...........
	51	0.693333	8.96350E-001	1.01342E-004	0.00000E+000	9.08378E-005	5.99601E-002	8.96675E-001	3.57680E+000	9	...........
	52	0.706667	9.01990E-001	1.00101E-004	0.00000E+000	9.02901E-005	5.99601E-002	9.02289E-001	3.57680E+000	9	...........
	53	0.72	9.07456E-001	1.02730E-004	0.00000E+000	9.32226E-005	5.99601E-002	9.07789E-001	3.57680E+000	9	...........
	54	0.733333	9.12831E-001	1.00364E-004	0.00000E+000	9.16150E-005	5.99601E-002	9.13150E-001	3.57680E+000	9	...........
	55	0.746667	9.18095E-001	9.97686E-005	0.00000E+000	9.15970E-005	5.99601E-002	9.18439E-001	3.57680E+000	9	...........
	56	0.76	9.23320E-001	1.00454E-004	0.00000E+000	9.27514E-005	5.99601E-002	9.23608E-001	3.57680E+000	9	...........
	57	0.773333	9.28390E-001	1.02084E-004	0.00000E+000	9.47734E-005	5.99601E-002	9.28678E-001	3.57680E+000	9	...........
	58	0.786667	9.33360E-001	1.00440E-004	0.00000E+000	9.37463E-005	5.99601E-002	9.33641E-001	3.57680E+000	9	...........
	59	0.8	9.38257E-001	1.02461E-004	0.00000E+000	9.61346E-005	5.99601E-002	9.38541E-001	3.57680E+000	9	...........
	60	0.813333	9.43030E-001	1.00870E-004	0.00000E+000	9.51233E-005	5.99601E-002	9.43359E-001	3.57680E+000	9	...........
	61	0.826667	9.47828E-001	1.01611E-004	0.00000E+000	9.63094E-005	5.99601E-002	9.48123E-001	3.57680E+000	9	...........
	62	0.84	9.52490E-001	1.00098E-004	0.00000E+000	9.53422E-005	5.99601E-002	9.52810E-001	3.57680E+000	9	...........
	63	0.853333	9.57069E-001	1.00069E-004	0.00000E+000	9.57726E-005	5.99601E-002	9.57384E-001	3.57680E+000	9	...........
	64	0.866667	9.61583E-001	1.01564E-004	0.00000E+000	9.76620E-005	5.99601E-002	9.61916E-001	3.57680E+000	9	...........
	65	0.88	9.66033E-001	1.01556E-004	0.00000E+000	9.81070E-005	5.99601E-002	9.66349E-001	3.57680E+000	9	...........
	66	0.893333	9.70388E-001	1.00921E-004	0.00000E+000	9.79324E-005	5.99601E-002	9.70724E-001	3.57680E+000	9	...........
	67	0.906667	9.74740E-001	1.00109E-004	0.00000E+000	9.75806E-005	5.99601E-002	9.75033E-001	3.57680E+000	9	...........
	68	0.92	9.78940E-001	1.00224E-004	0.00000E+000	9.81132E-005	5.99601E-002	9.79229E-001	3.57680E+000	9	...........
	69	0.933333	9.83050E-001	1.01386E-004	0.00000E+000	9.96671E-005	5.99601E-002	9.83375E-001	3.57680E+000	9	...........
	70	0.946667	9.87106E-001	9.95884E-005	0.00000E+000	9.83043E-005	5.99601E-002	9.87430E-001	3.57680E+000	9	...........
	71	0.96	9.91064E-001	1.00283E-004	0.00000E+000	9.93872E-005	5.99601E-002	9.91362E-001	3.57680E+000	9	...........
	72	0.97333	9.94938E-001	1.00460E-004	0.00000E+000	9.99519E-005	5.99601E-002	9.95232E-001	3.57680E+000	9	...........
	73	0.98667	9.98736E-001	1.00942E-004	0.00000E+000	1.00814E-004	5.99601E-002	9.99069E-001	3.57680E+000	9	...........
STARTTIMEOFFSET	QUANT	1761.865	Start Time Offset (s)
