EXPLAIN
TAG	PWR800_CHARGE
TITLE	LABEL	PWR Cyclic Charge Discharge (Cell) - Charge Step	Test &Identifier
DATE	LABEL	12-7-2017	Date
TIME	LABEL	16:13:54	Time
NOTES	NOTES	2	&Notes...
	supercap test cell
	6M KOH
PSTAT	PSTAT	IFC5000-01520	Potentiostat
CAPACITY	QUANT	1.00000E-003	Capacity (A-hr)
CELLTYPE	SELECTOR	1	&Cell Type
WORKINGCONNECTION	SELECTOR	0	&Working Lead
MAXCHARGETIME	VARIABLEANDUNITS	1.00000E+002	s	1.00000E+002	second(s)	Max &Charge Time
CHARGECURRENT	QUANT	1.00000E-004	&Charge Current (A) 
VOLTAGEFINISH	TWOPARAM	F	1.00000E-003	3.60000E+003	&Voltage Finish	 I (A) < 	Max Time(s)
SAMPLETIME	QUANT	1.00000E-002	Sa&mple Period (s)
CHARGESTOPAT1	MULTIPARAM	4	1.00000E+000	Charge Stop At &1	Voltage > Limit	V
CHARGESTOPAT2	MULTIPARAM	0	0.00000E+000	Charge Stop At &2	None	N/A
AESBHCSELECTOR	TOGGLE	F	Save Both Half Cells
IRCOMP	TOGGLE	F	IR &Measure
EOC	QUANT	0	Open Circuit (V)
SEQUENCER	TOGGLE	TRUE	Run as Sequence
PSTATMODEL	IQUANT	53	Pstat Model
PSTATSECTION	LABEL	IFC5000-01520	Pstat Section
PSTATSERIALNO	LABEL	01520	Pstat Serial Number
CTRLMODE	IQUANT	0	Control Mode
ELECTROMETER	IQUANT	1	RE=0 or CS=1
IESTAB	IQUANT	0	I/E Stability
CASPEED	IQUANT	4	Control Amp Speed
CONVENTION	IQUANT	1	Current Convention
ICHRANGE	IQUANT	2	Ich Range
ICHRANGEMODE	TOGGLE	T	Ich Auto Range
ICHOFFSETENABLE	TOGGLE	F	Ich Offset Enable
ICHOFFSET	QUANT	0	Ich Offset (V)
ICHFILTER	IQUANT	1	Ich Filter
VCHRANGE	IQUANT	2	Vch Range
VCHRANGEMODE	TOGGLE	T	Vch Auto Range
VCHOFFSETENABLE	TOGGLE	F	Vch Offset Enable
VCHOFFSET	QUANT	0	Vch Offset (V)
VCHFILTER	IQUANT	1	Vch Filter
IERANGELOWERLIMIT	IQUANT	9	I/E Range Lower Limit
IERANGEMODE	TOGGLE	F	I/E AutoRange
IERANGE	IQUANT	9	I/E Range
ACHSELECT	IQUANT	1	Ach Select
ACHRANGE	IQUANT	2	Ach Range
ACHOFFSETENABLE	TOGGLE	F	Ach Offset Enable
ACHOFFSET	QUANT	0	Ach Offset (V)
ACHFILTER	IQUANT	1	Ach Filter
CABLEID	IQUANT	14	Cable ID
DCCALDATE	LABEL	5-7-2017	DC Calibration Date
ACCALDATE	LABEL	12/3/2015	AC Calibration Date
FRAMEWORKVERSION	QUANT	7.01	Framework Version
INSTRUMENTVERSION	LABEL	4.00	Instrument Version
CURVE	TABLE	81
	Pt	T	Vf	Im	Vu	Pwr	Sig	Ach	Temp	IERange	Over
	#	s	V	A	V	W	V	V	deg C	#	bits
	0	0.013333	2.62927E-001	1.00518E-004	0.00000E+000	2.64288E-005	5.99601E-002	2.63005E-001	3.57720E+000	9	...........
	1	0.026667	2.85531E-001	1.01081E-004	0.00000E+000	2.88619E-005	5.99601E-002	2.85590E-001	3.57720E+000	9	...........
	2	0.04	3.06534E-001	1.00564E-004	0.00000E+000	3.08262E-005	5.99601E-002	3.06595E-001	3.57720E+000	9	...........
	3	0.053333	3.26311E-001	1.01139E-004	0.00000E+000	3.30026E-005	5.99601E-002	3.26377E-001	3.57720E+000	9	...........
	4	0.066667	3.45084E-001	1.00650E-004	0.00000E+000	3.47327E-005	5.99601E-002	3.45152E-001	3.57720E+000	9	...........
	5	0.08	3.63010E-001	1.00896E-004	0.00000E+000	3.66262E-005	5.99601E-002	3.63086E-001	3.57720E+000	9	...........
	6	0.093333	3.80207E-001	1.01122E-004	0.00000E+000	3.84473E-005	5.99601E-002	3.80286E-001	3.57720E+000	9	...........
	7	0.106667	3.96779E-001	1.01337E-004	0.00000E+000	4.02083E-005	5.99601E-002	3.96855E-001	3.57720E+000	9	...........
	8	0.12	4.12783E-001	1.01944E-004	0.00000E+000	4.20807E-005	5.99601E-002	4.12865E-001	3.57720E+000	9	...........
	9	0.133333	4.28294E-001	1.01144E-004	0.00000E+000	4.33194E-005	5.99601E-002	4.28383E-001	3.57720E+000	9	...........
	10	0.146667	4.43370E-001	1.00658E-004	0.00000E+000	4.46289E-005	5.99601E-002	4.43466E-001	3.57754E+000	9	...........
	11	0.16	4.58069E-001	1.01467E-004	0.00000E+000	4.64789E-005	5.99601E-002	4.58160E-001	3.57770E+000	9	...........
	12	0.173333	4.72390E-001	1.00710E-004	0.00000E+000	4.75746E-005	5.99601E-002	4.72490E-001	3.57770E+000	9	...........
	13	0.186667	4.86383E-001	1.00022E-004	0.00000E+000	4.86489E-005	5.99601E-002	4.86486E-001	3.57770E+000	9	...........
	14	0.2	5.00073E-001	1.00075E-004	0.00000E+000	5.00448E-005	5.99601E-002	5.00176E-001	3.57770E+000	9	...........
	15	0.213333	5.13479E-001	1.01655E-004	0.00000E+000	5.21980E-005	5.99601E-002	5.13586E-001	3.57770E+000	9	...........
	16	0.226667	5.26623E-001	1.00639E-004	0.00000E+000	5.29986E-005	5.99601E-002	5.26735E-001	3.57770E+000	9	...........
	17	0.24	5.39233E-001	1.01318E-004	0.00000E+000	5.46340E-005	5.99601E-002	5.39449E-001	3.57770E+000	9	...........
	18	0.253333	5.51858E-001	1.01085E-004	0.00000E+000	5.57843E-005	5.99601E-002	5.52056E-001	3.57770E+000	9	...........
	19	0.266667	5.64305E-001	1.00411E-004	0.00000E+000	5.66627E-005	5.99601E-002	5.64527E-001	3.57770E+000	9	...........
	20	0.28	5.76530E-001	1.00804E-004	0.00000E+000	5.81166E-005	5.99601E-002	5.76727E-001	3.57770E+000	9	...........
	21	0.293333	5.88538E-001	9.96832E-005	0.00000E+000	5.86673E-005	5.99601E-002	5.88757E-001	3.57770E+000	9	...........
	22	0.306667	6.00366E-001	1.01144E-004	0.00000E+000	6.07233E-005	5.99601E-002	6.00585E-001	3.57770E+000	9	...........
	23	0.32	6.11975E-001	1.00563E-004	0.00000E+000	6.15418E-005	5.99601E-002	6.12221E-001	3.57770E+000	9	...........
	24	0.333333	6.23442E-001	1.00913E-004	0.00000E+000	6.29131E-005	5.99601E-002	6.23643E-001	3.57770E+000	9	...........
	25	0.346667	6.34676E-001	1.00390E-004	0.00000E+000	6.37149E-005	5.99601E-002	6.34933E-001	3.57770E+000	9	...........
	26	0.36	6.45735E-001	1.00005E-004	0.00000E+000	6.45768E-005	5.99601E-002	6.46009E-001	3.57770E+000	9	...........
	27	0.373333	6.56628E-001	1.00658E-004	0.00000E+000	6.60951E-005	5.99601E-002	6.56909E-001	3.57770E+000	9	...........
	28	0.386667	6.67357E-001	1.01943E-004	0.00000E+000	6.80324E-005	5.99601E-002	6.67654E-001	3.57770E+000	9	...........
	29	0.4	6.77901E-001	1.01459E-004	0.00000E+000	6.87788E-005	5.99601E-002	6.78192E-001	3.57770E+000	9	...........
	30	0.413333	6.88257E-001	1.01934E-004	0.00000E+000	7.01566E-005	5.99601E-002	6.88550E-001	3.57770E+000	9	...........
	31	0.426667	6.98455E-001	1.01041E-004	0.00000E+000	7.05724E-005	5.99601E-002	6.98749E-001	3.57770E+000	9	...........
	32	0.44	7.08470E-001	1.00973E-004	0.00000E+000	7.15363E-005	5.99601E-002	7.08771E-001	3.57770E+000	9	...........
	33	0.453333	7.18358E-001	1.01101E-004	0.00000E+000	7.26269E-005	5.99601E-002	7.18643E-001	3.57770E+000	9	...........
	34	0.466667	7.28050E-001	1.01433E-004	0.00000E+000	7.38480E-005	5.99601E-002	7.28336E-001	3.57770E+000	9	...........
	35	0.48	7.37553E-001	1.00185E-004	0.00000E+000	7.38920E-005	5.99601E-002	7.37838E-001	3.57770E+000	9	...........
	36	0.493333	7.46899E-001	1.00386E-004	0.00000E+000	7.49785E-005	5.99601E-002	7.47221E-001	3.57770E+000	9	...........
	37	0.506667	7.56083E-001	1.01377E-004	0.00000E+000	7.66497E-005	5.99601E-002	7.56392E-001	3.57770E+000	9	...........
	38	0.52	7.65084E-001	1.00405E-004	0.00000E+000	7.68185E-005	5.99601E-002	7.65405E-001	3.57770E+000	9	...........
	39	0.533333	7.73914E-001	1.01524E-004	0.00000E+000	7.85710E-005	5.99601E-002	7.74234E-001	3.57770E+000	9	...........
	40	0.546667	7.82551E-001	1.00894E-004	0.00000E+000	7.89546E-005	5.99601E-002	7.82869E-001	3.57770E+000	9	...........
	41	0.56	7.91036E-001	1.01964E-004	0.00000E+000	8.06571E-005	5.99601E-002	7.91346E-001	3.57770E+000	9	...........
	42	0.573333	7.99353E-001	1.00627E-004	0.00000E+000	8.04366E-005	5.99601E-002	7.99657E-001	3.57770E+000	9	...........
	43	0.586667	8.07452E-001	1.01242E-004	0.00000E+000	8.17480E-005	5.99601E-002	8.07791E-001	3.57770E+000	9	...........
	44	0.6	8.15408E-001	1.01100E-004	0.00000E+000	8.24379E-005	5.99601E-002	8.15738E-001	3.57770E+000	9	...........
	45	0.613333	8.23187E-001	1.00811E-004	0.00000E+000	8.29859E-005	5.99601E-002	8.23508E-001	3.57770E+000	9	...........
	46	0.626667	8.30771E-001	1.01534E-004	0.00000E+000	8.43512E-005	5.99601E-002	8.31096E-001	3.57770E+000	9	...........
	47	0.64	8.38195E-001	1.01164E-004	0.00000E+000	8.47949E-005	5.99601E-002	8.38508E-001	3.57770E+000	9	...........
	48	0.653333	8.45459E-001	1.01167E-004	0.00000E+000	8.55324E-005	5.99601E-002	8.45776E-001	3.57770E+000	9	...........
	49	0.666667	8.52539E-001	1.01291E-004	0.00000E+000	8.63544E-005	5.99601E-002	8.52851E-001	3.57770E+000	9	...........
	50	0.68	8.59429E-001	1.00957E-004	0.00000E+000	8.67657E-005	5.99601E-002	8.59734E-001	3.57770E+000	9	...........
	51	0.693333	8.66154E-001	1.01131E-004	0.00000E+000	8.75954E-005	5.99601E-002	8.66471E-001	3.57770E+000	9	...........
	52	0.706667	8.72753E-001	1.01364E-004	0.00000E+000	8.84655E-005	5.99601E-002	8.73051E-001	3.57770E+000	9	...........
	53	0.72	8.79134E-001	1.00869E-004	0.00000E+000	8.86772E-005	5.99601E-002	8.79428E-001	3.57770E+000	9	...........
	54	0.733333	8.85364E-001	1.01591E-004	0.00000E+000	8.99449E-005	5.99601E-002	8.85684E-001	3.57770E+000	9	...........
	55	0.746667	8.91422E-001	1.00583E-004	0.00000E+000	8.96623E-005	5.99601E-002	8.91724E-001	3.57770E+000	9	...........
	56	0.76	8.97321E-001	1.01203E-004	0.00000E+000	9.08118E-005	5.99601E-002	8.97682E-001	3.57770E+000	9	...........
	57	0.773333	9.03039E-001	1.00888E-004	0.00000E+000	9.11054E-005	5.99601E-002	9.03393E-001	3.57770E+000	9	...........
	58	0.786667	9.08607E-001	1.00580E-004	0.00000E+000	9.13879E-005	5.99601E-002	9.08943E-001	3.57770E+000	9	...........
	59	0.8	9.14048E-001	1.00564E-004	0.00000E+000	9.19199E-005	5.99601E-002	9.14372E-001	3.57770E+000	9	...........
	60	0.813333	9.19337E-001	1.01518E-004	0.00000E+000	9.33293E-005	5.99601E-002	9.19660E-001	3.57770E+000	9	...........
	61	0.826667	9.24509E-001	1.00563E-004	0.00000E+000	9.29710E-005	5.99601E-002	9.24775E-001	3.57770E+000	9	...........
	62	0.84	9.29461E-001	1.00451E-004	0.00000E+000	9.33654E-005	5.99601E-002	9.29773E-001	3.57770E+000	9	...........
	63	0.853333	9.34323E-001	1.01057E-004	0.00000E+000	9.44203E-005	5.99601E-002	9.34625E-001	3.57770E+000	9	...........
	64	0.866667	9.39043E-001	1.01451E-004	0.00000E+000	9.52672E-005	5.99601E-002	9.39360E-001	3.57770E+000	9	...........
	65	0.88	9.43616E-001	1.01240E-004	0.00000E+000	9.55315E-005	5.99601E-002	9.43939E-001	3.57770E+000	9	...........
	66	0.893333	9.48117E-001	1.00923E-004	0.00000E+000	9.56868E-005	5.99601E-002	9.48466E-001	3.57770E+000	9	...........
	67	0.906667	9.52485E-001	1.00251E-004	0.00000E+000	9.54876E-005	5.99601E-002	9.52810E-001	3.57770E+000	9	...........
	68	0.92	9.56721E-001	1.00622E-004	0.00000E+000	9.62671E-005	5.99601E-002	9.57058E-001	3.57770E+000	9	...........
	69	0.933333	9.60853E-001	1.00540E-004	0.00000E+000	9.66038E-005	5.99601E-002	9.61201E-001	3.57770E+000	9	...........
	70	0.946667	9.64898E-001	1.00961E-004	0.00000E+000	9.74166E-005	5.99601E-002	9.65263E-001	3.57770E+000	9	...........
	71	0.96	9.68853E-001	1.01199E-004	0.00000E+000	9.80471E-005	5.99601E-002	9.69210E-001	3.57770E+000	9	...........
	72	0.97333	9.72726E-001	1.00965E-004	0.00000E+000	9.82110E-005	5.99601E-002	9.73103E-001	3.57770E+000	9	...........
	73	0.98667	9.76507E-001	1.00043E-004	0.00000E+000	9.76924E-005	5.99601E-002	9.76866E-001	3.57770E+000	9	...........
	74	1	9.80180E-001	1.00899E-004	0.00000E+000	9.88993E-005	5.99601E-002	9.80554E-001	3.57770E+000	9	...........
	75	1.01333	9.83764E-001	1.01173E-004	0.00000E+000	9.95304E-005	5.99601E-002	9.84165E-001	3.57770E+000	9	...........
	76	1.02667	9.87259E-001	1.01458E-004	0.00000E+000	1.00165E-004	5.99601E-002	9.87669E-001	3.57770E+000	9	...........
	77	1.04	9.90684E-001	1.00735E-004	0.00000E+000	9.97970E-005	5.99601E-002	9.91067E-001	3.57770E+000	9	...........
	78	1.05333	9.94006E-001	1.01578E-004	0.00000E+000	1.00970E-004	5.99601E-002	9.94382E-001	3.57770E+000	9	...........
	79	1.06667	9.97245E-001	1.00471E-004	0.00000E+000	1.00194E-004	5.99601E-002	9.97651E-001	3.57770E+000	9	...........
	80	1.07333	9.99648E-001	9.96832E-005	0.00000E+000	9.96481E-005	5.99601E-002	1.00001E+000	3.57770E+000	9	...........
STARTTIMEOFFSET	QUANT	163.7933	Start Time Offset (s)
