EXPLAIN
TAG	PWR800_CHARGE
TITLE	LABEL	PWR Cyclic Charge Discharge (Cell) - Charge Step	Test &Identifier
DATE	LABEL	12-7-2017	Date
TIME	LABEL	16:44:01	Time
NOTES	NOTES	2	&Notes...
	supercap test cell
	6M KOH
PSTAT	PSTAT	IFC5000-01520	Potentiostat
CAPACITY	QUANT	1.00000E-003	Capacity (A-hr)
CELLTYPE	SELECTOR	1	&Cell Type
WORKINGCONNECTION	SELECTOR	0	&Working Lead
MAXCHARGETIME	VARIABLEANDUNITS	1.00000E+002	s	1.00000E+002	second(s)	Max &Charge Time
CHARGECURRENT	QUANT	1.00000E-004	&Charge Current (A) 
VOLTAGEFINISH	TWOPARAM	F	1.00000E-003	3.60000E+003	&Voltage Finish	 I (A) < 	Max Time(s)
SAMPLETIME	QUANT	1.00000E-002	Sa&mple Period (s)
CHARGESTOPAT1	MULTIPARAM	4	1.00000E+000	Charge Stop At &1	Voltage > Limit	V
CHARGESTOPAT2	MULTIPARAM	0	0.00000E+000	Charge Stop At &2	None	N/A
AESBHCSELECTOR	TOGGLE	F	Save Both Half Cells
IRCOMP	TOGGLE	F	IR &Measure
EOC	QUANT	0	Open Circuit (V)
SEQUENCER	TOGGLE	TRUE	Run as Sequence
PSTATMODEL	IQUANT	53	Pstat Model
PSTATSECTION	LABEL	IFC5000-01520	Pstat Section
PSTATSERIALNO	LABEL	01520	Pstat Serial Number
CTRLMODE	IQUANT	0	Control Mode
ELECTROMETER	IQUANT	1	RE=0 or CS=1
IESTAB	IQUANT	0	I/E Stability
CASPEED	IQUANT	4	Control Amp Speed
CONVENTION	IQUANT	1	Current Convention
ICHRANGE	IQUANT	2	Ich Range
ICHRANGEMODE	TOGGLE	T	Ich Auto Range
ICHOFFSETENABLE	TOGGLE	F	Ich Offset Enable
ICHOFFSET	QUANT	0	Ich Offset (V)
ICHFILTER	IQUANT	1	Ich Filter
VCHRANGE	IQUANT	2	Vch Range
VCHRANGEMODE	TOGGLE	T	Vch Auto Range
VCHOFFSETENABLE	TOGGLE	F	Vch Offset Enable
VCHOFFSET	QUANT	0	Vch Offset (V)
VCHFILTER	IQUANT	1	Vch Filter
IERANGELOWERLIMIT	IQUANT	9	I/E Range Lower Limit
IERANGEMODE	TOGGLE	F	I/E AutoRange
IERANGE	IQUANT	9	I/E Range
ACHSELECT	IQUANT	1	Ach Select
ACHRANGE	IQUANT	2	Ach Range
ACHOFFSETENABLE	TOGGLE	F	Ach Offset Enable
ACHOFFSET	QUANT	0	Ach Offset (V)
ACHFILTER	IQUANT	1	Ach Filter
CABLEID	IQUANT	14	Cable ID
DCCALDATE	LABEL	5-7-2017	DC Calibration Date
ACCALDATE	LABEL	12/3/2015	AC Calibration Date
FRAMEWORKVERSION	QUANT	7.01	Framework Version
INSTRUMENTVERSION	LABEL	4.00	Instrument Version
CURVE	TABLE	75
	Pt	T	Vf	Im	Vu	Pwr	Sig	Ach	Temp	IERange	Over
	#	s	V	A	V	W	V	V	deg C	#	bits
	0	0.013333	2.56183E-001	1.00574E-004	0.00000E+000	2.57653E-005	5.99601E-002	2.56266E-001	3.57650E+000	9	...........
	1	0.026667	2.79258E-001	1.01035E-004	0.00000E+000	2.82147E-005	5.99601E-002	2.79315E-001	3.57650E+000	9	...........
	2	0.04	3.01066E-001	1.02420E-004	0.00000E+000	3.08353E-005	5.99601E-002	3.01136E-001	3.57650E+000	9	...........
	3	0.053333	3.21979E-001	1.00678E-004	0.00000E+000	3.24163E-005	5.99601E-002	3.22046E-001	3.57650E+000	9	...........
	4	0.066667	3.42169E-001	1.01169E-004	0.00000E+000	3.46169E-005	5.99601E-002	3.42236E-001	3.57650E+000	9	...........
	5	0.08	3.61763E-001	1.00903E-004	0.00000E+000	3.65030E-005	5.99601E-002	3.61834E-001	3.57650E+000	9	...........
	6	0.093333	3.80824E-001	9.99905E-005	0.00000E+000	3.80788E-005	5.99601E-002	3.80899E-001	3.57650E+000	9	...........
	7	0.106667	3.99408E-001	1.00640E-004	0.00000E+000	4.01962E-005	5.99601E-002	3.99484E-001	3.57650E+000	9	...........
	8	0.12	4.17547E-001	1.01806E-004	0.00000E+000	4.25085E-005	5.99601E-002	4.17632E-001	3.57650E+000	9	...........
	9	0.133333	4.35286E-001	1.00729E-004	0.00000E+000	4.38461E-005	5.99601E-002	4.35380E-001	3.57650E+000	9	...........
	10	0.146667	4.52628E-001	1.00097E-004	0.00000E+000	4.53066E-005	5.99601E-002	4.52723E-001	3.57650E+000	9	...........
	11	0.16	4.69593E-001	1.00616E-004	0.00000E+000	4.72484E-005	5.99601E-002	4.69689E-001	3.57650E+000	9	...........
	12	0.173333	4.86187E-001	1.00841E-004	0.00000E+000	4.90275E-005	5.99601E-002	4.86288E-001	3.57650E+000	9	...........
	13	0.186667	5.02423E-001	1.01420E-004	0.00000E+000	5.09557E-005	5.99601E-002	5.02529E-001	3.57654E+000	9	...........
	14	0.2	5.18306E-001	1.00992E-004	0.00000E+000	5.23447E-005	5.99601E-002	5.18421E-001	3.57690E+000	9	...........
	15	0.213333	5.33738E-001	1.00192E-004	0.00000E+000	5.34761E-005	5.99601E-002	5.33880E-001	3.57690E+000	9	...........
	16	0.226667	5.48762E-001	1.01916E-004	0.00000E+000	5.59276E-005	5.99601E-002	5.48995E-001	3.57690E+000	9	...........
	17	0.24	5.63646E-001	1.01191E-004	0.00000E+000	5.70358E-005	5.99601E-002	5.63877E-001	3.57690E+000	9	...........
	18	0.253333	5.78175E-001	1.01650E-004	0.00000E+000	5.87717E-005	5.99601E-002	5.78401E-001	3.57690E+000	9	...........
	19	0.266667	5.92370E-001	1.01339E-004	0.00000E+000	6.00301E-005	5.99601E-002	5.92611E-001	3.57690E+000	9	...........
	20	0.28	6.06212E-001	1.01329E-004	0.00000E+000	6.14271E-005	5.99601E-002	6.06462E-001	3.57690E+000	9	...........
	21	0.293333	6.19822E-001	1.01002E-004	0.00000E+000	6.26034E-005	5.99601E-002	6.20014E-001	3.57690E+000	9	...........
	22	0.306667	6.33015E-001	1.00386E-004	0.00000E+000	6.35462E-005	5.99601E-002	6.33243E-001	3.57690E+000	9	...........
	23	0.32	6.45930E-001	1.02153E-004	0.00000E+000	6.59840E-005	5.99601E-002	6.46188E-001	3.57690E+000	9	...........
	24	0.333333	6.58554E-001	1.01800E-004	0.00000E+000	6.70410E-005	5.99601E-002	6.58782E-001	3.57690E+000	9	...........
	25	0.346667	6.70818E-001	1.00769E-004	0.00000E+000	6.75976E-005	5.99601E-002	6.71087E-001	3.57690E+000	9	...........
	26	0.36	6.82804E-001	1.01329E-004	0.00000E+000	6.91881E-005	5.99601E-002	6.83048E-001	3.57690E+000	9	...........
	27	0.373333	6.94493E-001	9.94331E-005	0.00000E+000	6.90556E-005	5.99601E-002	6.94745E-001	3.57690E+000	9	...........
	28	0.386667	7.05869E-001	1.00043E-004	0.00000E+000	7.06170E-005	5.99601E-002	7.06113E-001	3.57690E+000	9	...........
	29	0.4	7.16966E-001	1.00838E-004	0.00000E+000	7.22972E-005	5.99601E-002	7.17215E-001	3.57690E+000	9	...........
	30	0.413333	7.27762E-001	1.00631E-004	0.00000E+000	7.32356E-005	5.99601E-002	7.28003E-001	3.57690E+000	9	...........
	31	0.426667	7.38231E-001	1.01459E-004	0.00000E+000	7.48998E-005	5.99601E-002	7.38481E-001	3.57690E+000	9	...........
	32	0.44	7.48457E-001	1.01650E-004	0.00000E+000	7.60808E-005	5.99601E-002	7.48686E-001	3.57690E+000	9	...........
	33	0.453333	7.58389E-001	1.00798E-004	0.00000E+000	7.64441E-005	5.99601E-002	7.58642E-001	3.57690E+000	9	...........
	34	0.466667	7.68022E-001	1.00917E-004	0.00000E+000	7.75063E-005	5.99601E-002	7.68290E-001	3.57690E+000	9	...........
	35	0.48	7.77426E-001	1.00628E-004	0.00000E+000	7.82310E-005	5.99601E-002	7.77677E-001	3.57690E+000	9	...........
	36	0.493333	7.86520E-001	1.00232E-004	0.00000E+000	7.88346E-005	5.99601E-002	7.86780E-001	3.57690E+000	9	...........
	37	0.506667	7.95367E-001	9.97613E-005	0.00000E+000	7.93468E-005	5.99601E-002	7.95646E-001	3.57690E+000	9	...........
	38	0.52	8.03951E-001	1.01016E-004	0.00000E+000	8.12117E-005	5.99601E-002	8.04220E-001	3.57690E+000	9	...........
	39	0.533333	8.12263E-001	1.01439E-004	0.00000E+000	8.23950E-005	5.99601E-002	8.12538E-001	3.57690E+000	9	...........
	40	0.546667	8.20320E-001	1.00710E-004	0.00000E+000	8.26148E-005	5.99601E-002	8.20638E-001	3.57690E+000	9	...........
	41	0.56	8.28128E-001	1.00967E-004	0.00000E+000	8.36134E-005	5.99601E-002	8.28441E-001	3.57690E+000	9	...........
	42	0.573333	8.35675E-001	1.00584E-004	0.00000E+000	8.40559E-005	5.99601E-002	8.35990E-001	3.57690E+000	9	...........
	43	0.586667	8.43005E-001	1.00054E-004	0.00000E+000	8.43462E-005	5.99601E-002	8.43319E-001	3.57690E+000	9	...........
	44	0.6	8.50131E-001	1.02921E-004	0.00000E+000	8.74966E-005	5.99601E-002	8.50452E-001	3.57690E+000	9	...........
	45	0.613333	8.56984E-001	1.02042E-004	0.00000E+000	8.74484E-005	5.99601E-002	8.57307E-001	3.57690E+000	9	...........
	46	0.626667	8.63658E-001	1.00469E-004	0.00000E+000	8.67707E-005	5.99601E-002	8.63983E-001	3.57690E+000	9	...........
	47	0.64	8.70144E-001	1.00339E-004	0.00000E+000	8.73090E-005	5.99601E-002	8.70456E-001	3.57690E+000	9	...........
	48	0.653333	8.76420E-001	1.00820E-004	0.00000E+000	8.83606E-005	5.99601E-002	8.76728E-001	3.57690E+000	9	...........
	49	0.666667	8.82524E-001	1.00295E-004	0.00000E+000	8.85125E-005	5.99601E-002	8.82832E-001	3.57690E+000	9	...........
	50	0.68	8.88434E-001	1.01655E-004	0.00000E+000	9.03141E-005	5.99601E-002	8.88772E-001	3.57690E+000	9	...........
	51	0.693333	8.94238E-001	1.00820E-004	0.00000E+000	9.01570E-005	5.99601E-002	8.94513E-001	3.57690E+000	9	...........
	52	0.706667	8.99849E-001	9.98447E-005	0.00000E+000	8.98451E-005	5.99601E-002	9.00145E-001	3.57690E+000	9	...........
	53	0.72	9.05329E-001	1.00128E-004	0.00000E+000	9.06488E-005	5.99601E-002	9.05634E-001	3.57690E+000	9	...........
	54	0.733333	9.10728E-001	1.01100E-004	0.00000E+000	9.20747E-005	5.99601E-002	9.11010E-001	3.57690E+000	9	...........
	55	0.746667	9.15972E-001	1.00272E-004	0.00000E+000	9.18463E-005	5.99601E-002	9.16289E-001	3.57690E+000	9	...........
	56	0.76	9.21151E-001	1.00904E-004	0.00000E+000	9.29480E-005	5.99601E-002	9.21448E-001	3.57690E+000	9	...........
	57	0.773333	9.26225E-001	1.00970E-004	0.00000E+000	9.35209E-005	5.99601E-002	9.26505E-001	3.57690E+000	9	...........
	58	0.786667	9.31168E-001	1.00925E-004	0.00000E+000	9.39782E-005	5.99601E-002	9.31453E-001	3.57690E+000	9	...........
	59	0.8	9.36044E-001	1.02030E-004	0.00000E+000	9.55041E-005	5.99601E-002	9.36355E-001	3.57690E+000	9	...........
	60	0.813333	9.40802E-001	1.02088E-004	0.00000E+000	9.60444E-005	5.99601E-002	9.41134E-001	3.57690E+000	9	...........
	61	0.826667	9.45516E-001	1.00373E-004	0.00000E+000	9.49042E-005	5.99601E-002	9.45845E-001	3.57690E+000	9	...........
	62	0.84	9.50181E-001	9.99635E-005	0.00000E+000	9.49834E-005	5.99601E-002	9.50501E-001	3.57690E+000	9	...........
	63	0.853333	9.54739E-001	1.01687E-004	0.00000E+000	9.70843E-005	5.99601E-002	9.55031E-001	3.57690E+000	9	...........
	64	0.866667	9.59203E-001	1.01046E-004	0.00000E+000	9.69237E-005	5.99601E-002	9.59529E-001	3.57690E+000	9	...........
	65	0.88	9.63595E-001	1.01394E-004	0.00000E+000	9.77027E-005	5.99601E-002	9.63954E-001	3.57690E+000	9	...........
	66	0.893333	9.67930E-001	1.02040E-004	0.00000E+000	9.87676E-005	5.99601E-002	9.68273E-001	3.57690E+000	9	...........
	67	0.906667	9.72203E-001	1.02313E-004	0.00000E+000	9.94689E-005	5.99601E-002	9.72541E-001	3.57690E+000	9	...........
	68	0.92	9.76405E-001	1.01132E-004	0.00000E+000	9.87462E-005	5.99601E-002	9.76731E-001	3.57690E+000	9	...........
	69	0.933333	9.80498E-001	1.00802E-004	0.00000E+000	9.88363E-005	5.99601E-002	9.80826E-001	3.57690E+000	9	...........
	70	0.946667	9.84515E-001	1.01060E-004	0.00000E+000	9.94946E-005	5.99601E-002	9.84842E-001	3.57690E+000	9	...........
	71	0.96	9.88473E-001	1.01836E-004	0.00000E+000	1.00662E-004	5.99601E-002	9.88796E-001	3.57690E+000	9	...........
	72	0.97333	9.92318E-001	1.00441E-004	0.00000E+000	9.96691E-005	5.99601E-002	9.92644E-001	3.57690E+000	9	...........
	73	0.98667	9.96108E-001	1.00983E-004	0.00000E+000	1.00590E-004	5.99601E-002	9.96424E-001	3.57690E+000	9	...........
	74	0.99667	9.99354E-001	1.00836E-004	0.00000E+000	1.00770E-004	5.99601E-002	9.99667E-001	3.57690E+000	9	...........
STARTTIMEOFFSET	QUANT	1448.473	Start Time Offset (s)
