EXPLAIN
TAG	PWR800_CHARGE
TITLE	LABEL	PWR Cyclic Charge Discharge (Cell) - Charge Step	Test &Identifier
DATE	LABEL	12-7-2017	Date
TIME	LABEL	16:40:36	Time
NOTES	NOTES	2	&Notes...
	supercap test cell
	6M KOH
PSTAT	PSTAT	IFC5000-01520	Potentiostat
CAPACITY	QUANT	1.00000E-003	Capacity (A-hr)
CELLTYPE	SELECTOR	1	&Cell Type
WORKINGCONNECTION	SELECTOR	0	&Working Lead
MAXCHARGETIME	VARIABLEANDUNITS	1.00000E+002	s	1.00000E+002	second(s)	Max &Charge Time
CHARGECURRENT	QUANT	1.00000E-004	&Charge Current (A) 
VOLTAGEFINISH	TWOPARAM	F	1.00000E-003	3.60000E+003	&Voltage Finish	 I (A) < 	Max Time(s)
SAMPLETIME	QUANT	1.00000E-002	Sa&mple Period (s)
CHARGESTOPAT1	MULTIPARAM	4	1.00000E+000	Charge Stop At &1	Voltage > Limit	V
CHARGESTOPAT2	MULTIPARAM	0	0.00000E+000	Charge Stop At &2	None	N/A
AESBHCSELECTOR	TOGGLE	F	Save Both Half Cells
IRCOMP	TOGGLE	F	IR &Measure
EOC	QUANT	0	Open Circuit (V)
SEQUENCER	TOGGLE	TRUE	Run as Sequence
PSTATMODEL	IQUANT	53	Pstat Model
PSTATSECTION	LABEL	IFC5000-01520	Pstat Section
PSTATSERIALNO	LABEL	01520	Pstat Serial Number
CTRLMODE	IQUANT	0	Control Mode
ELECTROMETER	IQUANT	1	RE=0 or CS=1
IESTAB	IQUANT	0	I/E Stability
CASPEED	IQUANT	4	Control Amp Speed
CONVENTION	IQUANT	1	Current Convention
ICHRANGE	IQUANT	2	Ich Range
ICHRANGEMODE	TOGGLE	T	Ich Auto Range
ICHOFFSETENABLE	TOGGLE	F	Ich Offset Enable
ICHOFFSET	QUANT	0	Ich Offset (V)
ICHFILTER	IQUANT	1	Ich Filter
VCHRANGE	IQUANT	2	Vch Range
VCHRANGEMODE	TOGGLE	T	Vch Auto Range
VCHOFFSETENABLE	TOGGLE	F	Vch Offset Enable
VCHOFFSET	QUANT	0	Vch Offset (V)
VCHFILTER	IQUANT	1	Vch Filter
IERANGELOWERLIMIT	IQUANT	9	I/E Range Lower Limit
IERANGEMODE	TOGGLE	F	I/E AutoRange
IERANGE	IQUANT	9	I/E Range
ACHSELECT	IQUANT	1	Ach Select
ACHRANGE	IQUANT	2	Ach Range
ACHOFFSETENABLE	TOGGLE	F	Ach Offset Enable
ACHOFFSET	QUANT	0	Ach Offset (V)
ACHFILTER	IQUANT	1	Ach Filter
CABLEID	IQUANT	14	Cable ID
DCCALDATE	LABEL	5-7-2017	DC Calibration Date
ACCALDATE	LABEL	12/3/2015	AC Calibration Date
FRAMEWORKVERSION	QUANT	7.01	Framework Version
INSTRUMENTVERSION	LABEL	4.00	Instrument Version
CURVE	TABLE	75
	Pt	T	Vf	Im	Vu	Pwr	Sig	Ach	Temp	IERange	Over
	#	s	V	A	V	W	V	V	deg C	#	bits
	0	0.013333	2.59699E-001	1.00299E-004	0.00000E+000	2.60475E-005	5.99601E-002	2.59780E-001	3.57790E+000	9	...........
	1	0.026667	2.82667E-001	1.00619E-004	0.00000E+000	2.84416E-005	5.99601E-002	2.82734E-001	3.57790E+000	9	...........
	2	0.04	3.04379E-001	1.01528E-004	0.00000E+000	3.09031E-005	5.99601E-002	3.04445E-001	3.57790E+000	9	...........
	3	0.053333	3.25175E-001	9.97363E-005	0.00000E+000	3.24318E-005	5.99601E-002	3.25245E-001	3.57790E+000	9	...........
	4	0.066667	3.45248E-001	1.00066E-004	0.00000E+000	3.45474E-005	5.99601E-002	3.45322E-001	3.57790E+000	9	...........
	5	0.08	3.64705E-001	1.00325E-004	0.00000E+000	3.65890E-005	5.99601E-002	3.64791E-001	3.57790E+000	9	...........
	6	0.093333	3.83638E-001	1.00575E-004	0.00000E+000	3.85844E-005	5.99601E-002	3.83724E-001	3.57790E+000	9	...........
	7	0.106667	4.02089E-001	1.00695E-004	0.00000E+000	4.04883E-005	5.99601E-002	4.02171E-001	3.57790E+000	9	...........
	8	0.12	4.20093E-001	1.00332E-004	0.00000E+000	4.21489E-005	5.99601E-002	4.20185E-001	3.57790E+000	9	...........
	9	0.133333	4.37679E-001	1.01002E-004	0.00000E+000	4.42065E-005	5.99601E-002	4.37776E-001	3.57790E+000	9	...........
	10	0.146667	4.54883E-001	1.01127E-004	0.00000E+000	4.60010E-005	5.99601E-002	4.54975E-001	3.57790E+000	9	...........
	11	0.16	4.71707E-001	9.97968E-005	0.00000E+000	4.70749E-005	5.99601E-002	4.71808E-001	3.57790E+000	9	...........
	12	0.173333	4.88162E-001	1.01324E-004	0.00000E+000	4.94626E-005	5.99601E-002	4.88263E-001	3.57790E+000	9	...........
	13	0.186667	5.04253E-001	1.00980E-004	0.00000E+000	5.09197E-005	5.99601E-002	5.04363E-001	3.57790E+000	9	...........
	14	0.2	5.20007E-001	1.01103E-004	0.00000E+000	5.25744E-005	5.99601E-002	5.20121E-001	3.57790E+000	9	...........
	15	0.213333	5.35265E-001	1.00529E-004	0.00000E+000	5.38098E-005	5.99601E-002	5.35428E-001	3.57790E+000	9	...........
	16	0.226667	5.50182E-001	1.00602E-004	0.00000E+000	5.53495E-005	5.99601E-002	5.50435E-001	3.57790E+000	9	...........
	17	0.24	5.64946E-001	1.01024E-004	0.00000E+000	5.70732E-005	5.99601E-002	5.65179E-001	3.57790E+000	9	...........
	18	0.253333	5.79332E-001	9.97999E-005	0.00000E+000	5.78172E-005	5.99601E-002	5.79586E-001	3.57790E+000	9	...........
	19	0.266667	5.93417E-001	1.00280E-004	0.00000E+000	5.95080E-005	5.99601E-002	5.93686E-001	3.57790E+000	9	...........
	20	0.28	6.07166E-001	1.01187E-004	0.00000E+000	6.14371E-005	5.99601E-002	6.07462E-001	3.57790E+000	9	...........
	21	0.293333	6.20678E-001	1.00897E-004	0.00000E+000	6.26246E-005	5.99601E-002	6.20916E-001	3.57790E+000	9	...........
	22	0.306667	6.33802E-001	1.00763E-004	0.00000E+000	6.38635E-005	5.99601E-002	6.34033E-001	3.57790E+000	9	...........
	23	0.32	6.46624E-001	9.99999E-005	0.00000E+000	6.46624E-005	5.99601E-002	6.46891E-001	3.57790E+000	9	...........
	24	0.333333	6.59144E-001	1.00747E-004	0.00000E+000	6.64067E-005	5.99601E-002	6.59414E-001	3.57790E+000	9	...........
	25	0.346667	6.71378E-001	1.00653E-004	0.00000E+000	6.75764E-005	5.99601E-002	6.71622E-001	3.57790E+000	9	...........
	26	0.36	6.83299E-001	1.00680E-004	0.00000E+000	6.87947E-005	5.99601E-002	6.83542E-001	3.57790E+000	9	...........
	27	0.373333	6.94901E-001	1.00773E-004	0.00000E+000	7.00272E-005	5.99601E-002	6.95173E-001	3.57790E+000	9	...........
	28	0.386667	7.06219E-001	1.01331E-004	0.00000E+000	7.15622E-005	5.99601E-002	7.06468E-001	3.57790E+000	9	...........
	29	0.4	7.17264E-001	9.98332E-005	0.00000E+000	7.16068E-005	5.99601E-002	7.17485E-001	3.57790E+000	9	...........
	30	0.413333	7.28005E-001	9.98593E-005	0.00000E+000	7.26981E-005	5.99601E-002	7.28258E-001	3.57790E+000	9	...........
	31	0.426667	7.38451E-001	1.01537E-004	0.00000E+000	7.49798E-005	5.99601E-002	7.38693E-001	3.57790E+000	9	...........
	32	0.44	7.48618E-001	1.01902E-004	0.00000E+000	7.62860E-005	5.99601E-002	7.48891E-001	3.57790E+000	9	...........
	33	0.453333	7.58531E-001	1.01361E-004	0.00000E+000	7.68851E-005	5.99601E-002	7.58777E-001	3.57790E+000	9	...........
	34	0.466667	7.68182E-001	1.00088E-004	0.00000E+000	7.68861E-005	5.99601E-002	7.68426E-001	3.57790E+000	9	...........
	35	0.48	7.77521E-001	1.01101E-004	0.00000E+000	7.86083E-005	5.99601E-002	7.77785E-001	3.57790E+000	9	...........
	36	0.493333	7.86627E-001	1.01718E-004	0.00000E+000	8.00141E-005	5.99601E-002	7.86855E-001	3.57790E+000	9	...........
	37	0.506667	7.95452E-001	1.01438E-004	0.00000E+000	8.06888E-005	5.99601E-002	7.95711E-001	3.57790E+000	9	...........
	38	0.52	8.04032E-001	1.01801E-004	0.00000E+000	8.18516E-005	5.99601E-002	8.04277E-001	3.57790E+000	9	...........
	39	0.533333	8.12313E-001	1.00741E-004	0.00000E+000	8.18330E-005	5.99601E-002	8.12598E-001	3.57790E+000	9	...........
	40	0.546667	8.20370E-001	1.00104E-004	0.00000E+000	8.21224E-005	5.99601E-002	8.20650E-001	3.57790E+000	9	...........
	41	0.56	8.28180E-001	1.00610E-004	0.00000E+000	8.33236E-005	5.99601E-002	8.28451E-001	3.57790E+000	9	...........
	42	0.573333	8.35714E-001	1.01525E-004	0.00000E+000	8.48461E-005	5.99601E-002	8.36016E-001	3.57790E+000	9	...........
	43	0.586667	8.43059E-001	1.00887E-004	0.00000E+000	8.50534E-005	5.99601E-002	8.43336E-001	3.57790E+000	9	...........
	44	0.6	8.50151E-001	1.01210E-004	0.00000E+000	8.60434E-005	5.99601E-002	8.50429E-001	3.57805E+000	9	...........
	45	0.613333	8.57013E-001	1.02021E-004	0.00000E+000	8.74335E-005	5.99601E-002	8.57288E-001	3.57850E+000	9	...........
	46	0.626667	8.63681E-001	1.01062E-004	0.00000E+000	8.72850E-005	5.99601E-002	8.63959E-001	3.57850E+000	9	...........
	47	0.64	8.70154E-001	1.01003E-004	0.00000E+000	8.78884E-005	5.99601E-002	8.70453E-001	3.57850E+000	9	...........
	48	0.653333	8.76413E-001	1.00092E-004	0.00000E+000	8.77216E-005	5.99601E-002	8.76708E-001	3.57850E+000	9	...........
	49	0.666667	8.82511E-001	9.99791E-005	0.00000E+000	8.82327E-005	5.99601E-002	8.82797E-001	3.57850E+000	9	...........
	50	0.68	8.88432E-001	9.98280E-005	0.00000E+000	8.86904E-005	5.99601E-002	8.88713E-001	3.57850E+000	9	...........
	51	0.693333	8.94191E-001	1.00427E-004	0.00000E+000	8.98010E-005	5.99601E-002	8.94487E-001	3.57850E+000	9	...........
	52	0.706667	8.99808E-001	1.00890E-004	0.00000E+000	9.07813E-005	5.99601E-002	9.00105E-001	3.57850E+000	9	...........
	53	0.72	9.05282E-001	1.01327E-004	0.00000E+000	9.17298E-005	5.99601E-002	9.05584E-001	3.57850E+000	9	...........
	54	0.733333	9.10620E-001	1.00394E-004	0.00000E+000	9.14206E-005	5.99601E-002	9.10929E-001	3.57850E+000	9	...........
	55	0.746667	9.15872E-001	1.02094E-004	0.00000E+000	9.35052E-005	5.99601E-002	9.16189E-001	3.57850E+000	9	...........
	56	0.76	9.21012E-001	1.01800E-004	0.00000E+000	9.37593E-005	5.99601E-002	9.21318E-001	3.57850E+000	9	...........
	57	0.773333	9.26051E-001	1.00937E-004	0.00000E+000	9.34724E-005	5.99601E-002	9.26337E-001	3.57850E+000	9	...........
	58	0.786667	9.30979E-001	1.01164E-004	0.00000E+000	9.41813E-005	5.99601E-002	9.31264E-001	3.57850E+000	9	...........
	59	0.8	9.35824E-001	1.01531E-004	0.00000E+000	9.50156E-005	5.99601E-002	9.36122E-001	3.57850E+000	9	...........
	60	0.813333	9.40564E-001	1.00232E-004	0.00000E+000	9.42749E-005	5.99601E-002	9.40896E-001	3.57850E+000	9	...........
	61	0.826667	9.45243E-001	1.01328E-004	0.00000E+000	9.57799E-005	5.99601E-002	9.45569E-001	3.57850E+000	9	...........
	62	0.84	9.49889E-001	1.00435E-004	0.00000E+000	9.54025E-005	5.99601E-002	9.50211E-001	3.57850E+000	9	...........
	63	0.853333	9.54409E-001	1.01272E-004	0.00000E+000	9.66550E-005	5.99601E-002	9.54739E-001	3.57850E+000	9	...........
	64	0.866667	9.58851E-001	1.02075E-004	0.00000E+000	9.78750E-005	5.99601E-002	9.59175E-001	3.57850E+000	9	...........
	65	0.88	9.63210E-001	1.01316E-004	0.00000E+000	9.75884E-005	5.99601E-002	9.63561E-001	3.57850E+000	9	...........
	66	0.893333	9.67502E-001	1.00844E-004	0.00000E+000	9.75666E-005	5.99601E-002	9.67865E-001	3.57850E+000	9	...........
	67	0.906667	9.71732E-001	1.00988E-004	0.00000E+000	9.81329E-005	5.99601E-002	9.72094E-001	3.57850E+000	9	...........
	68	0.92	9.75920E-001	1.01111E-004	0.00000E+000	9.86758E-005	5.99601E-002	9.76268E-001	3.57850E+000	9	...........
	69	0.933333	9.79976E-001	1.01614E-004	0.00000E+000	9.95791E-005	5.99601E-002	9.80320E-001	3.57850E+000	9	...........
	70	0.946667	9.83965E-001	1.01434E-004	0.00000E+000	9.98071E-005	5.99601E-002	9.84312E-001	3.57850E+000	9	...........
	71	0.96	9.87888E-001	1.00951E-004	0.00000E+000	9.97284E-005	5.99601E-002	9.88226E-001	3.57850E+000	9	...........
	72	0.97333	9.91699E-001	1.00787E-004	0.00000E+000	9.99499E-005	5.99601E-002	9.92045E-001	3.57850E+000	9	...........
	73	0.98667	9.95444E-001	1.01537E-004	0.00000E+000	1.01074E-004	5.99601E-002	9.95781E-001	3.57850E+000	9	...........
	74	0.99833	9.98881E-001	1.01035E-004	0.00000E+000	1.00922E-004	5.99601E-002	9.99255E-001	3.57850E+000	9	...........
STARTTIMEOFFSET	QUANT	1303.608	Start Time Offset (s)
