EXPLAIN
TAG	PWR800_CHARGE
TITLE	LABEL	PWR Cyclic Charge Discharge (Cell) - Charge Step	Test &Identifier
DATE	LABEL	12-7-2017	Date
TIME	LABEL	16:16:04	Time
NOTES	NOTES	2	&Notes...
	supercap test cell
	6M KOH
PSTAT	PSTAT	IFC5000-01520	Potentiostat
CAPACITY	QUANT	1.00000E-003	Capacity (A-hr)
CELLTYPE	SELECTOR	1	&Cell Type
WORKINGCONNECTION	SELECTOR	0	&Working Lead
MAXCHARGETIME	VARIABLEANDUNITS	1.00000E+002	s	1.00000E+002	second(s)	Max &Charge Time
CHARGECURRENT	QUANT	1.00000E-004	&Charge Current (A) 
VOLTAGEFINISH	TWOPARAM	F	1.00000E-003	3.60000E+003	&Voltage Finish	 I (A) < 	Max Time(s)
SAMPLETIME	QUANT	1.00000E-002	Sa&mple Period (s)
CHARGESTOPAT1	MULTIPARAM	4	1.00000E+000	Charge Stop At &1	Voltage > Limit	V
CHARGESTOPAT2	MULTIPARAM	0	0.00000E+000	Charge Stop At &2	None	N/A
AESBHCSELECTOR	TOGGLE	F	Save Both Half Cells
IRCOMP	TOGGLE	F	IR &Measure
EOC	QUANT	0	Open Circuit (V)
SEQUENCER	TOGGLE	TRUE	Run as Sequence
PSTATMODEL	IQUANT	53	Pstat Model
PSTATSECTION	LABEL	IFC5000-01520	Pstat Section
PSTATSERIALNO	LABEL	01520	Pstat Serial Number
CTRLMODE	IQUANT	0	Control Mode
ELECTROMETER	IQUANT	1	RE=0 or CS=1
IESTAB	IQUANT	0	I/E Stability
CASPEED	IQUANT	4	Control Amp Speed
CONVENTION	IQUANT	1	Current Convention
ICHRANGE	IQUANT	2	Ich Range
ICHRANGEMODE	TOGGLE	T	Ich Auto Range
ICHOFFSETENABLE	TOGGLE	F	Ich Offset Enable
ICHOFFSET	QUANT	0	Ich Offset (V)
ICHFILTER	IQUANT	1	Ich Filter
VCHRANGE	IQUANT	2	Vch Range
VCHRANGEMODE	TOGGLE	T	Vch Auto Range
VCHOFFSETENABLE	TOGGLE	F	Vch Offset Enable
VCHOFFSET	QUANT	0	Vch Offset (V)
VCHFILTER	IQUANT	1	Vch Filter
IERANGELOWERLIMIT	IQUANT	9	I/E Range Lower Limit
IERANGEMODE	TOGGLE	F	I/E AutoRange
IERANGE	IQUANT	9	I/E Range
ACHSELECT	IQUANT	1	Ach Select
ACHRANGE	IQUANT	2	Ach Range
ACHOFFSETENABLE	TOGGLE	F	Ach Offset Enable
ACHOFFSET	QUANT	0	Ach Offset (V)
ACHFILTER	IQUANT	1	Ach Filter
CABLEID	IQUANT	14	Cable ID
DCCALDATE	LABEL	5-7-2017	DC Calibration Date
ACCALDATE	LABEL	12/3/2015	AC Calibration Date
FRAMEWORKVERSION	QUANT	7.01	Framework Version
INSTRUMENTVERSION	LABEL	4.00	Instrument Version
CURVE	TABLE	80
	Pt	T	Vf	Im	Vu	Pwr	Sig	Ach	Temp	IERange	Over
	#	s	V	A	V	W	V	V	deg C	#	bits
	0	0.013333	2.62139E-001	1.00846E-004	0.00000E+000	2.64357E-005	5.99601E-002	2.62224E-001	3.57790E+000	9	...........
	1	0.026667	2.84803E-001	1.01729E-004	0.00000E+000	2.89728E-005	5.99601E-002	2.84863E-001	3.57790E+000	9	...........
	2	0.04	3.05895E-001	1.00528E-004	0.00000E+000	3.07511E-005	5.99601E-002	3.05961E-001	3.57790E+000	9	...........
	3	0.053333	3.25805E-001	1.00573E-004	0.00000E+000	3.27672E-005	5.99601E-002	3.25872E-001	3.57790E+000	9	...........
	4	0.066667	3.44758E-001	1.01610E-004	0.00000E+000	3.50308E-005	5.99601E-002	3.44833E-001	3.57790E+000	9	...........
	5	0.08	3.62910E-001	1.00300E-004	0.00000E+000	3.63999E-005	5.99601E-002	3.62990E-001	3.57790E+000	9	...........
	6	0.093333	3.80387E-001	1.01528E-004	0.00000E+000	3.86201E-005	5.99601E-002	3.80466E-001	3.57790E+000	9	...........
	7	0.106667	3.97280E-001	1.00652E-004	0.00000E+000	3.99871E-005	5.99601E-002	3.97359E-001	3.57790E+000	9	...........
	8	0.12	4.13648E-001	1.00533E-004	0.00000E+000	4.15855E-005	5.99601E-002	4.13735E-001	3.57790E+000	9	...........
	9	0.133333	4.29556E-001	1.00402E-004	0.00000E+000	4.31283E-005	5.99601E-002	4.29651E-001	3.57800E+000	9	...........
	10	0.146667	4.45047E-001	1.00746E-004	0.00000E+000	4.48367E-005	5.99601E-002	4.45134E-001	3.57810E+000	9	...........
	11	0.16	4.60143E-001	1.00747E-004	0.00000E+000	4.63580E-005	5.99601E-002	4.60243E-001	3.57810E+000	9	...........
	12	0.173333	4.74896E-001	1.00359E-004	0.00000E+000	4.76602E-005	5.99601E-002	4.74996E-001	3.57810E+000	9	...........
	13	0.186667	4.89325E-001	1.00585E-004	0.00000E+000	4.92190E-005	5.99601E-002	4.89426E-001	3.57810E+000	9	...........
	14	0.2	5.03446E-001	1.00250E-004	0.00000E+000	5.04705E-005	5.99601E-002	5.03557E-001	3.57810E+000	9	...........
	15	0.213333	5.17286E-001	1.00606E-004	0.00000E+000	5.20422E-005	5.99601E-002	5.17396E-001	3.57810E+000	9	...........
	16	0.226667	5.30774E-001	1.00933E-004	0.00000E+000	5.35729E-005	5.99601E-002	5.30923E-001	3.57810E+000	9	...........
	17	0.24	5.43842E-001	1.00318E-004	0.00000E+000	5.45570E-005	5.99601E-002	5.44124E-001	3.57810E+000	9	...........
	18	0.253333	5.56891E-001	1.00706E-004	0.00000E+000	5.60824E-005	5.99601E-002	5.57187E-001	3.57810E+000	9	...........
	19	0.266667	5.69754E-001	1.01541E-004	0.00000E+000	5.78534E-005	5.99601E-002	5.70035E-001	3.57810E+000	9	...........
	20	0.28	5.82323E-001	1.00746E-004	0.00000E+000	5.86667E-005	5.99601E-002	5.82641E-001	3.57810E+000	9	...........
	21	0.293333	5.94747E-001	1.01809E-004	0.00000E+000	6.05504E-005	5.99601E-002	5.95037E-001	3.57810E+000	9	...........
	22	0.306667	6.06884E-001	1.00584E-004	0.00000E+000	6.10431E-005	5.99601E-002	6.07203E-001	3.57810E+000	9	...........
	23	0.32	6.18901E-001	1.01043E-004	0.00000E+000	6.25356E-005	5.99601E-002	6.19157E-001	3.57810E+000	9	...........
	24	0.333333	6.30617E-001	1.01001E-004	0.00000E+000	6.36931E-005	5.99601E-002	6.30881E-001	3.57810E+000	9	...........
	25	0.346667	6.42189E-001	1.01260E-004	0.00000E+000	6.50278E-005	5.99601E-002	6.42459E-001	3.57810E+000	9	...........
	26	0.36	6.53554E-001	1.00050E-004	0.00000E+000	6.53881E-005	5.99601E-002	6.53817E-001	3.57810E+000	9	...........
	27	0.373333	6.64726E-001	1.01118E-004	0.00000E+000	6.72157E-005	5.99601E-002	6.64984E-001	3.57810E+000	9	...........
	28	0.386667	6.75692E-001	1.01427E-004	0.00000E+000	6.85337E-005	5.99601E-002	6.75938E-001	3.57810E+000	9	...........
	29	0.4	6.86431E-001	1.01966E-004	0.00000E+000	6.99926E-005	5.99601E-002	6.86704E-001	3.57810E+000	9	...........
	30	0.413333	6.97017E-001	1.00849E-004	0.00000E+000	7.02935E-005	5.99601E-002	6.97289E-001	3.57810E+000	9	...........
	31	0.426667	7.07367E-001	1.01197E-004	0.00000E+000	7.15834E-005	5.99601E-002	7.07638E-001	3.57810E+000	9	...........
	32	0.44	7.17584E-001	1.00852E-004	0.00000E+000	7.23699E-005	5.99601E-002	7.17844E-001	3.57810E+000	9	...........
	33	0.453333	7.27569E-001	1.00352E-004	0.00000E+000	7.30131E-005	5.99601E-002	7.27821E-001	3.57810E+000	9	...........
	34	0.466667	7.37333E-001	1.00928E-004	0.00000E+000	7.44177E-005	5.99601E-002	7.37604E-001	3.57810E+000	9	...........
	35	0.48	7.46959E-001	1.00844E-004	0.00000E+000	7.53262E-005	5.99601E-002	7.47216E-001	3.57810E+000	9	...........
	36	0.493333	7.56358E-001	1.00515E-004	0.00000E+000	7.60251E-005	5.99601E-002	7.56596E-001	3.57810E+000	9	...........
	37	0.506667	7.65563E-001	1.00930E-004	0.00000E+000	7.72685E-005	5.99601E-002	7.65810E-001	3.57810E+000	9	...........
	38	0.52	7.74585E-001	1.00720E-004	0.00000E+000	7.80161E-005	5.99601E-002	7.74839E-001	3.57810E+000	9	...........
	39	0.533333	7.83395E-001	1.00982E-004	0.00000E+000	7.91091E-005	5.99601E-002	7.83657E-001	3.57810E+000	9	...........
	40	0.546667	7.92024E-001	1.01307E-004	0.00000E+000	8.02380E-005	5.99601E-002	7.92281E-001	3.57810E+000	9	...........
	41	0.56	8.00479E-001	1.01203E-004	0.00000E+000	8.10111E-005	5.99601E-002	8.00715E-001	3.57810E+000	9	...........
	42	0.573333	8.08678E-001	1.01696E-004	0.00000E+000	8.22394E-005	5.99601E-002	8.08948E-001	3.57810E+000	9	...........
	43	0.586667	8.16708E-001	1.00908E-004	0.00000E+000	8.24128E-005	5.99601E-002	8.17006E-001	3.57810E+000	9	...........
	44	0.6	8.24556E-001	1.00401E-004	0.00000E+000	8.27863E-005	5.99601E-002	8.24856E-001	3.57810E+000	9	...........
	45	0.613333	8.32198E-001	1.00951E-004	0.00000E+000	8.40113E-005	5.99601E-002	8.32476E-001	3.57810E+000	9	...........
	46	0.626667	8.39654E-001	1.00291E-004	0.00000E+000	8.42094E-005	5.99601E-002	8.39960E-001	3.57810E+000	9	...........
	47	0.64	8.46962E-001	1.01163E-004	0.00000E+000	8.56809E-005	5.99601E-002	8.47286E-001	3.57810E+000	9	...........
	48	0.653333	8.54027E-001	1.00958E-004	0.00000E+000	8.62213E-005	5.99601E-002	8.54368E-001	3.57810E+000	9	...........
	49	0.666667	8.60938E-001	1.01028E-004	0.00000E+000	8.69791E-005	5.99601E-002	8.61291E-001	3.57810E+000	9	...........
	50	0.68	8.67648E-001	1.00790E-004	0.00000E+000	8.74500E-005	5.99601E-002	8.67997E-001	3.57810E+000	9	...........
	51	0.693333	8.74222E-001	1.00531E-004	0.00000E+000	8.78867E-005	5.99601E-002	8.74554E-001	3.57810E+000	9	...........
	52	0.706667	8.80581E-001	1.00420E-004	0.00000E+000	8.84277E-005	5.99601E-002	8.80904E-001	3.57810E+000	9	...........
	53	0.72	8.86755E-001	1.00632E-004	0.00000E+000	8.92363E-005	5.99601E-002	8.87074E-001	3.57810E+000	9	...........
	54	0.733333	8.92749E-001	1.00818E-004	0.00000E+000	9.00050E-005	5.99601E-002	8.93080E-001	3.57810E+000	9	...........
	55	0.746667	8.98585E-001	1.00736E-004	0.00000E+000	9.05194E-005	5.99601E-002	8.98920E-001	3.57810E+000	9	...........
	56	0.76	9.04241E-001	1.00470E-004	0.00000E+000	9.08489E-005	5.99601E-002	9.04572E-001	3.57810E+000	9	...........
	57	0.773333	9.09749E-001	1.01293E-004	0.00000E+000	9.21511E-005	5.99601E-002	9.10089E-001	3.57810E+000	9	...........
	58	0.786667	9.15081E-001	1.01385E-004	0.00000E+000	9.27751E-005	5.99601E-002	9.15423E-001	3.57810E+000	9	...........
	59	0.8	9.20300E-001	1.00884E-004	0.00000E+000	9.28440E-005	5.99601E-002	9.20612E-001	3.57810E+000	9	...........
	60	0.813333	9.25375E-001	1.00641E-004	0.00000E+000	9.31303E-005	5.99601E-002	9.25684E-001	3.57810E+000	9	...........
	61	0.826667	9.30258E-001	1.01167E-004	0.00000E+000	9.41112E-005	5.99601E-002	9.30568E-001	3.57810E+000	9	...........
	62	0.84	9.35033E-001	1.01026E-004	0.00000E+000	9.44628E-005	5.99601E-002	9.35355E-001	3.57810E+000	9	...........
	63	0.853333	9.39669E-001	1.01042E-004	0.00000E+000	9.49458E-005	5.99601E-002	9.39998E-001	3.57810E+000	9	...........
	64	0.866667	9.44188E-001	1.01050E-004	0.00000E+000	9.54103E-005	5.99601E-002	9.44526E-001	3.57810E+000	9	...........
	65	0.88	9.48635E-001	1.00277E-004	0.00000E+000	9.51263E-005	5.99601E-002	9.48978E-001	3.57810E+000	9	...........
	66	0.893333	9.52946E-001	1.00578E-004	0.00000E+000	9.58456E-005	5.99601E-002	9.53301E-001	3.57810E+000	9	...........
	67	0.906667	9.57178E-001	1.00536E-004	0.00000E+000	9.62313E-005	5.99601E-002	9.57526E-001	3.57810E+000	9	...........
	68	0.92	9.61277E-001	1.01591E-004	0.00000E+000	9.76569E-005	5.99601E-002	9.61658E-001	3.57810E+000	9	...........
	69	0.933333	9.65293E-001	1.01144E-004	0.00000E+000	9.76335E-005	5.99601E-002	9.65681E-001	3.57810E+000	9	...........
	70	0.946667	9.69217E-001	1.01146E-004	0.00000E+000	9.80324E-005	5.99601E-002	9.69623E-001	3.57810E+000	9	...........
	71	0.96	9.73124E-001	1.01238E-004	0.00000E+000	9.85168E-005	5.99601E-002	9.73506E-001	3.57810E+000	9	...........
	72	0.97333	9.76905E-001	1.00265E-004	0.00000E+000	9.79490E-005	5.99601E-002	9.77273E-001	3.57810E+000	9	...........
	73	0.98667	9.80581E-001	1.01821E-004	0.00000E+000	9.98439E-005	5.99601E-002	9.80964E-001	3.57810E+000	9	...........
	74	1	9.84175E-001	1.00902E-004	0.00000E+000	9.93054E-005	5.99601E-002	9.84565E-001	3.57810E+000	9	...........
	75	1.01333	9.87684E-001	1.01206E-004	0.00000E+000	9.99600E-005	5.99601E-002	9.88086E-001	3.57810E+000	9	...........
	76	1.02667	9.91135E-001	1.01590E-004	0.00000E+000	1.00689E-004	5.99601E-002	9.91509E-001	3.57810E+000	9	...........
	77	1.04	9.94470E-001	1.00741E-004	0.00000E+000	1.00184E-004	5.99601E-002	9.94844E-001	3.57810E+000	9	...........
	78	1.05333	9.97749E-001	1.01399E-004	0.00000E+000	1.01171E-004	5.99601E-002	9.98120E-001	3.57810E+000	9	...........
	79	1.05833	9.99949E-001	1.03576E-004	0.00000E+000	1.03571E-004	5.99601E-002	1.00033E+000	3.57810E+000	9	...........
STARTTIMEOFFSET	QUANT	256.725	Start Time Offset (s)
