EXPLAIN
TAG	PWR800_CHARGE
TITLE	LABEL	PWR Cyclic Charge Discharge (Cell) - Charge Step	Test &Identifier
DATE	LABEL	12-7-2017	Date
TIME	LABEL	16:35:28	Time
NOTES	NOTES	2	&Notes...
	supercap test cell
	6M KOH
PSTAT	PSTAT	IFC5000-01520	Potentiostat
CAPACITY	QUANT	1.00000E-003	Capacity (A-hr)
CELLTYPE	SELECTOR	1	&Cell Type
WORKINGCONNECTION	SELECTOR	0	&Working Lead
MAXCHARGETIME	VARIABLEANDUNITS	1.00000E+002	s	1.00000E+002	second(s)	Max &Charge Time
CHARGECURRENT	QUANT	1.00000E-004	&Charge Current (A) 
VOLTAGEFINISH	TWOPARAM	F	1.00000E-003	3.60000E+003	&Voltage Finish	 I (A) < 	Max Time(s)
SAMPLETIME	QUANT	1.00000E-002	Sa&mple Period (s)
CHARGESTOPAT1	MULTIPARAM	4	1.00000E+000	Charge Stop At &1	Voltage > Limit	V
CHARGESTOPAT2	MULTIPARAM	0	0.00000E+000	Charge Stop At &2	None	N/A
AESBHCSELECTOR	TOGGLE	F	Save Both Half Cells
IRCOMP	TOGGLE	F	IR &Measure
EOC	QUANT	0	Open Circuit (V)
SEQUENCER	TOGGLE	TRUE	Run as Sequence
PSTATMODEL	IQUANT	53	Pstat Model
PSTATSECTION	LABEL	IFC5000-01520	Pstat Section
PSTATSERIALNO	LABEL	01520	Pstat Serial Number
CTRLMODE	IQUANT	0	Control Mode
ELECTROMETER	IQUANT	1	RE=0 or CS=1
IESTAB	IQUANT	0	I/E Stability
CASPEED	IQUANT	4	Control Amp Speed
CONVENTION	IQUANT	1	Current Convention
ICHRANGE	IQUANT	2	Ich Range
ICHRANGEMODE	TOGGLE	T	Ich Auto Range
ICHOFFSETENABLE	TOGGLE	F	Ich Offset Enable
ICHOFFSET	QUANT	0	Ich Offset (V)
ICHFILTER	IQUANT	1	Ich Filter
VCHRANGE	IQUANT	2	Vch Range
VCHRANGEMODE	TOGGLE	T	Vch Auto Range
VCHOFFSETENABLE	TOGGLE	F	Vch Offset Enable
VCHOFFSET	QUANT	0	Vch Offset (V)
VCHFILTER	IQUANT	1	Vch Filter
IERANGELOWERLIMIT	IQUANT	9	I/E Range Lower Limit
IERANGEMODE	TOGGLE	F	I/E AutoRange
IERANGE	IQUANT	9	I/E Range
ACHSELECT	IQUANT	1	Ach Select
ACHRANGE	IQUANT	2	Ach Range
ACHOFFSETENABLE	TOGGLE	F	Ach Offset Enable
ACHOFFSET	QUANT	0	Ach Offset (V)
ACHFILTER	IQUANT	1	Ach Filter
CABLEID	IQUANT	14	Cable ID
DCCALDATE	LABEL	5-7-2017	DC Calibration Date
ACCALDATE	LABEL	12/3/2015	AC Calibration Date
FRAMEWORKVERSION	QUANT	7.01	Framework Version
INSTRUMENTVERSION	LABEL	4.00	Instrument Version
CURVE	TABLE	76
	Pt	T	Vf	Im	Vu	Pwr	Sig	Ach	Temp	IERange	Over
	#	s	V	A	V	W	V	V	deg C	#	bits
	0	0.013333	2.58847E-001	1.01418E-004	0.00000E+000	2.62518E-005	5.99601E-002	2.58926E-001	3.57660E+000	9	...........
	1	0.026667	2.81761E-001	1.01551E-004	0.00000E+000	2.86132E-005	5.99601E-002	2.81824E-001	3.57660E+000	9	...........
	2	0.04	3.03385E-001	1.00684E-004	0.00000E+000	3.05461E-005	5.99601E-002	3.03450E-001	3.57660E+000	9	...........
	3	0.053333	3.24090E-001	1.01246E-004	0.00000E+000	3.28128E-005	5.99601E-002	3.24153E-001	3.57660E+000	9	...........
	4	0.066667	3.44043E-001	1.00748E-004	0.00000E+000	3.46616E-005	5.99601E-002	3.44114E-001	3.57660E+000	9	...........
	5	0.08	3.63383E-001	1.00855E-004	0.00000E+000	3.66492E-005	5.99601E-002	3.63461E-001	3.57660E+000	9	...........
	6	0.093333	3.82185E-001	1.01566E-004	0.00000E+000	3.88169E-005	5.99601E-002	3.82267E-001	3.57660E+000	9	...........
	7	0.106667	4.00498E-001	1.02148E-004	0.00000E+000	4.09102E-005	5.99601E-002	4.00577E-001	3.57660E+000	9	...........
	8	0.12	4.18355E-001	1.01609E-004	0.00000E+000	4.25084E-005	5.99601E-002	4.18447E-001	3.57660E+000	9	...........
	9	0.133333	4.35814E-001	1.01341E-004	0.00000E+000	4.41658E-005	5.99601E-002	4.35912E-001	3.57660E+000	9	...........
	10	0.146667	4.52874E-001	1.00757E-004	0.00000E+000	4.56304E-005	5.99601E-002	4.52967E-001	3.57660E+000	9	...........
	11	0.16	4.69558E-001	1.00825E-004	0.00000E+000	4.73432E-005	5.99601E-002	4.69658E-001	3.57660E+000	9	...........
	12	0.173333	4.85880E-001	1.00067E-004	0.00000E+000	4.86203E-005	5.99601E-002	4.85984E-001	3.57660E+000	9	...........
	13	0.186667	5.01847E-001	1.01959E-004	0.00000E+000	5.11677E-005	5.99601E-002	5.01958E-001	3.57660E+000	9	...........
	14	0.2	5.17472E-001	1.00859E-004	0.00000E+000	5.21919E-005	5.99601E-002	5.17584E-001	3.57660E+000	9	...........
	15	0.213333	5.32656E-001	1.00140E-004	0.00000E+000	5.33400E-005	5.99601E-002	5.32805E-001	3.57660E+000	9	...........
	16	0.226667	5.47449E-001	1.01043E-004	0.00000E+000	5.53158E-005	5.99601E-002	5.47642E-001	3.57660E+000	9	...........
	17	0.24	5.62077E-001	1.01288E-004	0.00000E+000	5.69315E-005	5.99601E-002	5.62304E-001	3.57660E+000	9	...........
	18	0.253333	5.76404E-001	1.00557E-004	0.00000E+000	5.79617E-005	5.99601E-002	5.76635E-001	3.57660E+000	9	...........
	19	0.266667	5.90413E-001	9.96374E-005	0.00000E+000	5.88272E-005	5.99601E-002	5.90662E-001	3.57660E+000	9	...........
	20	0.28	6.04097E-001	1.00791E-004	0.00000E+000	6.08874E-005	5.99601E-002	6.04362E-001	3.57660E+000	9	...........
	21	0.293333	6.17531E-001	1.00936E-004	0.00000E+000	6.23308E-005	5.99601E-002	6.17756E-001	3.57660E+000	9	...........
	22	0.306667	6.30615E-001	1.02426E-004	0.00000E+000	6.45916E-005	5.99601E-002	6.30856E-001	3.57660E+000	9	...........
	23	0.32	6.43423E-001	1.00399E-004	0.00000E+000	6.45990E-005	5.99601E-002	6.43629E-001	3.57660E+000	9	...........
	24	0.333333	6.55921E-001	1.00380E-004	0.00000E+000	6.58415E-005	5.99601E-002	6.56133E-001	3.57660E+000	9	...........
	25	0.346667	6.68107E-001	1.01081E-004	0.00000E+000	6.75332E-005	5.99601E-002	6.68345E-001	3.57660E+000	9	...........
	26	0.36	6.80039E-001	1.00171E-004	0.00000E+000	6.81200E-005	5.99601E-002	6.80250E-001	3.57660E+000	9	...........
	27	0.373333	6.91628E-001	1.01404E-004	0.00000E+000	7.01341E-005	5.99601E-002	6.91845E-001	3.57660E+000	9	...........
	28	0.386667	7.02934E-001	1.00368E-004	0.00000E+000	7.05518E-005	5.99601E-002	7.03173E-001	3.57660E+000	9	...........
	29	0.4	7.13968E-001	1.01900E-004	0.00000E+000	7.27536E-005	5.99601E-002	7.14221E-001	3.57660E+000	9	...........
	30	0.413333	7.24781E-001	1.01450E-004	0.00000E+000	7.35292E-005	5.99601E-002	7.24980E-001	3.57660E+000	9	...........
	31	0.426667	7.35237E-001	1.02213E-004	0.00000E+000	7.51507E-005	5.99601E-002	7.35468E-001	3.57660E+000	9	...........
	32	0.44	7.45454E-001	1.01288E-004	0.00000E+000	7.55054E-005	5.99601E-002	7.45694E-001	3.57660E+000	9	...........
	33	0.453333	7.55398E-001	1.00763E-004	0.00000E+000	7.61159E-005	5.99601E-002	7.55629E-001	3.57660E+000	9	...........
	34	0.466667	7.65057E-001	1.00542E-004	0.00000E+000	7.69201E-005	5.99601E-002	7.65296E-001	3.57660E+000	9	...........
	35	0.48	7.74468E-001	9.96217E-005	0.00000E+000	7.71538E-005	5.99601E-002	7.74711E-001	3.57660E+000	9	...........
	36	0.493333	7.83616E-001	1.01692E-004	0.00000E+000	7.96874E-005	5.99601E-002	7.83865E-001	3.57660E+000	9	...........
	37	0.506667	7.92518E-001	1.00201E-004	0.00000E+000	7.94111E-005	5.99601E-002	7.92772E-001	3.57660E+000	9	...........
	38	0.52	8.01148E-001	1.01262E-004	0.00000E+000	8.11255E-005	5.99601E-002	8.01405E-001	3.57660E+000	9	...........
	39	0.533333	8.09504E-001	1.01141E-004	0.00000E+000	8.18739E-005	5.99601E-002	8.09800E-001	3.57660E+000	9	...........
	40	0.546667	8.17645E-001	1.01351E-004	0.00000E+000	8.28693E-005	5.99601E-002	8.17937E-001	3.57660E+000	9	...........
	41	0.56	8.25533E-001	1.00978E-004	0.00000E+000	8.33609E-005	5.99601E-002	8.25823E-001	3.57660E+000	9	...........
	42	0.573333	8.33159E-001	9.99687E-005	0.00000E+000	8.32898E-005	5.99601E-002	8.33480E-001	3.57660E+000	9	...........
	43	0.586667	8.40545E-001	1.01790E-004	0.00000E+000	8.55589E-005	5.99601E-002	8.40877E-001	3.57660E+000	9	...........
	44	0.6	8.47754E-001	1.02135E-004	0.00000E+000	8.65851E-005	5.99601E-002	8.48084E-001	3.57660E+000	9	...........
	45	0.613333	8.54699E-001	1.00836E-004	0.00000E+000	8.61840E-005	5.99601E-002	8.55013E-001	3.57660E+000	9	...........
	46	0.626667	8.61429E-001	1.01349E-004	0.00000E+000	8.73051E-005	5.99601E-002	8.61757E-001	3.57660E+000	9	...........
	47	0.64	8.67975E-001	1.00359E-004	0.00000E+000	8.71094E-005	5.99601E-002	8.68291E-001	3.57660E+000	9	...........
	48	0.653333	8.74322E-001	1.00085E-004	0.00000E+000	8.75068E-005	5.99601E-002	8.74634E-001	3.57660E+000	9	...........
	49	0.666667	8.80459E-001	1.01513E-004	0.00000E+000	8.93778E-005	5.99601E-002	8.80778E-001	3.57660E+000	9	...........
	50	0.68	8.86425E-001	1.01346E-004	0.00000E+000	8.98357E-005	5.99601E-002	8.86749E-001	3.57660E+000	9	...........
	51	0.693333	8.92220E-001	1.02024E-004	0.00000E+000	9.10281E-005	5.99601E-002	8.92543E-001	3.57660E+000	9	...........
	52	0.706667	8.97890E-001	1.01469E-004	0.00000E+000	9.11079E-005	5.99601E-002	8.98210E-001	3.57660E+000	9	...........
	53	0.72	9.03378E-001	1.00877E-004	0.00000E+000	9.11302E-005	5.99601E-002	9.03720E-001	3.57660E+000	9	...........
	54	0.733333	9.08752E-001	9.93269E-005	0.00000E+000	9.02635E-005	5.99601E-002	9.09084E-001	3.57660E+000	9	...........
	55	0.746667	9.13992E-001	9.98707E-005	0.00000E+000	9.12810E-005	5.99601E-002	9.14327E-001	3.57660E+000	9	...........
	56	0.76	9.19121E-001	1.01916E-004	0.00000E+000	9.36731E-005	5.99601E-002	9.19463E-001	3.57660E+000	9	...........
	57	0.773333	9.24198E-001	1.01196E-004	0.00000E+000	9.35252E-005	5.99601E-002	9.24502E-001	3.57660E+000	9	...........
	58	0.786667	9.29131E-001	1.00424E-004	0.00000E+000	9.33070E-005	5.99601E-002	9.29425E-001	3.57660E+000	9	...........
	59	0.8	9.33953E-001	1.00847E-004	0.00000E+000	9.41863E-005	5.99601E-002	9.34274E-001	3.57660E+000	9	...........
	60	0.813333	9.38673E-001	9.96832E-005	0.00000E+000	9.35700E-005	5.99601E-002	9.39004E-001	3.57660E+000	9	...........
	61	0.826667	9.43340E-001	1.00786E-004	0.00000E+000	9.50750E-005	5.99601E-002	9.43658E-001	3.57660E+000	9	...........
	62	0.84	9.47952E-001	1.00816E-004	0.00000E+000	9.55685E-005	5.99601E-002	9.48273E-001	3.57660E+000	9	...........
	63	0.853333	9.52456E-001	1.00535E-004	0.00000E+000	9.57556E-005	5.99601E-002	9.52791E-001	3.57660E+000	9	...........
	64	0.866667	9.56871E-001	1.00634E-004	0.00000E+000	9.62942E-005	5.99601E-002	9.57206E-001	3.57660E+000	9	...........
	65	0.88	9.61222E-001	1.00359E-004	0.00000E+000	9.64676E-005	5.99601E-002	9.61564E-001	3.57660E+000	9	...........
	66	0.893333	9.65491E-001	1.01271E-004	0.00000E+000	9.77762E-005	5.99601E-002	9.65845E-001	3.57660E+000	9	...........
	67	0.906667	9.69666E-001	1.00590E-004	0.00000E+000	9.75384E-005	5.99601E-002	9.70019E-001	3.57660E+000	9	...........
	68	0.92	9.73828E-001	1.00936E-004	0.00000E+000	9.82938E-005	5.99601E-002	9.74181E-001	3.57660E+000	9	...........
	69	0.933333	9.77877E-001	1.01710E-004	0.00000E+000	9.94595E-005	5.99601E-002	9.78228E-001	3.57660E+000	9	...........
	70	0.946667	9.81854E-001	1.01259E-004	0.00000E+000	9.94211E-005	5.99601E-002	9.82194E-001	3.57660E+000	9	...........
	71	0.96	9.85709E-001	1.00909E-004	0.00000E+000	9.94674E-005	5.99601E-002	9.86079E-001	3.57660E+000	9	...........
	72	0.97333	9.89535E-001	1.01578E-004	0.00000E+000	1.00515E-004	5.99601E-002	9.89891E-001	3.57660E+000	9	...........
	73	0.98667	9.93242E-001	1.00575E-004	0.00000E+000	9.98954E-005	5.99601E-002	9.93595E-001	3.57670E+000	9	...........
	74	1	9.96894E-001	1.01221E-004	0.00000E+000	1.00907E-004	5.99601E-002	9.97236E-001	3.57670E+000	9	...........
	75	1.00667	9.99578E-001	1.01690E-004	0.00000E+000	1.01647E-004	5.99601E-002	9.99922E-001	3.57670E+000	9	...........
STARTTIMEOFFSET	QUANT	1086.301	Start Time Offset (s)
