EXPLAIN
TAG	PWR800_CHARGE
TITLE	LABEL	PWR Cyclic Charge Discharge (Cell) - Charge Step	Test &Identifier
DATE	LABEL	12-7-2017	Date
TIME	LABEL	16:38:30	Time
NOTES	NOTES	2	&Notes...
	supercap test cell
	6M KOH
PSTAT	PSTAT	IFC5000-01520	Potentiostat
CAPACITY	QUANT	1.00000E-003	Capacity (A-hr)
CELLTYPE	SELECTOR	1	&Cell Type
WORKINGCONNECTION	SELECTOR	0	&Working Lead
MAXCHARGETIME	VARIABLEANDUNITS	1.00000E+002	s	1.00000E+002	second(s)	Max &Charge Time
CHARGECURRENT	QUANT	1.00000E-004	&Charge Current (A) 
VOLTAGEFINISH	TWOPARAM	F	1.00000E-003	3.60000E+003	&Voltage Finish	 I (A) < 	Max Time(s)
SAMPLETIME	QUANT	1.00000E-002	Sa&mple Period (s)
CHARGESTOPAT1	MULTIPARAM	4	1.00000E+000	Charge Stop At &1	Voltage > Limit	V
CHARGESTOPAT2	MULTIPARAM	0	0.00000E+000	Charge Stop At &2	None	N/A
AESBHCSELECTOR	TOGGLE	F	Save Both Half Cells
IRCOMP	TOGGLE	F	IR &Measure
EOC	QUANT	0	Open Circuit (V)
SEQUENCER	TOGGLE	TRUE	Run as Sequence
PSTATMODEL	IQUANT	53	Pstat Model
PSTATSECTION	LABEL	IFC5000-01520	Pstat Section
PSTATSERIALNO	LABEL	01520	Pstat Serial Number
CTRLMODE	IQUANT	0	Control Mode
ELECTROMETER	IQUANT	1	RE=0 or CS=1
IESTAB	IQUANT	0	I/E Stability
CASPEED	IQUANT	4	Control Amp Speed
CONVENTION	IQUANT	1	Current Convention
ICHRANGE	IQUANT	2	Ich Range
ICHRANGEMODE	TOGGLE	T	Ich Auto Range
ICHOFFSETENABLE	TOGGLE	F	Ich Offset Enable
ICHOFFSET	QUANT	0	Ich Offset (V)
ICHFILTER	IQUANT	1	Ich Filter
VCHRANGE	IQUANT	2	Vch Range
VCHRANGEMODE	TOGGLE	T	Vch Auto Range
VCHOFFSETENABLE	TOGGLE	F	Vch Offset Enable
VCHOFFSET	QUANT	0	Vch Offset (V)
VCHFILTER	IQUANT	1	Vch Filter
IERANGELOWERLIMIT	IQUANT	9	I/E Range Lower Limit
IERANGEMODE	TOGGLE	F	I/E AutoRange
IERANGE	IQUANT	9	I/E Range
ACHSELECT	IQUANT	1	Ach Select
ACHRANGE	IQUANT	2	Ach Range
ACHOFFSETENABLE	TOGGLE	F	Ach Offset Enable
ACHOFFSET	QUANT	0	Ach Offset (V)
ACHFILTER	IQUANT	1	Ach Filter
CABLEID	IQUANT	14	Cable ID
DCCALDATE	LABEL	5-7-2017	DC Calibration Date
ACCALDATE	LABEL	12/3/2015	AC Calibration Date
FRAMEWORKVERSION	QUANT	7.01	Framework Version
INSTRUMENTVERSION	LABEL	4.00	Instrument Version
CURVE	TABLE	76
	Pt	T	Vf	Im	Vu	Pwr	Sig	Ach	Temp	IERange	Over
	#	s	V	A	V	W	V	V	deg C	#	bits
	0	0.013333	2.59497E-001	1.01105E-004	0.00000E+000	2.62366E-005	5.99601E-002	2.59566E-001	3.57660E+000	9	...........
	1	0.026667	2.82458E-001	1.01764E-004	0.00000E+000	2.87440E-005	5.99601E-002	2.82520E-001	3.57660E+000	9	...........
	2	0.04	3.04142E-001	1.01535E-004	0.00000E+000	3.08809E-005	5.99601E-002	3.04207E-001	3.57660E+000	9	...........
	3	0.053333	3.24909E-001	1.01170E-004	0.00000E+000	3.28710E-005	5.99601E-002	3.24980E-001	3.57660E+000	9	...........
	4	0.066667	3.44938E-001	1.00366E-004	0.00000E+000	3.46199E-005	5.99601E-002	3.45006E-001	3.57660E+000	9	...........
	5	0.08	3.64352E-001	1.00425E-004	0.00000E+000	3.65901E-005	5.99601E-002	3.64430E-001	3.57660E+000	9	...........
	6	0.093333	3.83237E-001	9.98666E-005	0.00000E+000	3.82726E-005	5.99601E-002	3.83311E-001	3.57660E+000	9	...........
	7	0.106667	4.01631E-001	1.01192E-004	0.00000E+000	4.06417E-005	5.99601E-002	4.01717E-001	3.57660E+000	9	...........
	8	0.12	4.19584E-001	1.00747E-004	0.00000E+000	4.22718E-005	5.99601E-002	4.19675E-001	3.57660E+000	9	...........
	9	0.133333	4.37112E-001	1.01259E-004	0.00000E+000	4.42613E-005	5.99601E-002	4.37210E-001	3.57660E+000	9	...........
	10	0.146667	4.54262E-001	1.00546E-004	0.00000E+000	4.56741E-005	5.99601E-002	4.54359E-001	3.57660E+000	9	...........
	11	0.16	4.71028E-001	1.00894E-004	0.00000E+000	4.75238E-005	5.99601E-002	4.71125E-001	3.57660E+000	9	...........
	12	0.173333	4.87427E-001	1.01869E-004	0.00000E+000	4.96537E-005	5.99601E-002	4.87530E-001	3.57669E+000	9	...........
	13	0.186667	5.03464E-001	1.00821E-004	0.00000E+000	5.07597E-005	5.99601E-002	5.03573E-001	3.57730E+000	9	...........
	14	0.2	5.19167E-001	1.00663E-004	0.00000E+000	5.22606E-005	5.99601E-002	5.19280E-001	3.57730E+000	9	...........
	15	0.213333	5.34356E-001	9.95978E-005	0.00000E+000	5.32206E-005	5.99601E-002	5.34538E-001	3.57730E+000	9	...........
	16	0.226667	5.49241E-001	1.00866E-004	0.00000E+000	5.53996E-005	5.99601E-002	5.49472E-001	3.57730E+000	9	...........
	17	0.24	5.63941E-001	1.02173E-004	0.00000E+000	5.76197E-005	5.99601E-002	5.64181E-001	3.57730E+000	9	...........
	18	0.253333	5.78303E-001	1.00958E-004	0.00000E+000	5.83845E-005	5.99601E-002	5.78567E-001	3.57730E+000	9	...........
	19	0.266667	5.92363E-001	1.00214E-004	0.00000E+000	5.93628E-005	5.99601E-002	5.92628E-001	3.57730E+000	9	...........
	20	0.28	6.06083E-001	1.00048E-004	0.00000E+000	6.06373E-005	5.99601E-002	6.06378E-001	3.57730E+000	9	...........
	21	0.293333	6.19573E-001	1.00395E-004	0.00000E+000	6.22019E-005	5.99601E-002	6.19809E-001	3.57730E+000	9	...........
	22	0.306667	6.32678E-001	1.00998E-004	0.00000E+000	6.38992E-005	5.99601E-002	6.32908E-001	3.57730E+000	9	...........
	23	0.32	6.45513E-001	1.01215E-004	0.00000E+000	6.53354E-005	5.99601E-002	6.45751E-001	3.57730E+000	9	...........
	24	0.333333	6.58031E-001	1.00736E-004	0.00000E+000	6.62871E-005	5.99601E-002	6.58257E-001	3.57730E+000	9	...........
	25	0.346667	6.70240E-001	9.94665E-005	0.00000E+000	6.66665E-005	5.99601E-002	6.70474E-001	3.57730E+000	9	...........
	26	0.36	6.82145E-001	1.02105E-004	0.00000E+000	6.96501E-005	5.99601E-002	6.82375E-001	3.57730E+000	9	...........
	27	0.373333	6.93770E-001	9.98561E-005	0.00000E+000	6.92772E-005	5.99601E-002	6.93984E-001	3.57730E+000	9	...........
	28	0.386667	7.05077E-001	1.00230E-004	0.00000E+000	7.06700E-005	5.99601E-002	7.05326E-001	3.57730E+000	9	...........
	29	0.4	7.16112E-001	1.00485E-004	0.00000E+000	7.19589E-005	5.99601E-002	7.16354E-001	3.57730E+000	9	...........
	30	0.413333	7.26888E-001	1.00958E-004	0.00000E+000	7.33855E-005	5.99601E-002	7.27140E-001	3.57730E+000	9	...........
	31	0.426667	7.37333E-001	9.99009E-005	0.00000E+000	7.36602E-005	5.99601E-002	7.37605E-001	3.57730E+000	9	...........
	32	0.44	7.47520E-001	1.01242E-004	0.00000E+000	7.56803E-005	5.99601E-002	7.47802E-001	3.57730E+000	9	...........
	33	0.453333	7.57436E-001	1.00602E-004	0.00000E+000	7.61997E-005	5.99601E-002	7.57724E-001	3.57730E+000	9	...........
	34	0.466667	7.67080E-001	1.01249E-004	0.00000E+000	7.76662E-005	5.99601E-002	7.67396E-001	3.57730E+000	9	...........
	35	0.48	7.76458E-001	1.00265E-004	0.00000E+000	7.78513E-005	5.99601E-002	7.76771E-001	3.57730E+000	9	...........
	36	0.493333	7.85582E-001	1.00207E-004	0.00000E+000	7.87210E-005	5.99601E-002	7.85866E-001	3.57730E+000	9	...........
	37	0.506667	7.94461E-001	1.00763E-004	0.00000E+000	8.00520E-005	5.99601E-002	7.94726E-001	3.57730E+000	9	...........
	38	0.52	8.03053E-001	1.01236E-004	0.00000E+000	8.12976E-005	5.99601E-002	8.03330E-001	3.57730E+000	9	...........
	39	0.533333	8.11368E-001	1.00370E-004	0.00000E+000	8.14368E-005	5.99601E-002	8.11658E-001	3.57730E+000	9	...........
	40	0.546667	8.19457E-001	1.00908E-004	0.00000E+000	8.26901E-005	5.99601E-002	8.19767E-001	3.57730E+000	9	...........
	41	0.56	8.27296E-001	9.95884E-005	0.00000E+000	8.23891E-005	5.99601E-002	8.27596E-001	3.57730E+000	9	...........
	42	0.573333	8.34864E-001	1.01751E-004	0.00000E+000	8.49485E-005	5.99601E-002	8.35183E-001	3.57730E+000	9	...........
	43	0.586667	8.42221E-001	1.00728E-004	0.00000E+000	8.48355E-005	5.99601E-002	8.42542E-001	3.57730E+000	9	...........
	44	0.6	8.49367E-001	1.01998E-004	0.00000E+000	8.66339E-005	5.99601E-002	8.49677E-001	3.57730E+000	9	...........
	45	0.613333	8.56250E-001	1.01439E-004	0.00000E+000	8.68570E-005	5.99601E-002	8.56558E-001	3.57730E+000	9	...........
	46	0.626667	8.62939E-001	1.01451E-004	0.00000E+000	8.75463E-005	5.99601E-002	8.63251E-001	3.57730E+000	9	...........
	47	0.64	8.69426E-001	1.01292E-004	0.00000E+000	8.80658E-005	5.99601E-002	8.69753E-001	3.57730E+000	9	...........
	48	0.653333	8.75729E-001	1.00779E-004	0.00000E+000	8.82553E-005	5.99601E-002	8.76056E-001	3.57730E+000	9	...........
	49	0.666667	8.81797E-001	1.00724E-004	0.00000E+000	8.88182E-005	5.99601E-002	8.82148E-001	3.57730E+000	9	...........
	50	0.68	8.87740E-001	9.94884E-005	0.00000E+000	8.83197E-005	5.99601E-002	8.88079E-001	3.57730E+000	9	...........
	51	0.693333	8.93499E-001	1.01502E-004	0.00000E+000	9.06922E-005	5.99601E-002	8.93878E-001	3.57730E+000	9	...........
	52	0.706667	8.99130E-001	1.00953E-004	0.00000E+000	9.07701E-005	5.99601E-002	8.99483E-001	3.57730E+000	9	...........
	53	0.72	9.04625E-001	1.00455E-004	0.00000E+000	9.08743E-005	5.99601E-002	9.04957E-001	3.57730E+000	9	...........
	54	0.733333	9.10000E-001	1.01650E-004	0.00000E+000	9.25018E-005	5.99601E-002	9.10322E-001	3.57730E+000	9	...........
	55	0.746667	9.15220E-001	1.00706E-004	0.00000E+000	9.21684E-005	5.99601E-002	9.15553E-001	3.57730E+000	9	...........
	56	0.76	9.20362E-001	1.00903E-004	0.00000E+000	9.28675E-005	5.99601E-002	9.20682E-001	3.57730E+000	9	...........
	57	0.773333	9.25405E-001	1.02045E-004	0.00000E+000	9.44331E-005	5.99601E-002	9.25729E-001	3.57730E+000	9	...........
	58	0.786667	9.30312E-001	1.00049E-004	0.00000E+000	9.30766E-005	5.99601E-002	9.30639E-001	3.57730E+000	9	...........
	59	0.8	9.35152E-001	1.01971E-004	0.00000E+000	9.53586E-005	5.99601E-002	9.35493E-001	3.57730E+000	9	...........
	60	0.813333	9.39893E-001	9.90622E-005	0.00000E+000	9.31078E-005	5.99601E-002	9.40250E-001	3.57730E+000	9	...........
	61	0.826667	9.44543E-001	9.96749E-005	0.00000E+000	9.41472E-005	5.99601E-002	9.44896E-001	3.57730E+000	9	...........
	62	0.84	9.49186E-001	1.01094E-004	0.00000E+000	9.59569E-005	5.99601E-002	9.49523E-001	3.57730E+000	9	...........
	63	0.853333	9.53685E-001	9.95936E-005	0.00000E+000	9.49809E-005	5.99601E-002	9.54031E-001	3.57730E+000	9	...........
	64	0.866667	9.58128E-001	1.00766E-004	0.00000E+000	9.65465E-005	5.99601E-002	9.58476E-001	3.57730E+000	9	...........
	65	0.88	9.62492E-001	1.01490E-004	0.00000E+000	9.76832E-005	5.99601E-002	9.62848E-001	3.57730E+000	9	...........
	66	0.893333	9.66769E-001	1.01061E-004	0.00000E+000	9.77022E-005	5.99601E-002	9.67120E-001	3.57730E+000	9	...........
	67	0.906667	9.70987E-001	1.00827E-004	0.00000E+000	9.79018E-005	5.99601E-002	9.71356E-001	3.57730E+000	9	...........
	68	0.92	9.75174E-001	1.02081E-004	0.00000E+000	9.95463E-005	5.99601E-002	9.75491E-001	3.57730E+000	9	...........
	69	0.933333	9.79232E-001	1.01096E-004	0.00000E+000	9.89964E-005	5.99601E-002	9.79551E-001	3.57730E+000	9	...........
	70	0.946667	9.83195E-001	1.00368E-004	0.00000E+000	9.86810E-005	5.99601E-002	9.83537E-001	3.57730E+000	9	...........
	71	0.96	9.87094E-001	1.01240E-004	0.00000E+000	9.99331E-005	5.99601E-002	9.87444E-001	3.57730E+000	9	...........
	72	0.97333	9.90900E-001	1.02380E-004	0.00000E+000	1.01448E-004	5.99601E-002	9.91257E-001	3.57730E+000	9	...........
	73	0.98667	9.94635E-001	1.00776E-004	0.00000E+000	1.00235E-004	5.99601E-002	9.94965E-001	3.57730E+000	9	...........
	74	1	9.98289E-001	1.01428E-004	0.00000E+000	1.01255E-004	5.99601E-002	9.98637E-001	3.57730E+000	9	...........
	75	1.00167	1.00028E+000	9.58887E-005	0.00000E+000	9.59152E-005	5.99601E-002	1.00067E+000	3.57730E+000	9	...........
STARTTIMEOFFSET	QUANT	1214.51	Start Time Offset (s)
