EXPLAIN
TAG	PWR800_CHARGE
TITLE	LABEL	PWR Cyclic Charge Discharge (Cell) - Charge Step	Test &Identifier
DATE	LABEL	12-7-2017	Date
TIME	LABEL	16:30:28	Time
NOTES	NOTES	2	&Notes...
	supercap test cell
	6M KOH
PSTAT	PSTAT	IFC5000-01520	Potentiostat
CAPACITY	QUANT	1.00000E-003	Capacity (A-hr)
CELLTYPE	SELECTOR	1	&Cell Type
WORKINGCONNECTION	SELECTOR	0	&Working Lead
MAXCHARGETIME	VARIABLEANDUNITS	1.00000E+002	s	1.00000E+002	second(s)	Max &Charge Time
CHARGECURRENT	QUANT	1.00000E-004	&Charge Current (A) 
VOLTAGEFINISH	TWOPARAM	F	1.00000E-003	3.60000E+003	&Voltage Finish	 I (A) < 	Max Time(s)
SAMPLETIME	QUANT	1.00000E-002	Sa&mple Period (s)
CHARGESTOPAT1	MULTIPARAM	4	1.00000E+000	Charge Stop At &1	Voltage > Limit	V
CHARGESTOPAT2	MULTIPARAM	0	0.00000E+000	Charge Stop At &2	None	N/A
AESBHCSELECTOR	TOGGLE	F	Save Both Half Cells
IRCOMP	TOGGLE	F	IR &Measure
EOC	QUANT	0	Open Circuit (V)
SEQUENCER	TOGGLE	TRUE	Run as Sequence
PSTATMODEL	IQUANT	53	Pstat Model
PSTATSECTION	LABEL	IFC5000-01520	Pstat Section
PSTATSERIALNO	LABEL	01520	Pstat Serial Number
CTRLMODE	IQUANT	0	Control Mode
ELECTROMETER	IQUANT	1	RE=0 or CS=1
IESTAB	IQUANT	0	I/E Stability
CASPEED	IQUANT	4	Control Amp Speed
CONVENTION	IQUANT	1	Current Convention
ICHRANGE	IQUANT	2	Ich Range
ICHRANGEMODE	TOGGLE	T	Ich Auto Range
ICHOFFSETENABLE	TOGGLE	F	Ich Offset Enable
ICHOFFSET	QUANT	0	Ich Offset (V)
ICHFILTER	IQUANT	1	Ich Filter
VCHRANGE	IQUANT	2	Vch Range
VCHRANGEMODE	TOGGLE	T	Vch Auto Range
VCHOFFSETENABLE	TOGGLE	F	Vch Offset Enable
VCHOFFSET	QUANT	0	Vch Offset (V)
VCHFILTER	IQUANT	1	Vch Filter
IERANGELOWERLIMIT	IQUANT	9	I/E Range Lower Limit
IERANGEMODE	TOGGLE	F	I/E AutoRange
IERANGE	IQUANT	9	I/E Range
ACHSELECT	IQUANT	1	Ach Select
ACHRANGE	IQUANT	2	Ach Range
ACHOFFSETENABLE	TOGGLE	F	Ach Offset Enable
ACHOFFSET	QUANT	0	Ach Offset (V)
ACHFILTER	IQUANT	1	Ach Filter
CABLEID	IQUANT	14	Cable ID
DCCALDATE	LABEL	5-7-2017	DC Calibration Date
ACCALDATE	LABEL	12/3/2015	AC Calibration Date
FRAMEWORKVERSION	QUANT	7.01	Framework Version
INSTRUMENTVERSION	LABEL	4.00	Instrument Version
CURVE	TABLE	76
	Pt	T	Vf	Im	Vu	Pwr	Sig	Ach	Temp	IERange	Over
	#	s	V	A	V	W	V	V	deg C	#	bits
	0	0.013333	2.59845E-001	1.00319E-004	0.00000E+000	2.60673E-005	5.99601E-002	2.59925E-001	3.57670E+000	9	...........
	1	0.026667	2.82727E-001	1.01882E-004	0.00000E+000	2.88047E-005	5.99601E-002	2.82791E-001	3.57670E+000	9	...........
	2	0.04	3.04264E-001	1.01623E-004	0.00000E+000	3.09203E-005	5.99601E-002	3.04330E-001	3.57670E+000	9	...........
	3	0.053333	3.24832E-001	1.00704E-004	0.00000E+000	3.27120E-005	5.99601E-002	3.24901E-001	3.57670E+000	9	...........
	4	0.066667	3.44619E-001	1.00454E-004	0.00000E+000	3.46184E-005	5.99601E-002	3.44697E-001	3.57670E+000	9	...........
	5	0.08	3.63779E-001	1.00231E-004	0.00000E+000	3.64620E-005	5.99601E-002	3.63851E-001	3.57670E+000	9	...........
	6	0.093333	3.82373E-001	1.00285E-004	0.00000E+000	3.83464E-005	5.99601E-002	3.82451E-001	3.57670E+000	9	...........
	7	0.106667	4.00474E-001	1.01137E-004	0.00000E+000	4.05026E-005	5.99601E-002	4.00554E-001	3.57670E+000	9	...........
	8	0.12	4.18120E-001	1.02358E-004	0.00000E+000	4.27978E-005	5.99601E-002	4.18215E-001	3.57670E+000	9	...........
	9	0.133333	4.35345E-001	1.01742E-004	0.00000E+000	4.42929E-005	5.99601E-002	4.35441E-001	3.57670E+000	9	...........
	10	0.146667	4.52171E-001	1.01340E-004	0.00000E+000	4.58229E-005	5.99601E-002	4.52267E-001	3.57670E+000	9	...........
	11	0.16	4.68630E-001	1.01653E-004	0.00000E+000	4.76378E-005	5.99601E-002	4.68730E-001	3.57670E+000	9	...........
	12	0.173333	4.84733E-001	1.02142E-004	0.00000E+000	4.95116E-005	5.99601E-002	4.84842E-001	3.57670E+000	9	...........
	13	0.186667	5.00480E-001	9.99843E-005	0.00000E+000	5.00401E-005	5.99601E-002	5.00591E-001	3.57670E+000	9	...........
	14	0.2	5.15906E-001	1.01577E-004	0.00000E+000	5.24044E-005	5.99601E-002	5.16013E-001	3.57670E+000	9	...........
	15	0.213333	5.30912E-001	1.01446E-004	0.00000E+000	5.38589E-005	5.99601E-002	5.31059E-001	3.57670E+000	9	...........
	16	0.226667	5.45444E-001	1.01191E-004	0.00000E+000	5.51939E-005	5.99601E-002	5.45695E-001	3.57670E+000	9	...........
	17	0.24	5.59905E-001	1.01857E-004	0.00000E+000	5.70300E-005	5.99601E-002	5.60177E-001	3.57670E+000	9	...........
	18	0.253333	5.74071E-001	1.00438E-004	0.00000E+000	5.76583E-005	5.99601E-002	5.74337E-001	3.57670E+000	9	...........
	19	0.266667	5.87934E-001	1.01329E-004	0.00000E+000	5.95750E-005	5.99601E-002	5.88225E-001	3.57670E+000	9	...........
	20	0.28	6.01478E-001	1.00353E-004	0.00000E+000	6.03602E-005	5.99601E-002	6.01772E-001	3.57670E+000	9	...........
	21	0.293333	6.14779E-001	1.01270E-004	0.00000E+000	6.22586E-005	5.99601E-002	6.15046E-001	3.57670E+000	9	...........
	22	0.306667	6.27766E-001	1.00105E-004	0.00000E+000	6.28426E-005	5.99601E-002	6.28019E-001	3.57670E+000	9	...........
	23	0.32	6.40476E-001	1.01662E-004	0.00000E+000	6.51119E-005	5.99601E-002	6.40722E-001	3.57670E+000	9	...........
	24	0.333333	6.52879E-001	1.00998E-004	0.00000E+000	6.59395E-005	5.99601E-002	6.53131E-001	3.57670E+000	9	...........
	25	0.346667	6.65006E-001	1.01622E-004	0.00000E+000	6.75793E-005	5.99601E-002	6.65262E-001	3.57670E+000	9	...........
	26	0.36	6.76882E-001	1.00707E-004	0.00000E+000	6.81670E-005	5.99601E-002	6.77125E-001	3.57670E+000	9	...........
	27	0.373333	6.88447E-001	1.00465E-004	0.00000E+000	6.91646E-005	5.99601E-002	6.88693E-001	3.57670E+000	9	...........
	28	0.386667	6.99753E-001	1.00592E-004	0.00000E+000	7.03893E-005	5.99601E-002	7.00005E-001	3.57670E+000	9	...........
	29	0.4	7.10773E-001	1.00856E-004	0.00000E+000	7.16860E-005	5.99601E-002	7.11041E-001	3.57670E+000	9	...........
	30	0.413333	7.21586E-001	1.01350E-004	0.00000E+000	7.31329E-005	5.99601E-002	7.21823E-001	3.57670E+000	9	...........
	31	0.426667	7.32064E-001	9.96644E-005	0.00000E+000	7.29608E-005	5.99601E-002	7.32346E-001	3.57670E+000	9	...........
	32	0.44	7.42312E-001	1.02111E-004	0.00000E+000	7.57981E-005	5.99601E-002	7.42594E-001	3.57670E+000	9	...........
	33	0.453333	7.52279E-001	1.00942E-004	0.00000E+000	7.59364E-005	5.99601E-002	7.52562E-001	3.57670E+000	9	...........
	34	0.466667	7.62007E-001	1.02314E-004	0.00000E+000	7.79639E-005	5.99601E-002	7.62272E-001	3.57670E+000	9	...........
	35	0.48	7.71468E-001	1.00949E-004	0.00000E+000	7.78790E-005	5.99601E-002	7.71762E-001	3.57670E+000	9	...........
	36	0.493333	7.80669E-001	1.00377E-004	0.00000E+000	7.83613E-005	5.99601E-002	7.80959E-001	3.57670E+000	9	...........
	37	0.506667	7.89628E-001	1.00914E-004	0.00000E+000	7.96843E-005	5.99601E-002	7.89914E-001	3.57670E+000	9	...........
	38	0.52	7.98368E-001	1.00486E-004	0.00000E+000	8.02252E-005	5.99601E-002	7.98615E-001	3.57670E+000	9	...........
	39	0.533333	8.06812E-001	1.01047E-004	0.00000E+000	8.15260E-005	5.99601E-002	8.07095E-001	3.57670E+000	9	...........
	40	0.546667	8.15035E-001	1.00980E-004	0.00000E+000	8.23025E-005	5.99601E-002	8.15312E-001	3.57670E+000	9	...........
	41	0.56	8.23016E-001	9.96978E-005	0.00000E+000	8.20528E-005	5.99601E-002	8.23326E-001	3.57670E+000	9	...........
	42	0.573333	8.30748E-001	1.01340E-004	0.00000E+000	8.41879E-005	5.99601E-002	8.31030E-001	3.57670E+000	9	...........
	43	0.586667	8.38237E-001	1.00657E-004	0.00000E+000	8.43748E-005	5.99601E-002	8.38537E-001	3.57670E+000	9	...........
	44	0.6	8.45540E-001	1.01452E-004	0.00000E+000	8.57820E-005	5.99601E-002	8.45840E-001	3.57670E+000	9	...........
	45	0.613333	8.52597E-001	1.01156E-004	0.00000E+000	8.62456E-005	5.99601E-002	8.52889E-001	3.57670E+000	9	...........
	46	0.626667	8.59427E-001	1.01458E-004	0.00000E+000	8.71953E-005	5.99601E-002	8.59752E-001	3.57670E+000	9	...........
	47	0.64	8.66022E-001	1.01329E-004	0.00000E+000	8.77534E-005	5.99601E-002	8.66367E-001	3.57670E+000	9	...........
	48	0.653333	8.72494E-001	1.00302E-004	0.00000E+000	8.75129E-005	5.99601E-002	8.72819E-001	3.57670E+000	9	...........
	49	0.666667	8.78709E-001	1.00298E-004	0.00000E+000	8.81326E-005	5.99601E-002	8.79013E-001	3.57670E+000	9	...........
	50	0.68	8.84756E-001	1.01087E-004	0.00000E+000	8.94370E-005	5.99601E-002	8.85067E-001	3.57670E+000	9	...........
	51	0.693333	8.90612E-001	1.01101E-004	0.00000E+000	9.00419E-005	5.99601E-002	8.90922E-001	3.57670E+000	9	...........
	52	0.706667	8.96286E-001	1.02171E-004	0.00000E+000	9.15747E-005	5.99601E-002	8.96638E-001	3.57670E+000	9	...........
	53	0.72	9.01825E-001	1.01030E-004	0.00000E+000	9.11117E-005	5.99601E-002	9.02168E-001	3.57670E+000	9	...........
	54	0.733333	9.07227E-001	1.00396E-004	0.00000E+000	9.10818E-005	5.99601E-002	9.07585E-001	3.57670E+000	9	...........
	55	0.746667	9.12491E-001	1.01016E-004	0.00000E+000	9.21760E-005	5.99601E-002	9.12857E-001	3.57670E+000	9	...........
	56	0.76	9.17627E-001	1.01455E-004	0.00000E+000	9.30982E-005	5.99601E-002	9.17990E-001	3.57670E+000	9	...........
	57	0.773333	9.22724E-001	1.00207E-004	0.00000E+000	9.24636E-005	5.99601E-002	9.23028E-001	3.57670E+000	9	...........
	58	0.786667	9.27631E-001	1.01321E-004	0.00000E+000	9.39885E-005	5.99601E-002	9.27947E-001	3.57670E+000	9	...........
	59	0.8	9.32449E-001	1.00244E-004	0.00000E+000	9.34721E-005	5.99601E-002	9.32768E-001	3.57670E+000	9	...........
	60	0.813333	9.37155E-001	1.01943E-004	0.00000E+000	9.55365E-005	5.99601E-002	9.37510E-001	3.57670E+000	9	...........
	61	0.826667	9.41791E-001	1.00827E-004	0.00000E+000	9.49581E-005	5.99601E-002	9.42136E-001	3.57670E+000	9	...........
	62	0.84	9.46357E-001	1.01745E-004	0.00000E+000	9.62872E-005	5.99601E-002	9.46698E-001	3.57670E+000	9	...........
	63	0.853333	9.50857E-001	1.00851E-004	0.00000E+000	9.58950E-005	5.99601E-002	9.51181E-001	3.57670E+000	9	...........
	64	0.866667	9.55236E-001	1.00480E-004	0.00000E+000	9.59823E-005	5.99601E-002	9.55579E-001	3.57670E+000	9	...........
	65	0.88	9.59552E-001	1.00343E-004	0.00000E+000	9.62841E-005	5.99601E-002	9.59915E-001	3.57670E+000	9	...........
	66	0.893333	9.63783E-001	1.02014E-004	0.00000E+000	9.83192E-005	5.99601E-002	9.64159E-001	3.57670E+000	9	...........
	67	0.906667	9.67970E-001	1.01133E-004	0.00000E+000	9.78942E-005	5.99601E-002	9.68323E-001	3.57670E+000	9	...........
	68	0.92	9.72063E-001	1.00156E-004	0.00000E+000	9.73582E-005	5.99601E-002	9.72444E-001	3.57670E+000	9	...........
	69	0.933333	9.76101E-001	1.01628E-004	0.00000E+000	9.91996E-005	5.99601E-002	9.76455E-001	3.57670E+000	9	...........
	70	0.946667	9.80030E-001	1.00820E-004	0.00000E+000	9.88065E-005	5.99601E-002	9.80399E-001	3.57670E+000	9	...........
	71	0.96	9.83883E-001	1.00996E-004	0.00000E+000	9.93682E-005	5.99601E-002	9.84246E-001	3.57711E+000	9	...........
	72	0.97333	9.87651E-001	1.02197E-004	0.00000E+000	1.00935E-004	5.99601E-002	9.88017E-001	3.57780E+000	9	...........
	73	0.98667	9.91354E-001	1.00933E-004	0.00000E+000	1.00061E-004	5.99601E-002	9.91717E-001	3.57780E+000	9	...........
	74	1	9.94949E-001	1.00870E-004	0.00000E+000	1.00360E-004	5.99601E-002	9.95314E-001	3.57780E+000	9	...........
	75	1.01333	9.98507E-001	1.00569E-004	0.00000E+000	1.00419E-004	5.99601E-002	9.98857E-001	3.57780E+000	9	...........
STARTTIMEOFFSET	QUANT	873.6404	Start Time Offset (s)
