EXPLAIN
TAG	PWR800_CHARGE
TITLE	LABEL	PWR Cyclic Charge Discharge (Cell) - Charge Step	Test &Identifier
DATE	LABEL	12-7-2017	Date
TIME	LABEL	16:26:38	Time
NOTES	NOTES	2	&Notes...
	supercap test cell
	6M KOH
PSTAT	PSTAT	IFC5000-01520	Potentiostat
CAPACITY	QUANT	1.00000E-003	Capacity (A-hr)
CELLTYPE	SELECTOR	1	&Cell Type
WORKINGCONNECTION	SELECTOR	0	&Working Lead
MAXCHARGETIME	VARIABLEANDUNITS	1.00000E+002	s	1.00000E+002	second(s)	Max &Charge Time
CHARGECURRENT	QUANT	1.00000E-004	&Charge Current (A) 
VOLTAGEFINISH	TWOPARAM	F	1.00000E-003	3.60000E+003	&Voltage Finish	 I (A) < 	Max Time(s)
SAMPLETIME	QUANT	1.00000E-002	Sa&mple Period (s)
CHARGESTOPAT1	MULTIPARAM	4	1.00000E+000	Charge Stop At &1	Voltage > Limit	V
CHARGESTOPAT2	MULTIPARAM	0	0.00000E+000	Charge Stop At &2	None	N/A
AESBHCSELECTOR	TOGGLE	F	Save Both Half Cells
IRCOMP	TOGGLE	F	IR &Measure
EOC	QUANT	0	Open Circuit (V)
SEQUENCER	TOGGLE	TRUE	Run as Sequence
PSTATMODEL	IQUANT	53	Pstat Model
PSTATSECTION	LABEL	IFC5000-01520	Pstat Section
PSTATSERIALNO	LABEL	01520	Pstat Serial Number
CTRLMODE	IQUANT	0	Control Mode
ELECTROMETER	IQUANT	1	RE=0 or CS=1
IESTAB	IQUANT	0	I/E Stability
CASPEED	IQUANT	4	Control Amp Speed
CONVENTION	IQUANT	1	Current Convention
ICHRANGE	IQUANT	2	Ich Range
ICHRANGEMODE	TOGGLE	T	Ich Auto Range
ICHOFFSETENABLE	TOGGLE	F	Ich Offset Enable
ICHOFFSET	QUANT	0	Ich Offset (V)
ICHFILTER	IQUANT	1	Ich Filter
VCHRANGE	IQUANT	2	Vch Range
VCHRANGEMODE	TOGGLE	T	Vch Auto Range
VCHOFFSETENABLE	TOGGLE	F	Vch Offset Enable
VCHOFFSET	QUANT	0	Vch Offset (V)
VCHFILTER	IQUANT	1	Vch Filter
IERANGELOWERLIMIT	IQUANT	9	I/E Range Lower Limit
IERANGEMODE	TOGGLE	F	I/E AutoRange
IERANGE	IQUANT	9	I/E Range
ACHSELECT	IQUANT	1	Ach Select
ACHRANGE	IQUANT	2	Ach Range
ACHOFFSETENABLE	TOGGLE	F	Ach Offset Enable
ACHOFFSET	QUANT	0	Ach Offset (V)
ACHFILTER	IQUANT	1	Ach Filter
CABLEID	IQUANT	14	Cable ID
DCCALDATE	LABEL	5-7-2017	DC Calibration Date
ACCALDATE	LABEL	12/3/2015	AC Calibration Date
FRAMEWORKVERSION	QUANT	7.01	Framework Version
INSTRUMENTVERSION	LABEL	4.00	Instrument Version
CURVE	TABLE	77
	Pt	T	Vf	Im	Vu	Pwr	Sig	Ach	Temp	IERange	Over
	#	s	V	A	V	W	V	V	deg C	#	bits
	0	0.013333	2.62527E-001	1.01345E-004	0.00000E+000	2.66058E-005	5.99601E-002	2.62605E-001	3.57820E+000	9	...........
	1	0.026667	2.85279E-001	1.01008E-004	0.00000E+000	2.88156E-005	5.99601E-002	2.85343E-001	3.57820E+000	9	...........
	2	0.04	3.06655E-001	1.00441E-004	0.00000E+000	3.08006E-005	5.99601E-002	3.06723E-001	3.57820E+000	9	...........
	3	0.053333	3.27033E-001	1.00081E-004	0.00000E+000	3.27298E-005	5.99601E-002	3.27106E-001	3.57820E+000	9	...........
	4	0.066667	3.46617E-001	1.00269E-004	0.00000E+000	3.47549E-005	5.99601E-002	3.46695E-001	3.57820E+000	9	...........
	5	0.08	3.65546E-001	1.01056E-004	0.00000E+000	3.69408E-005	5.99601E-002	3.65628E-001	3.57820E+000	9	...........
	6	0.093333	3.83906E-001	1.00202E-004	0.00000E+000	3.84682E-005	5.99601E-002	3.83982E-001	3.57820E+000	9	...........
	7	0.106667	4.01749E-001	1.00718E-004	0.00000E+000	4.04632E-005	5.99601E-002	4.01833E-001	3.57820E+000	9	...........
	8	0.12	4.19124E-001	1.01043E-004	0.00000E+000	4.23495E-005	5.99601E-002	4.19221E-001	3.57820E+000	9	...........
	9	0.133333	4.36089E-001	1.00594E-004	0.00000E+000	4.38678E-005	5.99601E-002	4.36184E-001	3.57820E+000	9	...........
	10	0.146667	4.52661E-001	1.00531E-004	0.00000E+000	4.55066E-005	5.99601E-002	4.52760E-001	3.57820E+000	9	...........
	11	0.16	4.68853E-001	1.01073E-004	0.00000E+000	4.73884E-005	5.99601E-002	4.68963E-001	3.57820E+000	9	...........
	12	0.173333	4.84697E-001	1.01716E-004	0.00000E+000	4.93014E-005	5.99601E-002	4.84806E-001	3.57820E+000	9	...........
	13	0.186667	5.00194E-001	1.00803E-004	0.00000E+000	5.04211E-005	5.99601E-002	5.00304E-001	3.57820E+000	9	...........
	14	0.2	5.15367E-001	1.01246E-004	0.00000E+000	5.21788E-005	5.99601E-002	5.15483E-001	3.57820E+000	9	...........
	15	0.213333	5.30177E-001	1.01387E-004	0.00000E+000	5.37529E-005	5.99601E-002	5.30295E-001	3.57820E+000	9	...........
	16	0.226667	5.44436E-001	1.00347E-004	0.00000E+000	5.46325E-005	5.99601E-002	5.44696E-001	3.57820E+000	9	...........
	17	0.24	5.58685E-001	1.01876E-004	0.00000E+000	5.69168E-005	5.99601E-002	5.58969E-001	3.57820E+000	9	...........
	18	0.253333	5.72654E-001	1.00823E-004	0.00000E+000	5.77367E-005	5.99601E-002	5.72941E-001	3.57820E+000	9	...........
	19	0.266667	5.86339E-001	1.01762E-004	0.00000E+000	5.96669E-005	5.99601E-002	5.86582E-001	3.57820E+000	9	...........
	20	0.28	5.99724E-001	9.96321E-005	0.00000E+000	5.97518E-005	5.99601E-002	5.99990E-001	3.57820E+000	9	...........
	21	0.293333	6.12833E-001	1.01205E-004	0.00000E+000	6.20220E-005	5.99601E-002	6.13109E-001	3.57820E+000	9	...........
	22	0.306667	6.25726E-001	1.00126E-004	0.00000E+000	6.26515E-005	5.99601E-002	6.25962E-001	3.57820E+000	9	...........
	23	0.32	6.38289E-001	1.01601E-004	0.00000E+000	6.48510E-005	5.99601E-002	6.38548E-001	3.57820E+000	9	...........
	24	0.333333	6.50608E-001	1.00376E-004	0.00000E+000	6.53055E-005	5.99601E-002	6.50863E-001	3.57820E+000	9	...........
	25	0.346667	6.62665E-001	1.02230E-004	0.00000E+000	6.77440E-005	5.99601E-002	6.62907E-001	3.57820E+000	9	...........
	26	0.36	6.74444E-001	1.00136E-004	0.00000E+000	6.75364E-005	5.99601E-002	6.74690E-001	3.57820E+000	9	...........
	27	0.373333	6.85936E-001	1.01720E-004	0.00000E+000	6.97735E-005	5.99601E-002	6.86197E-001	3.57820E+000	9	...........
	28	0.386667	6.97227E-001	1.01154E-004	0.00000E+000	7.05275E-005	5.99601E-002	6.97468E-001	3.57738E+000	9	...........
	29	0.4	7.08203E-001	1.00856E-004	0.00000E+000	7.14268E-005	5.99601E-002	7.08478E-001	3.57710E+000	9	...........
	30	0.413333	7.18952E-001	1.01351E-004	0.00000E+000	7.28667E-005	5.99601E-002	7.19218E-001	3.57710E+000	9	...........
	31	0.426667	7.29450E-001	1.01120E-004	0.00000E+000	7.37619E-005	5.99601E-002	7.29706E-001	3.57710E+000	9	...........
	32	0.44	7.39662E-001	1.00801E-004	0.00000E+000	7.45588E-005	5.99601E-002	7.39935E-001	3.57710E+000	9	...........
	33	0.453333	7.49646E-001	1.02271E-004	0.00000E+000	7.66672E-005	5.99601E-002	7.49920E-001	3.57710E+000	9	...........
	34	0.466667	7.59362E-001	1.00348E-004	0.00000E+000	7.62004E-005	5.99601E-002	7.59636E-001	3.57710E+000	9	...........
	35	0.48	7.68837E-001	1.01338E-004	0.00000E+000	7.79122E-005	5.99601E-002	7.69135E-001	3.57710E+000	9	...........
	36	0.493333	7.78085E-001	1.01067E-004	0.00000E+000	7.86386E-005	5.99601E-002	7.78399E-001	3.57710E+000	9	...........
	37	0.506667	7.87070E-001	1.00858E-004	0.00000E+000	7.93826E-005	5.99601E-002	7.87362E-001	3.57710E+000	9	...........
	38	0.52	7.95847E-001	1.00059E-004	0.00000E+000	7.96319E-005	5.99601E-002	7.96132E-001	3.57710E+000	9	...........
	39	0.533333	8.04351E-001	1.01008E-004	0.00000E+000	8.12463E-005	5.99601E-002	8.04652E-001	3.57710E+000	9	...........
	40	0.546667	8.12623E-001	1.00842E-004	0.00000E+000	8.19463E-005	5.99601E-002	8.12933E-001	3.57710E+000	9	...........
	41	0.56	8.20685E-001	1.01586E-004	0.00000E+000	8.33698E-005	5.99601E-002	8.21003E-001	3.57710E+000	9	...........
	42	0.573333	8.28525E-001	9.99072E-005	0.00000E+000	8.27756E-005	5.99601E-002	8.28823E-001	3.57710E+000	9	...........
	43	0.586667	8.36102E-001	1.01920E-004	0.00000E+000	8.52156E-005	5.99601E-002	8.36418E-001	3.57710E+000	9	...........
	44	0.6	8.43471E-001	1.00623E-004	0.00000E+000	8.48725E-005	5.99601E-002	8.43801E-001	3.57710E+000	9	...........
	45	0.613333	8.50617E-001	1.00458E-004	0.00000E+000	8.54516E-005	5.99601E-002	8.50956E-001	3.57710E+000	9	...........
	46	0.626667	8.57545E-001	1.00563E-004	0.00000E+000	8.62369E-005	5.99601E-002	8.57882E-001	3.57710E+000	9	...........
	47	0.64	8.64253E-001	1.01291E-004	0.00000E+000	8.75409E-005	5.99601E-002	8.64594E-001	3.57710E+000	9	...........
	48	0.653333	8.70781E-001	1.02279E-004	0.00000E+000	8.90622E-005	5.99601E-002	8.71131E-001	3.57710E+000	9	...........
	49	0.666667	8.77094E-001	1.00477E-004	0.00000E+000	8.81279E-005	5.99601E-002	8.77432E-001	3.57710E+000	9	...........
	50	0.68	8.83217E-001	1.00623E-004	0.00000E+000	8.88719E-005	5.99601E-002	8.83549E-001	3.57710E+000	9	...........
	51	0.693333	8.89158E-001	1.00649E-004	0.00000E+000	8.94928E-005	5.99601E-002	8.89492E-001	3.57710E+000	9	...........
	52	0.706667	8.94931E-001	1.00814E-004	0.00000E+000	9.02212E-005	5.99601E-002	8.95272E-001	3.57710E+000	9	...........
	53	0.72	9.00521E-001	1.01787E-004	0.00000E+000	9.16611E-005	5.99601E-002	9.00873E-001	3.57710E+000	9	...........
	54	0.733333	9.05966E-001	1.01254E-004	0.00000E+000	9.17330E-005	5.99601E-002	9.06327E-001	3.57710E+000	9	...........
	55	0.746667	9.11294E-001	9.96176E-005	0.00000E+000	9.07809E-005	5.99601E-002	9.11624E-001	3.57710E+000	9	...........
	56	0.76	9.16433E-001	1.00646E-004	0.00000E+000	9.22352E-005	5.99601E-002	9.16805E-001	3.57710E+000	9	...........
	57	0.773333	9.21526E-001	1.01582E-004	0.00000E+000	9.36100E-005	5.99601E-002	9.21844E-001	3.57710E+000	9	...........
	58	0.786667	9.26485E-001	1.01728E-004	0.00000E+000	9.42499E-005	5.99601E-002	9.26794E-001	3.57710E+000	9	...........
	59	0.8	9.31299E-001	1.00264E-004	0.00000E+000	9.33754E-005	5.99601E-002	9.31618E-001	3.57710E+000	9	...........
	60	0.813333	9.36011E-001	1.00675E-004	0.00000E+000	9.42330E-005	5.99601E-002	9.36351E-001	3.57710E+000	9	...........
	61	0.826667	9.40644E-001	1.00755E-004	0.00000E+000	9.47749E-005	5.99601E-002	9.40966E-001	3.57710E+000	9	...........
	62	0.84	9.45172E-001	1.00887E-004	0.00000E+000	9.53552E-005	5.99601E-002	9.45506E-001	3.57710E+000	9	...........
	63	0.853333	9.49640E-001	1.01373E-004	0.00000E+000	9.62680E-005	5.99601E-002	9.49978E-001	3.57710E+000	9	...........
	64	0.866667	9.54039E-001	1.00938E-004	0.00000E+000	9.62984E-005	5.99601E-002	9.54331E-001	3.57710E+000	9	...........
	65	0.88	9.58282E-001	1.00948E-004	0.00000E+000	9.67367E-005	5.99601E-002	9.58608E-001	3.57710E+000	9	...........
	66	0.893333	9.62482E-001	1.00353E-004	0.00000E+000	9.65881E-005	5.99601E-002	9.62825E-001	3.57710E+000	9	...........
	67	0.906667	9.66620E-001	1.01542E-004	0.00000E+000	9.81524E-005	5.99601E-002	9.66955E-001	3.57710E+000	9	...........
	68	0.92	9.70674E-001	1.00880E-004	0.00000E+000	9.79219E-005	5.99601E-002	9.71034E-001	3.57710E+000	9	...........
	69	0.933333	9.74714E-001	1.01281E-004	0.00000E+000	9.87205E-005	5.99601E-002	9.75040E-001	3.57710E+000	9	...........
	70	0.946667	9.78602E-001	1.01350E-004	0.00000E+000	9.91815E-005	5.99601E-002	9.78949E-001	3.57710E+000	9	...........
	71	0.96	9.82415E-001	1.01445E-004	0.00000E+000	9.96611E-005	5.99601E-002	9.82770E-001	3.57710E+000	9	...........
	72	0.97333	9.86163E-001	1.00594E-004	0.00000E+000	9.92019E-005	5.99601E-002	9.86502E-001	3.57710E+000	9	...........
	73	0.98667	9.89840E-001	1.01126E-004	0.00000E+000	1.00099E-004	5.99601E-002	9.90166E-001	3.57710E+000	9	...........
	74	1	9.93392E-001	1.01335E-004	0.00000E+000	1.00665E-004	5.99601E-002	9.93755E-001	3.57710E+000	9	...........
	75	1.01333	9.96892E-001	1.00735E-004	0.00000E+000	1.00422E-004	5.99601E-002	9.97264E-001	3.57710E+000	9	...........
	76	1.02	9.99481E-001	1.01292E-004	0.00000E+000	1.01239E-004	5.99601E-002	9.99855E-001	3.57710E+000	9	...........
STARTTIMEOFFSET	QUANT	708.923	Start Time Offset (s)
