EXPLAIN
TAG	PWR800_CHARGE
TITLE	LABEL	PWR Cyclic Charge Discharge (Cell) - Charge Step	Test &Identifier
DATE	LABEL	12-7-2017	Date
TIME	LABEL	16:28:00	Time
NOTES	NOTES	2	&Notes...
	supercap test cell
	6M KOH
PSTAT	PSTAT	IFC5000-01520	Potentiostat
CAPACITY	QUANT	1.00000E-003	Capacity (A-hr)
CELLTYPE	SELECTOR	1	&Cell Type
WORKINGCONNECTION	SELECTOR	0	&Working Lead
MAXCHARGETIME	VARIABLEANDUNITS	1.00000E+002	s	1.00000E+002	second(s)	Max &Charge Time
CHARGECURRENT	QUANT	1.00000E-004	&Charge Current (A) 
VOLTAGEFINISH	TWOPARAM	F	1.00000E-003	3.60000E+003	&Voltage Finish	 I (A) < 	Max Time(s)
SAMPLETIME	QUANT	1.00000E-002	Sa&mple Period (s)
CHARGESTOPAT1	MULTIPARAM	4	1.00000E+000	Charge Stop At &1	Voltage > Limit	V
CHARGESTOPAT2	MULTIPARAM	0	0.00000E+000	Charge Stop At &2	None	N/A
AESBHCSELECTOR	TOGGLE	F	Save Both Half Cells
IRCOMP	TOGGLE	F	IR &Measure
EOC	QUANT	0	Open Circuit (V)
SEQUENCER	TOGGLE	TRUE	Run as Sequence
PSTATMODEL	IQUANT	53	Pstat Model
PSTATSECTION	LABEL	IFC5000-01520	Pstat Section
PSTATSERIALNO	LABEL	01520	Pstat Serial Number
CTRLMODE	IQUANT	0	Control Mode
ELECTROMETER	IQUANT	1	RE=0 or CS=1
IESTAB	IQUANT	0	I/E Stability
CASPEED	IQUANT	4	Control Amp Speed
CONVENTION	IQUANT	1	Current Convention
ICHRANGE	IQUANT	2	Ich Range
ICHRANGEMODE	TOGGLE	T	Ich Auto Range
ICHOFFSETENABLE	TOGGLE	F	Ich Offset Enable
ICHOFFSET	QUANT	0	Ich Offset (V)
ICHFILTER	IQUANT	1	Ich Filter
VCHRANGE	IQUANT	2	Vch Range
VCHRANGEMODE	TOGGLE	T	Vch Auto Range
VCHOFFSETENABLE	TOGGLE	F	Vch Offset Enable
VCHOFFSET	QUANT	0	Vch Offset (V)
VCHFILTER	IQUANT	1	Vch Filter
IERANGELOWERLIMIT	IQUANT	9	I/E Range Lower Limit
IERANGEMODE	TOGGLE	F	I/E AutoRange
IERANGE	IQUANT	9	I/E Range
ACHSELECT	IQUANT	1	Ach Select
ACHRANGE	IQUANT	2	Ach Range
ACHOFFSETENABLE	TOGGLE	F	Ach Offset Enable
ACHOFFSET	QUANT	0	Ach Offset (V)
ACHFILTER	IQUANT	1	Ach Filter
CABLEID	IQUANT	14	Cable ID
DCCALDATE	LABEL	5-7-2017	DC Calibration Date
ACCALDATE	LABEL	12/3/2015	AC Calibration Date
FRAMEWORKVERSION	QUANT	7.01	Framework Version
INSTRUMENTVERSION	LABEL	4.00	Instrument Version
CURVE	TABLE	77
	Pt	T	Vf	Im	Vu	Pwr	Sig	Ach	Temp	IERange	Over
	#	s	V	A	V	W	V	V	deg C	#	bits
	0	0.013333	2.59353E-001	1.01108E-004	0.00000E+000	2.62228E-005	5.99601E-002	2.59428E-001	3.57670E+000	9	...........
	1	0.026667	2.82203E-001	1.00112E-004	0.00000E+000	2.82521E-005	5.99601E-002	2.82268E-001	3.57670E+000	9	...........
	2	0.04	3.03692E-001	1.00954E-004	0.00000E+000	3.06590E-005	5.99601E-002	3.03764E-001	3.57670E+000	9	...........
	3	0.053333	3.24195E-001	1.01072E-004	0.00000E+000	3.27671E-005	5.99601E-002	3.24269E-001	3.57670E+000	9	...........
	4	0.066667	3.43919E-001	1.00415E-004	0.00000E+000	3.45345E-005	5.99601E-002	3.43992E-001	3.57670E+000	9	...........
	5	0.08	3.62985E-001	1.00371E-004	0.00000E+000	3.64332E-005	5.99601E-002	3.63063E-001	3.57670E+000	9	...........
	6	0.093333	3.81489E-001	1.01637E-004	0.00000E+000	3.87733E-005	5.99601E-002	3.81570E-001	3.57670E+000	9	...........
	7	0.106667	3.99486E-001	1.00861E-004	0.00000E+000	4.02923E-005	5.99601E-002	3.99567E-001	3.57670E+000	9	...........
	8	0.12	4.17024E-001	1.01255E-004	0.00000E+000	4.22260E-005	5.99601E-002	4.17109E-001	3.57670E+000	9	...........
	9	0.133333	4.34134E-001	1.01124E-004	0.00000E+000	4.39014E-005	5.99601E-002	4.34227E-001	3.57714E+000	9	...........
	10	0.146667	4.50850E-001	1.00962E-004	0.00000E+000	4.55185E-005	5.99601E-002	4.50948E-001	3.57720E+000	9	...........
	11	0.16	4.67197E-001	1.00770E-004	0.00000E+000	4.70794E-005	5.99601E-002	4.67299E-001	3.57720E+000	9	...........
	12	0.173333	4.83176E-001	9.96040E-005	0.00000E+000	4.81263E-005	5.99601E-002	4.83288E-001	3.57720E+000	9	...........
	13	0.186667	4.98823E-001	1.00731E-004	0.00000E+000	5.02471E-005	5.99601E-002	4.98936E-001	3.57720E+000	9	...........
	14	0.2	5.14137E-001	1.01948E-004	0.00000E+000	5.24154E-005	5.99601E-002	5.14253E-001	3.57720E+000	9	...........
	15	0.213333	5.29087E-001	1.02298E-004	0.00000E+000	5.41247E-005	5.99601E-002	5.29219E-001	3.57720E+000	9	...........
	16	0.226667	5.43495E-001	1.00147E-004	0.00000E+000	5.44293E-005	5.99601E-002	5.43744E-001	3.57720E+000	9	...........
	17	0.24	5.57870E-001	1.01545E-004	0.00000E+000	5.66489E-005	5.99601E-002	5.58121E-001	3.57720E+000	9	...........
	18	0.253333	5.71970E-001	1.02347E-004	0.00000E+000	5.85396E-005	5.99601E-002	5.72232E-001	3.57720E+000	9	...........
	19	0.266667	5.85739E-001	1.01613E-004	0.00000E+000	5.95186E-005	5.99601E-002	5.86011E-001	3.57720E+000	9	...........
	20	0.28	5.99255E-001	1.01708E-004	0.00000E+000	6.09488E-005	5.99601E-002	5.99523E-001	3.57720E+000	9	...........
	21	0.293333	6.12455E-001	1.01116E-004	0.00000E+000	6.19289E-005	5.99601E-002	6.12734E-001	3.57720E+000	9	...........
	22	0.306667	6.25421E-001	1.00531E-004	0.00000E+000	6.28744E-005	5.99601E-002	6.25666E-001	3.57720E+000	9	...........
	23	0.32	6.38068E-001	1.00587E-004	0.00000E+000	6.41811E-005	5.99601E-002	6.38357E-001	3.57720E+000	9	...........
	24	0.333333	6.50464E-001	1.00871E-004	0.00000E+000	6.56129E-005	5.99601E-002	6.50753E-001	3.57720E+000	9	...........
	25	0.346667	6.62574E-001	1.00656E-004	0.00000E+000	6.66922E-005	5.99601E-002	6.62839E-001	3.57720E+000	9	...........
	26	0.36	6.74451E-001	1.00391E-004	0.00000E+000	6.77085E-005	5.99601E-002	6.74709E-001	3.57720E+000	9	...........
	27	0.373333	6.86025E-001	1.00928E-004	0.00000E+000	6.92393E-005	5.99601E-002	6.86277E-001	3.57720E+000	9	...........
	28	0.386667	6.97335E-001	1.00654E-004	0.00000E+000	7.01898E-005	5.99601E-002	6.97568E-001	3.57720E+000	9	...........
	29	0.4	7.08381E-001	1.01313E-004	0.00000E+000	7.17680E-005	5.99601E-002	7.08634E-001	3.57720E+000	9	...........
	30	0.413333	7.19208E-001	1.00681E-004	0.00000E+000	7.24109E-005	5.99601E-002	7.19418E-001	3.57720E+000	9	...........
	31	0.426667	7.29725E-001	1.00192E-004	0.00000E+000	7.31123E-005	5.99601E-002	7.29960E-001	3.57720E+000	9	...........
	32	0.44	7.39980E-001	1.01284E-004	0.00000E+000	7.49478E-005	5.99601E-002	7.40223E-001	3.57720E+000	9	...........
	33	0.453333	7.49980E-001	1.00402E-004	0.00000E+000	7.52995E-005	5.99601E-002	7.50239E-001	3.57720E+000	9	...........
	34	0.466667	7.59743E-001	9.99801E-005	0.00000E+000	7.59593E-005	5.99601E-002	7.60015E-001	3.57720E+000	9	...........
	35	0.48	7.69269E-001	1.01933E-004	0.00000E+000	7.84137E-005	5.99601E-002	7.69524E-001	3.57720E+000	9	...........
	36	0.493333	7.78509E-001	1.01117E-004	0.00000E+000	7.87204E-005	5.99601E-002	7.78797E-001	3.57720E+000	9	...........
	37	0.506667	7.87512E-001	1.01234E-004	0.00000E+000	7.97227E-005	5.99601E-002	7.87807E-001	3.57720E+000	9	...........
	38	0.52	7.96321E-001	1.01630E-004	0.00000E+000	8.09305E-005	5.99601E-002	7.96598E-001	3.57720E+000	9	...........
	39	0.533333	8.04808E-001	1.01722E-004	0.00000E+000	8.18668E-005	5.99601E-002	8.05105E-001	3.57720E+000	9	...........
	40	0.546667	8.13081E-001	1.00759E-004	0.00000E+000	8.19256E-005	5.99601E-002	8.13382E-001	3.57720E+000	9	...........
	41	0.56	8.21136E-001	1.01616E-004	0.00000E+000	8.34405E-005	5.99601E-002	8.21453E-001	3.57720E+000	9	...........
	42	0.573333	8.28949E-001	1.01234E-004	0.00000E+000	8.39174E-005	5.99601E-002	8.29261E-001	3.57720E+000	9	...........
	43	0.586667	8.36534E-001	1.00833E-004	0.00000E+000	8.43506E-005	5.99601E-002	8.36881E-001	3.57720E+000	9	...........
	44	0.6	8.43913E-001	1.00569E-004	0.00000E+000	8.48713E-005	5.99601E-002	8.44230E-001	3.57720E+000	9	...........
	45	0.613333	8.51053E-001	1.00160E-004	0.00000E+000	8.52418E-005	5.99601E-002	8.51374E-001	3.57720E+000	9	...........
	46	0.626667	8.57967E-001	1.02105E-004	0.00000E+000	8.76023E-005	5.99601E-002	8.58296E-001	3.57720E+000	9	...........
	47	0.64	8.64649E-001	1.01148E-004	0.00000E+000	8.74575E-005	5.99601E-002	8.64991E-001	3.57720E+000	9	...........
	48	0.653333	8.71151E-001	1.01210E-004	0.00000E+000	8.81688E-005	5.99601E-002	8.71478E-001	3.57720E+000	9	...........
	49	0.666667	8.77453E-001	1.00703E-004	0.00000E+000	8.83624E-005	5.99601E-002	8.77778E-001	3.57720E+000	9	...........
	50	0.68	8.83570E-001	1.01851E-004	0.00000E+000	8.99929E-005	5.99601E-002	8.83884E-001	3.57720E+000	9	...........
	51	0.693333	8.89475E-001	1.00222E-004	0.00000E+000	8.91449E-005	5.99601E-002	8.89803E-001	3.57720E+000	9	...........
	52	0.706667	8.95230E-001	1.00494E-004	0.00000E+000	8.99650E-005	5.99601E-002	8.95587E-001	3.57720E+000	9	...........
	53	0.72	9.00826E-001	1.01388E-004	0.00000E+000	9.13327E-005	5.99601E-002	9.01162E-001	3.57720E+000	9	...........
	54	0.733333	9.06265E-001	1.00884E-004	0.00000E+000	9.14281E-005	5.99601E-002	9.06602E-001	3.57720E+000	9	...........
	55	0.746667	9.11573E-001	1.00355E-004	0.00000E+000	9.14811E-005	5.99601E-002	9.11897E-001	3.57720E+000	9	...........
	56	0.76	9.16723E-001	1.01050E-004	0.00000E+000	9.26350E-005	5.99601E-002	9.17060E-001	3.57720E+000	9	...........
	57	0.773333	9.21842E-001	1.01941E-004	0.00000E+000	9.39735E-005	5.99601E-002	9.22153E-001	3.57720E+000	9	...........
	58	0.786667	9.26779E-001	1.00178E-004	0.00000E+000	9.28429E-005	5.99601E-002	9.27085E-001	3.57720E+000	9	...........
	59	0.8	9.31582E-001	1.01708E-004	0.00000E+000	9.47490E-005	5.99601E-002	9.31894E-001	3.57720E+000	9	...........
	60	0.813333	9.36323E-001	1.01965E-004	0.00000E+000	9.54721E-005	5.99601E-002	9.36640E-001	3.57720E+000	9	...........
	61	0.826667	9.40934E-001	1.00489E-004	0.00000E+000	9.45531E-005	5.99601E-002	9.41269E-001	3.57720E+000	9	...........
	62	0.84	9.45522E-001	1.01092E-004	0.00000E+000	9.55846E-005	5.99601E-002	9.45839E-001	3.57720E+000	9	...........
	63	0.853333	9.50010E-001	1.01366E-004	0.00000E+000	9.62986E-005	5.99601E-002	9.50303E-001	3.57720E+000	9	...........
	64	0.866667	9.54379E-001	1.02384E-004	0.00000E+000	9.77129E-005	5.99601E-002	9.54699E-001	3.57720E+000	9	...........
	65	0.88	9.58660E-001	1.00916E-004	0.00000E+000	9.67438E-005	5.99601E-002	9.59005E-001	3.57720E+000	9	...........
	66	0.893333	9.62901E-001	1.02046E-004	0.00000E+000	9.82604E-005	5.99601E-002	9.63253E-001	3.57720E+000	9	...........
	67	0.906667	9.67066E-001	1.02035E-004	0.00000E+000	9.86743E-005	5.99601E-002	9.67405E-001	3.57720E+000	9	...........
	68	0.92	9.71132E-001	1.00282E-004	0.00000E+000	9.73873E-005	5.99601E-002	9.71483E-001	3.57720E+000	9	...........
	69	0.933333	9.75171E-001	1.00574E-004	0.00000E+000	9.80768E-005	5.99601E-002	9.75508E-001	3.57720E+000	9	...........
	70	0.946667	9.79091E-001	1.01438E-004	0.00000E+000	9.93167E-005	5.99601E-002	9.79424E-001	3.57720E+000	9	...........
	71	0.96	9.82921E-001	1.01660E-004	0.00000E+000	9.99234E-005	5.99601E-002	9.83277E-001	3.57720E+000	9	...........
	72	0.97333	9.86686E-001	1.00873E-004	0.00000E+000	9.95300E-005	5.99601E-002	9.87031E-001	3.57720E+000	9	...........
	73	0.98667	9.90375E-001	1.01349E-004	0.00000E+000	1.00374E-004	5.99601E-002	9.90684E-001	3.57720E+000	9	...........
	74	1	9.93941E-001	1.00032E-004	0.00000E+000	9.94262E-005	5.99601E-002	9.94247E-001	3.57720E+000	9	...........
	75	1.01333	9.97454E-001	1.01124E-004	0.00000E+000	1.00867E-004	5.99601E-002	9.97794E-001	3.57720E+000	9	...........
	76	1.01833	9.99853E-001	1.00337E-004	0.00000E+000	1.00322E-004	5.99601E-002	1.00018E+000	3.57720E+000	9	...........
STARTTIMEOFFSET	QUANT	767.8466	Start Time Offset (s)
