EXPLAIN
TAG	PWR800_CHARGE
TITLE	LABEL	PWR Cyclic Charge Discharge (Cell) - Charge Step	Test &Identifier
DATE	LABEL	12-7-2017	Date
TIME	LABEL	16:43:23	Time
NOTES	NOTES	2	&Notes...
	supercap test cell
	6M KOH
PSTAT	PSTAT	IFC5000-01520	Potentiostat
CAPACITY	QUANT	1.00000E-003	Capacity (A-hr)
CELLTYPE	SELECTOR	1	&Cell Type
WORKINGCONNECTION	SELECTOR	0	&Working Lead
MAXCHARGETIME	VARIABLEANDUNITS	1.00000E+002	s	1.00000E+002	second(s)	Max &Charge Time
CHARGECURRENT	QUANT	1.00000E-004	&Charge Current (A) 
VOLTAGEFINISH	TWOPARAM	F	1.00000E-003	3.60000E+003	&Voltage Finish	 I (A) < 	Max Time(s)
SAMPLETIME	QUANT	1.00000E-002	Sa&mple Period (s)
CHARGESTOPAT1	MULTIPARAM	4	1.00000E+000	Charge Stop At &1	Voltage > Limit	V
CHARGESTOPAT2	MULTIPARAM	0	0.00000E+000	Charge Stop At &2	None	N/A
AESBHCSELECTOR	TOGGLE	F	Save Both Half Cells
IRCOMP	TOGGLE	F	IR &Measure
EOC	QUANT	0	Open Circuit (V)
SEQUENCER	TOGGLE	TRUE	Run as Sequence
PSTATMODEL	IQUANT	53	Pstat Model
PSTATSECTION	LABEL	IFC5000-01520	Pstat Section
PSTATSERIALNO	LABEL	01520	Pstat Serial Number
CTRLMODE	IQUANT	0	Control Mode
ELECTROMETER	IQUANT	1	RE=0 or CS=1
IESTAB	IQUANT	0	I/E Stability
CASPEED	IQUANT	4	Control Amp Speed
CONVENTION	IQUANT	1	Current Convention
ICHRANGE	IQUANT	2	Ich Range
ICHRANGEMODE	TOGGLE	T	Ich Auto Range
ICHOFFSETENABLE	TOGGLE	F	Ich Offset Enable
ICHOFFSET	QUANT	0	Ich Offset (V)
ICHFILTER	IQUANT	1	Ich Filter
VCHRANGE	IQUANT	2	Vch Range
VCHRANGEMODE	TOGGLE	T	Vch Auto Range
VCHOFFSETENABLE	TOGGLE	F	Vch Offset Enable
VCHOFFSET	QUANT	0	Vch Offset (V)
VCHFILTER	IQUANT	1	Vch Filter
IERANGELOWERLIMIT	IQUANT	9	I/E Range Lower Limit
IERANGEMODE	TOGGLE	F	I/E AutoRange
IERANGE	IQUANT	9	I/E Range
ACHSELECT	IQUANT	1	Ach Select
ACHRANGE	IQUANT	2	Ach Range
ACHOFFSETENABLE	TOGGLE	F	Ach Offset Enable
ACHOFFSET	QUANT	0	Ach Offset (V)
ACHFILTER	IQUANT	1	Ach Filter
CABLEID	IQUANT	14	Cable ID
DCCALDATE	LABEL	5-7-2017	DC Calibration Date
ACCALDATE	LABEL	12/3/2015	AC Calibration Date
FRAMEWORKVERSION	QUANT	7.01	Framework Version
INSTRUMENTVERSION	LABEL	4.00	Instrument Version
CURVE	TABLE	75
	Pt	T	Vf	Im	Vu	Pwr	Sig	Ach	Temp	IERange	Over
	#	s	V	A	V	W	V	V	deg C	#	bits
	0	0.013333	2.61801E-001	1.00552E-004	0.00000E+000	2.63247E-005	5.99601E-002	2.61880E-001	3.57950E+000	9	...........
	1	0.026667	2.84779E-001	1.00301E-004	0.00000E+000	2.85636E-005	5.99601E-002	2.84835E-001	3.57950E+000	9	...........
	2	0.04	3.06491E-001	1.01196E-004	0.00000E+000	3.10156E-005	5.99601E-002	3.06555E-001	3.57950E+000	9	...........
	3	0.053333	3.27307E-001	1.00417E-004	0.00000E+000	3.28671E-005	5.99601E-002	3.27374E-001	3.57950E+000	9	...........
	4	0.066667	3.47395E-001	1.01764E-004	0.00000E+000	3.53522E-005	5.99601E-002	3.47467E-001	3.57950E+000	9	...........
	5	0.08	3.66878E-001	1.01120E-004	0.00000E+000	3.70987E-005	5.99601E-002	3.66956E-001	3.57950E+000	9	...........
	6	0.093333	3.85837E-001	9.96051E-005	0.00000E+000	3.84313E-005	5.99601E-002	3.85913E-001	3.57950E+000	9	...........
	7	0.106667	4.04314E-001	1.01433E-004	0.00000E+000	4.10105E-005	5.99601E-002	4.04396E-001	3.57950E+000	9	...........
	8	0.12	4.22340E-001	1.00167E-004	0.00000E+000	4.23044E-005	5.99601E-002	4.22434E-001	3.57950E+000	9	...........
	9	0.133333	4.39964E-001	1.01303E-004	0.00000E+000	4.45698E-005	5.99601E-002	4.40060E-001	3.57950E+000	9	...........
	10	0.146667	4.57199E-001	1.00557E-004	0.00000E+000	4.59748E-005	5.99601E-002	4.57290E-001	3.57950E+000	9	...........
	11	0.16	4.74046E-001	1.01675E-004	0.00000E+000	4.81988E-005	5.99601E-002	4.74147E-001	3.57950E+000	9	...........
	12	0.173333	4.90529E-001	1.01129E-004	0.00000E+000	4.96069E-005	5.99601E-002	4.90628E-001	3.57950E+000	9	...........
	13	0.186667	5.06653E-001	1.00299E-004	0.00000E+000	5.08167E-005	5.99601E-002	5.06759E-001	3.57950E+000	9	...........
	14	0.2	5.22424E-001	1.01649E-004	0.00000E+000	5.31040E-005	5.99601E-002	5.22535E-001	3.57950E+000	9	...........
	15	0.213333	5.37607E-001	1.00329E-004	0.00000E+000	5.39377E-005	5.99601E-002	5.37835E-001	3.57950E+000	9	...........
	16	0.226667	5.52604E-001	1.01391E-004	0.00000E+000	5.60290E-005	5.99601E-002	5.52870E-001	3.57950E+000	9	...........
	17	0.24	5.67362E-001	1.00553E-004	0.00000E+000	5.70501E-005	5.99601E-002	5.67639E-001	3.57950E+000	9	...........
	18	0.253333	5.81770E-001	1.01110E-004	0.00000E+000	5.88225E-005	5.99601E-002	5.82045E-001	3.57950E+000	9	...........
	19	0.266667	5.95855E-001	1.01187E-004	0.00000E+000	6.02926E-005	5.99601E-002	5.96130E-001	3.57836E+000	9	...........
	20	0.28	6.09615E-001	9.94936E-005	0.00000E+000	6.06528E-005	5.99601E-002	6.09892E-001	3.57690E+000	9	...........
	21	0.293333	6.23102E-001	1.01006E-004	0.00000E+000	6.29373E-005	5.99601E-002	6.23321E-001	3.57690E+000	9	...........
	22	0.306667	6.36219E-001	1.00483E-004	0.00000E+000	6.39294E-005	5.99601E-002	6.36453E-001	3.57690E+000	9	...........
	23	0.32	6.49005E-001	1.01336E-004	0.00000E+000	6.57673E-005	5.99601E-002	6.49281E-001	3.57690E+000	9	...........
	24	0.333333	6.61532E-001	1.02049E-004	0.00000E+000	6.75089E-005	5.99601E-002	6.61777E-001	3.57690E+000	9	...........
	25	0.346667	6.73734E-001	1.01234E-004	0.00000E+000	6.82045E-005	5.99601E-002	6.73969E-001	3.57690E+000	9	...........
	26	0.36	6.85614E-001	1.00315E-004	0.00000E+000	6.87770E-005	5.99601E-002	6.85860E-001	3.57690E+000	9	...........
	27	0.373333	6.97204E-001	1.02226E-004	0.00000E+000	7.12727E-005	5.99601E-002	6.97445E-001	3.57690E+000	9	...........
	28	0.386667	7.08475E-001	1.01848E-004	0.00000E+000	7.21569E-005	5.99601E-002	7.08706E-001	3.57690E+000	9	...........
	29	0.4	7.19485E-001	1.00786E-004	0.00000E+000	7.25136E-005	5.99601E-002	7.19721E-001	3.57690E+000	9	...........
	30	0.413333	7.30179E-001	1.01587E-004	0.00000E+000	7.41765E-005	5.99601E-002	7.30433E-001	3.57690E+000	9	...........
	31	0.426667	7.40589E-001	1.00050E-004	0.00000E+000	7.40959E-005	5.99601E-002	7.40845E-001	3.57690E+000	9	...........
	32	0.44	7.50725E-001	9.93508E-005	0.00000E+000	7.45852E-005	5.99601E-002	7.50965E-001	3.57690E+000	9	...........
	33	0.453333	7.60577E-001	1.00524E-004	0.00000E+000	7.64563E-005	5.99601E-002	7.60811E-001	3.57690E+000	9	...........
	34	0.466667	7.70154E-001	1.00316E-004	0.00000E+000	7.72584E-005	5.99601E-002	7.70386E-001	3.57690E+000	9	...........
	35	0.48	7.79445E-001	1.00767E-004	0.00000E+000	7.85421E-005	5.99601E-002	7.79702E-001	3.57690E+000	9	...........
	36	0.493333	7.88453E-001	1.00020E-004	0.00000E+000	7.88608E-005	5.99601E-002	7.88702E-001	3.57690E+000	9	...........
	37	0.506667	7.97252E-001	1.01209E-004	0.00000E+000	8.06887E-005	5.99601E-002	7.97491E-001	3.57690E+000	9	...........
	38	0.52	8.05734E-001	1.02399E-004	0.00000E+000	8.25067E-005	5.99601E-002	8.05998E-001	3.57690E+000	9	...........
	39	0.533333	8.13951E-001	1.00589E-004	0.00000E+000	8.18742E-005	5.99601E-002	8.14231E-001	3.57690E+000	9	...........
	40	0.546667	8.21966E-001	1.00429E-004	0.00000E+000	8.25494E-005	5.99601E-002	8.22238E-001	3.57690E+000	9	...........
	41	0.56	8.29706E-001	1.00118E-004	0.00000E+000	8.30682E-005	5.99601E-002	8.29966E-001	3.57690E+000	9	...........
	42	0.573333	8.37191E-001	1.01500E-004	0.00000E+000	8.49751E-005	5.99601E-002	8.37460E-001	3.57690E+000	9	...........
	43	0.586667	8.44459E-001	1.00418E-004	0.00000E+000	8.47986E-005	5.99601E-002	8.44730E-001	3.57690E+000	9	...........
	44	0.6	8.51484E-001	1.01424E-004	0.00000E+000	8.63610E-005	5.99601E-002	8.51787E-001	3.57690E+000	9	...........
	45	0.613333	8.58312E-001	1.03275E-004	0.00000E+000	8.86418E-005	5.99601E-002	8.58621E-001	3.57690E+000	9	...........
	46	0.626667	8.64910E-001	1.00945E-004	0.00000E+000	8.73083E-005	5.99601E-002	8.65211E-001	3.57690E+000	9	...........
	47	0.64	8.71345E-001	1.01503E-004	0.00000E+000	8.84444E-005	5.99601E-002	8.71666E-001	3.57690E+000	9	...........
	48	0.653333	8.77562E-001	1.01045E-004	0.00000E+000	8.86732E-005	5.99601E-002	8.77874E-001	3.57690E+000	9	...........
	49	0.666667	8.83615E-001	1.00912E-004	0.00000E+000	8.91670E-005	5.99601E-002	8.83933E-001	3.57690E+000	9	...........
	50	0.68	8.89490E-001	1.00746E-004	0.00000E+000	8.96125E-005	5.99601E-002	8.89813E-001	3.57690E+000	9	...........
	51	0.693333	8.95241E-001	1.01721E-004	0.00000E+000	9.10649E-005	5.99601E-002	8.95569E-001	3.57690E+000	9	...........
	52	0.706667	9.00827E-001	1.01381E-004	0.00000E+000	9.13272E-005	5.99601E-002	9.01150E-001	3.57690E+000	9	...........
	53	0.72	9.06279E-001	1.00446E-004	0.00000E+000	9.10320E-005	5.99601E-002	9.06635E-001	3.57690E+000	9	...........
	54	0.733333	9.11653E-001	1.02448E-004	0.00000E+000	9.33974E-005	5.99601E-002	9.11964E-001	3.57690E+000	9	...........
	55	0.746667	9.16889E-001	1.02312E-004	0.00000E+000	9.38086E-005	5.99601E-002	9.17207E-001	3.57690E+000	9	...........
	56	0.76	9.22061E-001	1.00928E-004	0.00000E+000	9.30620E-005	5.99601E-002	9.22313E-001	3.57690E+000	9	...........
	57	0.773333	9.27075E-001	1.00339E-004	0.00000E+000	9.30214E-005	5.99601E-002	9.27368E-001	3.57690E+000	9	...........
	58	0.786667	9.32018E-001	1.01783E-004	0.00000E+000	9.48633E-005	5.99601E-002	9.32299E-001	3.57690E+000	9	...........
	59	0.8	9.36855E-001	1.00305E-004	0.00000E+000	9.39715E-005	5.99601E-002	9.37168E-001	3.57690E+000	9	...........
	60	0.813333	9.41631E-001	1.00018E-004	0.00000E+000	9.41797E-005	5.99601E-002	9.41936E-001	3.57690E+000	9	...........
	61	0.826667	9.46359E-001	1.00539E-004	0.00000E+000	9.51456E-005	5.99601E-002	9.46650E-001	3.57690E+000	9	...........
	62	0.84	9.51004E-001	1.01585E-004	0.00000E+000	9.66074E-005	5.99601E-002	9.51308E-001	3.57690E+000	9	...........
	63	0.853333	9.55547E-001	1.01380E-004	0.00000E+000	9.68738E-005	5.99601E-002	9.55834E-001	3.57690E+000	9	...........
	64	0.866667	9.60012E-001	1.01002E-004	0.00000E+000	9.69634E-005	5.99601E-002	9.60318E-001	3.57690E+000	9	...........
	65	0.88	9.64387E-001	1.00403E-004	0.00000E+000	9.68274E-005	5.99601E-002	9.64733E-001	3.57690E+000	9	...........
	66	0.893333	9.68716E-001	1.01187E-004	0.00000E+000	9.80211E-005	5.99601E-002	9.69046E-001	3.57690E+000	9	...........
	67	0.906667	9.72986E-001	1.02441E-004	0.00000E+000	9.96737E-005	5.99601E-002	9.73323E-001	3.57690E+000	9	...........
	68	0.92	9.77176E-001	1.01012E-004	0.00000E+000	9.87061E-005	5.99601E-002	9.77499E-001	3.57690E+000	9	...........
	69	0.933333	9.81267E-001	1.00560E-004	0.00000E+000	9.86766E-005	5.99601E-002	9.81583E-001	3.57690E+000	9	...........
	70	0.946667	9.85262E-001	1.01061E-004	0.00000E+000	9.95711E-005	5.99601E-002	9.85599E-001	3.57690E+000	9	...........
	71	0.96	9.89191E-001	1.00278E-004	0.00000E+000	9.91942E-005	5.99601E-002	9.89505E-001	3.57690E+000	9	...........
	72	0.97333	9.92983E-001	1.00358E-004	0.00000E+000	9.96542E-005	5.99601E-002	9.93324E-001	3.57690E+000	9	...........
	73	0.98667	9.96741E-001	1.00710E-004	0.00000E+000	1.00382E-004	5.99601E-002	9.97095E-001	3.57690E+000	9	...........
	74	0.99333	9.99518E-001	1.00802E-004	0.00000E+000	1.00754E-004	5.99601E-002	9.99857E-001	3.57690E+000	9	...........
STARTTIMEOFFSET	QUANT	1421.44	Start Time Offset (s)
