EXPLAIN
TAG	PWR800_CHARGE
TITLE	LABEL	PWR Cyclic Charge Discharge (Cell) - Charge Step	Test &Identifier
DATE	LABEL	12-7-2017	Date
TIME	LABEL	16:12:54	Time
NOTES	NOTES	2	&Notes...
	supercap test cell
	6M KOH
PSTAT	PSTAT	IFC5000-01520	Potentiostat
CAPACITY	QUANT	1.00000E-003	Capacity (A-hr)
CELLTYPE	SELECTOR	1	&Cell Type
WORKINGCONNECTION	SELECTOR	0	&Working Lead
MAXCHARGETIME	VARIABLEANDUNITS	1.00000E+002	s	1.00000E+002	second(s)	Max &Charge Time
CHARGECURRENT	QUANT	1.00000E-004	&Charge Current (A) 
VOLTAGEFINISH	TWOPARAM	F	1.00000E-003	3.60000E+003	&Voltage Finish	 I (A) < 	Max Time(s)
SAMPLETIME	QUANT	1.00000E-002	Sa&mple Period (s)
CHARGESTOPAT1	MULTIPARAM	4	1.00000E+000	Charge Stop At &1	Voltage > Limit	V
CHARGESTOPAT2	MULTIPARAM	0	0.00000E+000	Charge Stop At &2	None	N/A
AESBHCSELECTOR	TOGGLE	F	Save Both Half Cells
IRCOMP	TOGGLE	F	IR &Measure
EOC	QUANT	0	Open Circuit (V)
SEQUENCER	TOGGLE	TRUE	Run as Sequence
PSTATMODEL	IQUANT	53	Pstat Model
PSTATSECTION	LABEL	IFC5000-01520	Pstat Section
PSTATSERIALNO	LABEL	01520	Pstat Serial Number
CTRLMODE	IQUANT	0	Control Mode
ELECTROMETER	IQUANT	1	RE=0 or CS=1
IESTAB	IQUANT	0	I/E Stability
CASPEED	IQUANT	4	Control Amp Speed
CONVENTION	IQUANT	1	Current Convention
ICHRANGE	IQUANT	2	Ich Range
ICHRANGEMODE	TOGGLE	T	Ich Auto Range
ICHOFFSETENABLE	TOGGLE	F	Ich Offset Enable
ICHOFFSET	QUANT	0	Ich Offset (V)
ICHFILTER	IQUANT	1	Ich Filter
VCHRANGE	IQUANT	2	Vch Range
VCHRANGEMODE	TOGGLE	T	Vch Auto Range
VCHOFFSETENABLE	TOGGLE	F	Vch Offset Enable
VCHOFFSET	QUANT	0	Vch Offset (V)
VCHFILTER	IQUANT	1	Vch Filter
IERANGELOWERLIMIT	IQUANT	9	I/E Range Lower Limit
IERANGEMODE	TOGGLE	F	I/E AutoRange
IERANGE	IQUANT	9	I/E Range
ACHSELECT	IQUANT	1	Ach Select
ACHRANGE	IQUANT	2	Ach Range
ACHOFFSETENABLE	TOGGLE	F	Ach Offset Enable
ACHOFFSET	QUANT	0	Ach Offset (V)
ACHFILTER	IQUANT	1	Ach Filter
CABLEID	IQUANT	14	Cable ID
DCCALDATE	LABEL	5-7-2017	DC Calibration Date
ACCALDATE	LABEL	12/3/2015	AC Calibration Date
FRAMEWORKVERSION	QUANT	7.01	Framework Version
INSTRUMENTVERSION	LABEL	4.00	Instrument Version
CURVE	TABLE	82
	Pt	T	Vf	Im	Vu	Pwr	Sig	Ach	Temp	IERange	Over
	#	s	V	A	V	W	V	V	deg C	#	bits
	0	0.013333	2.61363E-001	1.01200E-004	0.00000E+000	2.64500E-005	5.99601E-002	2.61438E-001	3.57720E+000	9	...........
	1	0.026667	2.83980E-001	1.00406E-004	0.00000E+000	2.85134E-005	5.99601E-002	2.84037E-001	3.57720E+000	9	...........
	2	0.04	3.04973E-001	1.00933E-004	0.00000E+000	3.07820E-005	5.99601E-002	3.05034E-001	3.57720E+000	9	...........
	3	0.053333	3.24722E-001	9.94248E-005	0.00000E+000	3.22854E-005	5.99601E-002	3.24779E-001	3.57720E+000	9	...........
	4	0.066667	3.43445E-001	1.00497E-004	0.00000E+000	3.45152E-005	5.99601E-002	3.43511E-001	3.57720E+000	9	...........
	5	0.08	3.61286E-001	1.00940E-004	0.00000E+000	3.64681E-005	5.99601E-002	3.61355E-001	3.57720E+000	9	...........
	6	0.093333	3.78383E-001	1.01188E-004	0.00000E+000	3.82877E-005	5.99601E-002	3.78458E-001	3.57720E+000	9	...........
	7	0.106667	3.94825E-001	1.01562E-004	0.00000E+000	4.00991E-005	5.99601E-002	3.94900E-001	3.57720E+000	9	...........
	8	0.12	4.10688E-001	9.99510E-005	0.00000E+000	4.10487E-005	5.99601E-002	4.10767E-001	3.57720E+000	9	...........
	9	0.133333	4.26035E-001	1.01110E-004	0.00000E+000	4.30762E-005	5.99601E-002	4.26121E-001	3.57720E+000	9	...........
	10	0.146667	4.40926E-001	1.01306E-004	0.00000E+000	4.46686E-005	5.99601E-002	4.41017E-001	3.57720E+000	9	...........
	11	0.16	4.55406E-001	1.01092E-004	0.00000E+000	4.60378E-005	5.99601E-002	4.55503E-001	3.57720E+000	9	...........
	12	0.173333	4.69519E-001	1.00569E-004	0.00000E+000	4.72190E-005	5.99601E-002	4.69620E-001	3.57720E+000	9	...........
	13	0.186667	4.83287E-001	1.00902E-004	0.00000E+000	4.87647E-005	5.99601E-002	4.83390E-001	3.57720E+000	9	...........
	14	0.2	4.96745E-001	1.00274E-004	0.00000E+000	4.98106E-005	5.99601E-002	4.96858E-001	3.57720E+000	9	...........
	15	0.213333	5.09921E-001	1.00715E-004	0.00000E+000	5.13565E-005	5.99601E-002	5.10036E-001	3.57720E+000	9	...........
	16	0.226667	5.22827E-001	1.00401E-004	0.00000E+000	5.24924E-005	5.99601E-002	5.22940E-001	3.57720E+000	9	...........
	17	0.24	5.35286E-001	1.01161E-004	0.00000E+000	5.41498E-005	5.99601E-002	5.35476E-001	3.57720E+000	9	...........
	18	0.253333	5.47593E-001	1.01634E-004	0.00000E+000	5.56538E-005	5.99601E-002	5.47847E-001	3.57720E+000	9	...........
	19	0.266667	5.59805E-001	1.00683E-004	0.00000E+000	5.63630E-005	5.99601E-002	5.60081E-001	3.57720E+000	9	...........
	20	0.28	5.71811E-001	9.94904E-005	0.00000E+000	5.68898E-005	5.99601E-002	5.72060E-001	3.57720E+000	9	...........
	21	0.293333	5.83572E-001	1.00856E-004	0.00000E+000	5.88570E-005	5.99601E-002	5.83843E-001	3.57720E+000	9	...........
	22	0.306667	5.95194E-001	1.01193E-004	0.00000E+000	6.02294E-005	5.99601E-002	5.95478E-001	3.57720E+000	9	...........
	23	0.32	6.06586E-001	1.01000E-004	0.00000E+000	6.12652E-005	5.99601E-002	6.06877E-001	3.57720E+000	9	...........
	24	0.333333	6.17854E-001	1.00981E-004	0.00000E+000	6.23917E-005	5.99601E-002	6.18129E-001	3.57720E+000	9	...........
	25	0.346667	6.28898E-001	1.00352E-004	0.00000E+000	6.31112E-005	5.99601E-002	6.29179E-001	3.57720E+000	9	...........
	26	0.36	6.39799E-001	1.00212E-004	0.00000E+000	6.41158E-005	5.99601E-002	6.40077E-001	3.57720E+000	9	...........
	27	0.373333	6.50522E-001	1.00802E-004	0.00000E+000	6.55740E-005	5.99601E-002	6.50797E-001	3.57720E+000	9	...........
	28	0.386667	6.61085E-001	1.00234E-004	0.00000E+000	6.62634E-005	5.99601E-002	6.61355E-001	3.57720E+000	9	...........
	29	0.4	6.71508E-001	1.00620E-004	0.00000E+000	6.75671E-005	5.99601E-002	6.71768E-001	3.57720E+000	9	...........
	30	0.413333	6.81735E-001	1.00779E-004	0.00000E+000	6.87047E-005	5.99601E-002	6.82000E-001	3.57720E+000	9	...........
	31	0.426667	6.91786E-001	1.00002E-004	0.00000E+000	6.91800E-005	5.99601E-002	6.92078E-001	3.57720E+000	9	...........
	32	0.44	7.01701E-001	1.01103E-004	0.00000E+000	7.09442E-005	5.99601E-002	7.01981E-001	3.57720E+000	9	...........
	33	0.453333	7.11452E-001	1.01511E-004	0.00000E+000	7.22200E-005	5.99601E-002	7.11746E-001	3.57720E+000	9	...........
	34	0.466667	7.21092E-001	1.01012E-004	0.00000E+000	7.28386E-005	5.99601E-002	7.21354E-001	3.57720E+000	9	...........
	35	0.48	7.30501E-001	1.00927E-004	0.00000E+000	7.37275E-005	5.99601E-002	7.30779E-001	3.57720E+000	9	...........
	36	0.493333	7.39759E-001	1.00209E-004	0.00000E+000	7.41307E-005	5.99601E-002	7.40049E-001	3.57720E+000	9	...........
	37	0.506667	7.48893E-001	1.01665E-004	0.00000E+000	7.61361E-005	5.99601E-002	7.49188E-001	3.57720E+000	9	...........
	38	0.52	7.57846E-001	1.01352E-004	0.00000E+000	7.68095E-005	5.99601E-002	7.58124E-001	3.57720E+000	9	...........
	39	0.533333	7.66639E-001	1.00823E-004	0.00000E+000	7.72948E-005	5.99601E-002	7.66937E-001	3.57720E+000	9	...........
	40	0.546667	7.75295E-001	1.01237E-004	0.00000E+000	7.84883E-005	5.99601E-002	7.75562E-001	3.57720E+000	9	...........
	41	0.56	7.83795E-001	1.00085E-004	0.00000E+000	7.84464E-005	5.99601E-002	7.84071E-001	3.57720E+000	9	...........
	42	0.573333	7.92087E-001	1.01586E-004	0.00000E+000	8.04647E-005	5.99601E-002	7.92384E-001	3.57720E+000	9	...........
	43	0.586667	8.00255E-001	9.97478E-005	0.00000E+000	7.98236E-005	5.99601E-002	8.00518E-001	3.57720E+000	9	...........
	44	0.6	8.08206E-001	1.00392E-004	0.00000E+000	8.11372E-005	5.99601E-002	8.08511E-001	3.57720E+000	9	...........
	45	0.613333	8.16037E-001	1.01272E-004	0.00000E+000	8.26417E-005	5.99601E-002	8.16343E-001	3.57720E+000	9	...........
	46	0.626667	8.23706E-001	1.01373E-004	0.00000E+000	8.35016E-005	5.99601E-002	8.24025E-001	3.57720E+000	9	...........
	47	0.64	8.31161E-001	1.00908E-004	0.00000E+000	8.38712E-005	5.99601E-002	8.31501E-001	3.57720E+000	9	...........
	48	0.653333	8.38493E-001	1.00914E-004	0.00000E+000	8.46154E-005	5.99601E-002	8.38826E-001	3.57720E+000	9	...........
	49	0.666667	8.45671E-001	1.01359E-004	0.00000E+000	8.57160E-005	5.99601E-002	8.45994E-001	3.57720E+000	9	...........
	50	0.68	8.52655E-001	1.00833E-004	0.00000E+000	8.59762E-005	5.99601E-002	8.52991E-001	3.57720E+000	9	...........
	51	0.693333	8.59487E-001	1.00940E-004	0.00000E+000	8.67563E-005	5.99601E-002	8.59821E-001	3.57720E+000	9	...........
	52	0.706667	8.66148E-001	1.00751E-004	0.00000E+000	8.72654E-005	5.99601E-002	8.66481E-001	3.57720E+000	9	...........
	53	0.72	8.72681E-001	1.00878E-004	0.00000E+000	8.80346E-005	5.99601E-002	8.73024E-001	3.57720E+000	9	...........
	54	0.733333	8.79018E-001	1.00941E-004	0.00000E+000	8.87287E-005	5.99601E-002	8.79354E-001	3.57720E+000	9	...........
	55	0.746667	8.85216E-001	1.00720E-004	0.00000E+000	8.91589E-005	5.99601E-002	8.85562E-001	3.57720E+000	9	...........
	56	0.76	8.91240E-001	1.00634E-004	0.00000E+000	8.96894E-005	5.99601E-002	8.91585E-001	3.57720E+000	9	...........
	57	0.773333	8.97141E-001	1.01498E-004	0.00000E+000	9.10581E-005	5.99601E-002	8.97482E-001	3.57720E+000	9	...........
	58	0.786667	9.02840E-001	1.00651E-004	0.00000E+000	9.08719E-005	5.99601E-002	9.03203E-001	3.57720E+000	9	...........
	59	0.8	9.08412E-001	1.00878E-004	0.00000E+000	9.16390E-005	5.99601E-002	9.08762E-001	3.57720E+000	9	...........
	60	0.813333	9.13852E-001	1.01582E-004	0.00000E+000	9.28304E-005	5.99601E-002	9.14175E-001	3.57720E+000	9	...........
	61	0.826667	9.19147E-001	1.01517E-004	0.00000E+000	9.33090E-005	5.99601E-002	9.19478E-001	3.57720E+000	9	...........
	62	0.84	9.24324E-001	1.01231E-004	0.00000E+000	9.35707E-005	5.99601E-002	9.24610E-001	3.57720E+000	9	...........
	63	0.853333	9.29324E-001	1.01373E-004	0.00000E+000	9.42085E-005	5.99601E-002	9.29610E-001	3.57720E+000	9	...........
	64	0.866667	9.34160E-001	1.01359E-004	0.00000E+000	9.46851E-005	5.99601E-002	9.34469E-001	3.57720E+000	9	...........
	65	0.88	9.38892E-001	1.01478E-004	0.00000E+000	9.52772E-005	5.99601E-002	9.39194E-001	3.57720E+000	9	...........
	66	0.893333	9.43488E-001	1.00587E-004	0.00000E+000	9.49021E-005	5.99601E-002	9.43801E-001	3.57772E+000	9	...........
	67	0.906667	9.48007E-001	1.00608E-004	0.00000E+000	9.53774E-005	5.99601E-002	9.48338E-001	3.57860E+000	9	...........
	68	0.92	9.52365E-001	1.01539E-004	0.00000E+000	9.67020E-005	5.99601E-002	9.52683E-001	3.57860E+000	9	...........
	69	0.933333	9.56611E-001	1.00732E-004	0.00000E+000	9.63617E-005	5.99601E-002	9.56956E-001	3.57860E+000	9	...........
	70	0.946667	9.60758E-001	1.01060E-004	0.00000E+000	9.70937E-005	5.99601E-002	9.61101E-001	3.57860E+000	9	...........
	71	0.96	9.64797E-001	1.01245E-004	0.00000E+000	9.76808E-005	5.99601E-002	9.65163E-001	3.57860E+000	9	...........
	72	0.97333	9.68732E-001	1.00098E-004	0.00000E+000	9.69680E-005	5.99601E-002	9.69096E-001	3.57860E+000	9	...........
	73	0.98667	9.72608E-001	1.00590E-004	0.00000E+000	9.78343E-005	5.99601E-002	9.72988E-001	3.57860E+000	9	...........
	74	1	9.76382E-001	1.00461E-004	0.00000E+000	9.80888E-005	5.99601E-002	9.76738E-001	3.57860E+000	9	...........
	75	1.01333	9.80057E-001	1.01093E-004	0.00000E+000	9.90768E-005	5.99601E-002	9.80393E-001	3.57860E+000	9	...........
	76	1.02667	9.83619E-001	1.01401E-004	0.00000E+000	9.97402E-005	5.99601E-002	9.83991E-001	3.57860E+000	9	...........
	77	1.04	9.87104E-001	1.00500E-004	0.00000E+000	9.92040E-005	5.99601E-002	9.87480E-001	3.57860E+000	9	...........
	78	1.05333	9.90500E-001	1.00930E-004	0.00000E+000	9.99715E-005	5.99601E-002	9.90877E-001	3.57860E+000	9	...........
	79	1.06667	9.93783E-001	1.00948E-004	0.00000E+000	1.00320E-004	5.99601E-002	9.94177E-001	3.57860E+000	9	...........
	80	1.08	9.97040E-001	1.00682E-004	0.00000E+000	1.00384E-004	5.99601E-002	9.97436E-001	3.57860E+000	9	...........
	81	1.08667	9.99401E-001	1.01334E-004	0.00000E+000	1.01273E-004	5.99601E-002	9.99787E-001	3.57860E+000	9	...........
STARTTIMEOFFSET	QUANT	120.9167	Start Time Offset (s)
