EXPLAIN
TAG	PWR800_CHARGE
TITLE	LABEL	PWR Cyclic Charge Discharge (Cell) - Charge Step	Test &Identifier
DATE	LABEL	12-7-2017	Date
TIME	LABEL	16:34:00	Time
NOTES	NOTES	2	&Notes...
	supercap test cell
	6M KOH
PSTAT	PSTAT	IFC5000-01520	Potentiostat
CAPACITY	QUANT	1.00000E-003	Capacity (A-hr)
CELLTYPE	SELECTOR	1	&Cell Type
WORKINGCONNECTION	SELECTOR	0	&Working Lead
MAXCHARGETIME	VARIABLEANDUNITS	1.00000E+002	s	1.00000E+002	second(s)	Max &Charge Time
CHARGECURRENT	QUANT	1.00000E-004	&Charge Current (A) 
VOLTAGEFINISH	TWOPARAM	F	1.00000E-003	3.60000E+003	&Voltage Finish	 I (A) < 	Max Time(s)
SAMPLETIME	QUANT	1.00000E-002	Sa&mple Period (s)
CHARGESTOPAT1	MULTIPARAM	4	1.00000E+000	Charge Stop At &1	Voltage > Limit	V
CHARGESTOPAT2	MULTIPARAM	0	0.00000E+000	Charge Stop At &2	None	N/A
AESBHCSELECTOR	TOGGLE	F	Save Both Half Cells
IRCOMP	TOGGLE	F	IR &Measure
EOC	QUANT	0	Open Circuit (V)
SEQUENCER	TOGGLE	TRUE	Run as Sequence
PSTATMODEL	IQUANT	53	Pstat Model
PSTATSECTION	LABEL	IFC5000-01520	Pstat Section
PSTATSERIALNO	LABEL	01520	Pstat Serial Number
CTRLMODE	IQUANT	0	Control Mode
ELECTROMETER	IQUANT	1	RE=0 or CS=1
IESTAB	IQUANT	0	I/E Stability
CASPEED	IQUANT	4	Control Amp Speed
CONVENTION	IQUANT	1	Current Convention
ICHRANGE	IQUANT	2	Ich Range
ICHRANGEMODE	TOGGLE	T	Ich Auto Range
ICHOFFSETENABLE	TOGGLE	F	Ich Offset Enable
ICHOFFSET	QUANT	0	Ich Offset (V)
ICHFILTER	IQUANT	1	Ich Filter
VCHRANGE	IQUANT	2	Vch Range
VCHRANGEMODE	TOGGLE	T	Vch Auto Range
VCHOFFSETENABLE	TOGGLE	F	Vch Offset Enable
VCHOFFSET	QUANT	0	Vch Offset (V)
VCHFILTER	IQUANT	1	Vch Filter
IERANGELOWERLIMIT	IQUANT	9	I/E Range Lower Limit
IERANGEMODE	TOGGLE	F	I/E AutoRange
IERANGE	IQUANT	9	I/E Range
ACHSELECT	IQUANT	1	Ach Select
ACHRANGE	IQUANT	2	Ach Range
ACHOFFSETENABLE	TOGGLE	F	Ach Offset Enable
ACHOFFSET	QUANT	0	Ach Offset (V)
ACHFILTER	IQUANT	1	Ach Filter
CABLEID	IQUANT	14	Cable ID
DCCALDATE	LABEL	5-7-2017	DC Calibration Date
ACCALDATE	LABEL	12/3/2015	AC Calibration Date
FRAMEWORKVERSION	QUANT	7.01	Framework Version
INSTRUMENTVERSION	LABEL	4.00	Instrument Version
CURVE	TABLE	76
	Pt	T	Vf	Im	Vu	Pwr	Sig	Ach	Temp	IERange	Over
	#	s	V	A	V	W	V	V	deg C	#	bits
	0	0.013333	2.61116E-001	1.00530E-004	0.00000E+000	2.62500E-005	5.99601E-002	2.61189E-001	3.57740E+000	9	...........
	1	0.026667	2.84006E-001	1.00929E-004	0.00000E+000	2.86645E-005	5.99601E-002	2.84062E-001	3.57740E+000	9	...........
	2	0.04	3.05587E-001	1.01846E-004	0.00000E+000	3.11229E-005	5.99601E-002	3.05652E-001	3.57740E+000	9	...........
	3	0.053333	3.26229E-001	1.01499E-004	0.00000E+000	3.31119E-005	5.99601E-002	3.26299E-001	3.57740E+000	9	...........
	4	0.066667	3.46125E-001	1.00498E-004	0.00000E+000	3.47849E-005	5.99601E-002	3.46191E-001	3.57740E+000	9	...........
	5	0.08	3.65395E-001	1.01317E-004	0.00000E+000	3.70207E-005	5.99601E-002	3.65467E-001	3.57740E+000	9	...........
	6	0.093333	3.84110E-001	1.00746E-004	0.00000E+000	3.86975E-005	5.99601E-002	3.84183E-001	3.57740E+000	9	...........
	7	0.106667	4.02344E-001	1.01628E-004	0.00000E+000	4.08896E-005	5.99601E-002	4.02424E-001	3.57740E+000	9	...........
	8	0.12	4.20130E-001	1.00585E-004	0.00000E+000	4.22590E-005	5.99601E-002	4.20220E-001	3.57740E+000	9	...........
	9	0.133333	4.37501E-001	9.95113E-005	0.00000E+000	4.35363E-005	5.99601E-002	4.37588E-001	3.57740E+000	9	...........
	10	0.146667	4.54477E-001	1.01262E-004	0.00000E+000	4.60211E-005	5.99601E-002	4.54567E-001	3.57740E+000	9	...........
	11	0.16	4.71068E-001	1.01326E-004	0.00000E+000	4.77315E-005	5.99601E-002	4.71153E-001	3.57740E+000	9	...........
	12	0.173333	4.87293E-001	1.00195E-004	0.00000E+000	4.88242E-005	5.99601E-002	4.87394E-001	3.57740E+000	9	...........
	13	0.186667	5.03180E-001	1.01181E-004	0.00000E+000	5.09125E-005	5.99601E-002	5.03282E-001	3.57740E+000	9	...........
	14	0.2	5.18723E-001	1.01038E-004	0.00000E+000	5.24105E-005	5.99601E-002	5.18832E-001	3.57740E+000	9	...........
	15	0.213333	5.33824E-001	1.00796E-004	0.00000E+000	5.38073E-005	5.99601E-002	5.33956E-001	3.57740E+000	9	...........
	16	0.226667	5.48539E-001	1.01501E-004	0.00000E+000	5.56774E-005	5.99601E-002	5.48759E-001	3.57740E+000	9	...........
	17	0.24	5.63103E-001	1.01124E-004	0.00000E+000	5.69433E-005	5.99601E-002	5.63339E-001	3.57740E+000	9	...........
	18	0.253333	5.77351E-001	1.00918E-004	0.00000E+000	5.82650E-005	5.99601E-002	5.77598E-001	3.57740E+000	9	...........
	19	0.266667	5.91292E-001	1.01145E-004	0.00000E+000	5.98062E-005	5.99601E-002	5.91562E-001	3.57740E+000	9	...........
	20	0.28	6.04925E-001	1.00642E-004	0.00000E+000	6.08807E-005	5.99601E-002	6.05205E-001	3.57740E+000	9	...........
	21	0.293333	6.18297E-001	1.00991E-004	0.00000E+000	6.24423E-005	5.99601E-002	6.18527E-001	3.57740E+000	9	...........
	22	0.306667	6.31325E-001	1.00979E-004	0.00000E+000	6.37507E-005	5.99601E-002	6.31557E-001	3.57740E+000	9	...........
	23	0.32	6.44056E-001	1.01669E-004	0.00000E+000	6.54805E-005	5.99601E-002	6.44324E-001	3.57740E+000	9	...........
	24	0.333333	6.56500E-001	1.00381E-004	0.00000E+000	6.59003E-005	5.99601E-002	6.56764E-001	3.57740E+000	9	...........
	25	0.346667	6.68674E-001	1.01490E-004	0.00000E+000	6.78636E-005	5.99601E-002	6.68938E-001	3.57740E+000	9	...........
	26	0.36	6.80533E-001	1.01049E-004	0.00000E+000	6.87672E-005	5.99601E-002	6.80790E-001	3.57740E+000	9	...........
	27	0.373333	6.92117E-001	1.01098E-004	0.00000E+000	6.99717E-005	5.99601E-002	6.92382E-001	3.57740E+000	9	...........
	28	0.386667	7.03394E-001	1.01792E-004	0.00000E+000	7.15998E-005	5.99601E-002	7.03674E-001	3.57740E+000	9	...........
	29	0.4	7.14425E-001	1.00838E-004	0.00000E+000	7.20409E-005	5.99601E-002	7.14704E-001	3.57740E+000	9	...........
	30	0.413333	7.25203E-001	1.01187E-004	0.00000E+000	7.33809E-005	5.99601E-002	7.25446E-001	3.57740E+000	9	...........
	31	0.426667	7.35632E-001	1.01060E-004	0.00000E+000	7.43426E-005	5.99601E-002	7.35914E-001	3.57740E+000	9	...........
	32	0.44	7.45861E-001	1.01487E-004	0.00000E+000	7.56950E-005	5.99601E-002	7.46114E-001	3.57740E+000	9	...........
	33	0.453333	7.55788E-001	1.00535E-004	0.00000E+000	7.59835E-005	5.99601E-002	7.56056E-001	3.57740E+000	9	...........
	34	0.466667	7.65457E-001	1.01038E-004	0.00000E+000	7.73400E-005	5.99601E-002	7.65726E-001	3.57740E+000	9	...........
	35	0.48	7.74877E-001	1.00818E-004	0.00000E+000	7.81214E-005	5.99601E-002	7.75129E-001	3.57740E+000	9	...........
	36	0.493333	7.84020E-001	1.01131E-004	0.00000E+000	7.92890E-005	5.99601E-002	7.84270E-001	3.57740E+000	9	...........
	37	0.506667	7.92916E-001	1.01580E-004	0.00000E+000	8.05447E-005	5.99601E-002	7.93173E-001	3.57740E+000	9	...........
	38	0.52	8.01538E-001	1.01240E-004	0.00000E+000	8.11475E-005	5.99601E-002	8.01795E-001	3.57740E+000	9	...........
	39	0.533333	8.09908E-001	1.01352E-004	0.00000E+000	8.20861E-005	5.99601E-002	8.10175E-001	3.57740E+000	9	...........
	40	0.546667	8.18035E-001	1.00605E-004	0.00000E+000	8.22986E-005	5.99601E-002	8.18315E-001	3.57740E+000	9	...........
	41	0.56	8.25924E-001	1.01160E-004	0.00000E+000	8.35501E-005	5.99601E-002	8.26196E-001	3.57740E+000	9	...........
	42	0.573333	8.33553E-001	1.00924E-004	0.00000E+000	8.41256E-005	5.99601E-002	8.33843E-001	3.57740E+000	9	...........
	43	0.586667	8.40953E-001	1.01611E-004	0.00000E+000	8.54499E-005	5.99601E-002	8.41268E-001	3.57740E+000	9	...........
	44	0.6	8.48160E-001	1.00798E-004	0.00000E+000	8.54928E-005	5.99601E-002	8.48447E-001	3.57740E+000	9	...........
	45	0.613333	8.55094E-001	1.00659E-004	0.00000E+000	8.60733E-005	5.99601E-002	8.55383E-001	3.57740E+000	9	...........
	46	0.626667	8.61815E-001	9.99916E-005	0.00000E+000	8.61743E-005	5.99601E-002	8.62129E-001	3.57740E+000	9	...........
	47	0.64	8.68346E-001	1.00275E-004	0.00000E+000	8.70734E-005	5.99601E-002	8.68698E-001	3.57740E+000	9	...........
	48	0.653333	8.74692E-001	1.01072E-004	0.00000E+000	8.84069E-005	5.99601E-002	8.75027E-001	3.57740E+000	9	...........
	49	0.666667	8.80839E-001	1.01057E-004	0.00000E+000	8.90154E-005	5.99601E-002	8.81177E-001	3.57740E+000	9	...........
	50	0.68	8.86795E-001	1.01876E-004	0.00000E+000	9.03435E-005	5.99601E-002	8.87143E-001	3.57740E+000	9	...........
	51	0.693333	8.92586E-001	1.01939E-004	0.00000E+000	9.09892E-005	5.99601E-002	8.92936E-001	3.57740E+000	9	...........
	52	0.706667	8.98236E-001	1.00974E-004	0.00000E+000	9.06986E-005	5.99601E-002	8.98568E-001	3.57740E+000	9	...........
	53	0.72	9.03728E-001	1.01498E-004	0.00000E+000	9.17267E-005	5.99601E-002	9.04060E-001	3.57740E+000	9	...........
	54	0.733333	9.09102E-001	1.01198E-004	0.00000E+000	9.19994E-005	5.99601E-002	9.09429E-001	3.57740E+000	9	...........
	55	0.746667	9.14328E-001	1.00597E-004	0.00000E+000	9.19786E-005	5.99601E-002	9.14654E-001	3.57740E+000	9	...........
	56	0.76	9.19466E-001	1.00519E-004	0.00000E+000	9.24236E-005	5.99601E-002	9.19767E-001	3.57740E+000	9	...........
	57	0.773333	9.24508E-001	1.00761E-004	0.00000E+000	9.31539E-005	5.99601E-002	9.24803E-001	3.57740E+000	9	...........
	58	0.786667	9.29410E-001	1.00539E-004	0.00000E+000	9.34416E-005	5.99601E-002	9.29702E-001	3.57740E+000	9	...........
	59	0.8	9.34218E-001	1.01467E-004	0.00000E+000	9.47922E-005	5.99601E-002	9.34542E-001	3.57740E+000	9	...........
	60	0.813333	9.38936E-001	1.01761E-004	0.00000E+000	9.55468E-005	5.99601E-002	9.39265E-001	3.57740E+000	9	...........
	61	0.826667	9.43571E-001	1.01338E-004	0.00000E+000	9.56194E-005	5.99601E-002	9.43901E-001	3.57740E+000	9	...........
	62	0.84	9.48177E-001	1.01378E-004	0.00000E+000	9.61246E-005	5.99601E-002	9.48501E-001	3.57740E+000	9	...........
	63	0.853333	9.52654E-001	1.00384E-004	0.00000E+000	9.56315E-005	5.99601E-002	9.53006E-001	3.57740E+000	9	...........
	64	0.866667	9.57069E-001	1.01116E-004	0.00000E+000	9.67748E-005	5.99601E-002	9.57403E-001	3.57740E+000	9	...........
	65	0.88	9.61393E-001	1.01643E-004	0.00000E+000	9.77188E-005	5.99601E-002	9.61740E-001	3.57740E+000	9	...........
	66	0.893333	9.65657E-001	1.00303E-004	0.00000E+000	9.68584E-005	5.99601E-002	9.65988E-001	3.57740E+000	9	...........
	67	0.906667	9.69834E-001	1.00379E-004	0.00000E+000	9.73511E-005	5.99601E-002	9.70188E-001	3.57740E+000	9	...........
	68	0.92	9.73978E-001	1.00335E-004	0.00000E+000	9.77244E-005	5.99601E-002	9.74328E-001	3.57740E+000	9	...........
	69	0.933333	9.77997E-001	1.00870E-004	0.00000E+000	9.86504E-005	5.99601E-002	9.78340E-001	3.57740E+000	9	...........
	70	0.946667	9.81949E-001	1.00416E-004	0.00000E+000	9.86031E-005	5.99601E-002	9.82279E-001	3.57740E+000	9	...........
	71	0.96	9.85791E-001	1.01271E-004	0.00000E+000	9.98320E-005	5.99601E-002	9.86164E-001	3.57740E+000	9	...........
	72	0.97333	9.89606E-001	1.00087E-004	0.00000E+000	9.90471E-005	5.99601E-002	9.89956E-001	3.57740E+000	9	...........
	73	0.98667	9.93281E-001	1.01624E-004	0.00000E+000	1.00941E-004	5.99601E-002	9.93656E-001	3.57740E+000	9	...........
	74	1	9.96924E-001	1.01064E-004	0.00000E+000	1.00753E-004	5.99601E-002	9.97289E-001	3.57740E+000	9	...........
	75	1.00667	9.99568E-001	1.00256E-004	0.00000E+000	1.00213E-004	5.99601E-002	9.99957E-001	3.57740E+000	9	...........
STARTTIMEOFFSET	QUANT	1024.001	Start Time Offset (s)
