EXPLAIN
TAG	PWR800_CHARGE
TITLE	LABEL	PWR Cyclic Charge Discharge (Cell) - Charge Step	Test &Identifier
DATE	LABEL	12-7-2017	Date
TIME	LABEL	16:14:00	Time
NOTES	NOTES	2	&Notes...
	supercap test cell
	6M KOH
PSTAT	PSTAT	IFC5000-01520	Potentiostat
CAPACITY	QUANT	1.00000E-003	Capacity (A-hr)
CELLTYPE	SELECTOR	1	&Cell Type
WORKINGCONNECTION	SELECTOR	0	&Working Lead
MAXCHARGETIME	VARIABLEANDUNITS	1.00000E+002	s	1.00000E+002	second(s)	Max &Charge Time
CHARGECURRENT	QUANT	1.00000E-004	&Charge Current (A) 
VOLTAGEFINISH	TWOPARAM	F	1.00000E-003	3.60000E+003	&Voltage Finish	 I (A) < 	Max Time(s)
SAMPLETIME	QUANT	1.00000E-002	Sa&mple Period (s)
CHARGESTOPAT1	MULTIPARAM	4	1.00000E+000	Charge Stop At &1	Voltage > Limit	V
CHARGESTOPAT2	MULTIPARAM	0	0.00000E+000	Charge Stop At &2	None	N/A
AESBHCSELECTOR	TOGGLE	F	Save Both Half Cells
IRCOMP	TOGGLE	F	IR &Measure
EOC	QUANT	0	Open Circuit (V)
SEQUENCER	TOGGLE	TRUE	Run as Sequence
PSTATMODEL	IQUANT	53	Pstat Model
PSTATSECTION	LABEL	IFC5000-01520	Pstat Section
PSTATSERIALNO	LABEL	01520	Pstat Serial Number
CTRLMODE	IQUANT	0	Control Mode
ELECTROMETER	IQUANT	1	RE=0 or CS=1
IESTAB	IQUANT	0	I/E Stability
CASPEED	IQUANT	4	Control Amp Speed
CONVENTION	IQUANT	1	Current Convention
ICHRANGE	IQUANT	2	Ich Range
ICHRANGEMODE	TOGGLE	T	Ich Auto Range
ICHOFFSETENABLE	TOGGLE	F	Ich Offset Enable
ICHOFFSET	QUANT	0	Ich Offset (V)
ICHFILTER	IQUANT	1	Ich Filter
VCHRANGE	IQUANT	2	Vch Range
VCHRANGEMODE	TOGGLE	T	Vch Auto Range
VCHOFFSETENABLE	TOGGLE	F	Vch Offset Enable
VCHOFFSET	QUANT	0	Vch Offset (V)
VCHFILTER	IQUANT	1	Vch Filter
IERANGELOWERLIMIT	IQUANT	9	I/E Range Lower Limit
IERANGEMODE	TOGGLE	F	I/E AutoRange
IERANGE	IQUANT	9	I/E Range
ACHSELECT	IQUANT	1	Ach Select
ACHRANGE	IQUANT	2	Ach Range
ACHOFFSETENABLE	TOGGLE	F	Ach Offset Enable
ACHOFFSET	QUANT	0	Ach Offset (V)
ACHFILTER	IQUANT	1	Ach Filter
CABLEID	IQUANT	14	Cable ID
DCCALDATE	LABEL	5-7-2017	DC Calibration Date
ACCALDATE	LABEL	12/3/2015	AC Calibration Date
FRAMEWORKVERSION	QUANT	7.01	Framework Version
INSTRUMENTVERSION	LABEL	4.00	Instrument Version
CURVE	TABLE	81
	Pt	T	Vf	Im	Vu	Pwr	Sig	Ach	Temp	IERange	Over
	#	s	V	A	V	W	V	V	deg C	#	bits
	0	0.013333	2.60689E-001	1.01380E-004	0.00000E+000	2.64288E-005	5.99601E-002	2.60773E-001	3.57860E+000	9	...........
	1	0.026667	2.83385E-001	1.00985E-004	0.00000E+000	2.86175E-005	5.99601E-002	2.83444E-001	3.57860E+000	9	...........
	2	0.04	3.04468E-001	9.96707E-005	0.00000E+000	3.03466E-005	5.99601E-002	3.04529E-001	3.57860E+000	9	...........
	3	0.053333	3.24325E-001	1.01156E-004	0.00000E+000	3.28075E-005	5.99601E-002	3.24395E-001	3.57860E+000	9	...........
	4	0.066667	3.43180E-001	1.00767E-004	0.00000E+000	3.45811E-005	5.99601E-002	3.43248E-001	3.57860E+000	9	...........
	5	0.08	3.61177E-001	1.00802E-004	0.00000E+000	3.64074E-005	5.99601E-002	3.61257E-001	3.57860E+000	9	...........
	6	0.093333	3.78449E-001	1.00443E-004	0.00000E+000	3.80125E-005	5.99601E-002	3.78522E-001	3.57860E+000	9	...........
	7	0.106667	3.95085E-001	1.01665E-004	0.00000E+000	4.01663E-005	5.99601E-002	3.95166E-001	3.57860E+000	9	...........
	8	0.12	4.11157E-001	1.00739E-004	0.00000E+000	4.14193E-005	5.99601E-002	4.11241E-001	3.57860E+000	9	...........
	9	0.133333	4.26739E-001	1.01156E-004	0.00000E+000	4.31674E-005	5.99601E-002	4.26828E-001	3.57860E+000	9	...........
	10	0.146667	4.41882E-001	1.01160E-004	0.00000E+000	4.47006E-005	5.99601E-002	4.41969E-001	3.57860E+000	9	...........
	11	0.16	4.56622E-001	1.01014E-004	0.00000E+000	4.61250E-005	5.99601E-002	4.56710E-001	3.57860E+000	9	...........
	12	0.173333	4.70997E-001	1.00964E-004	0.00000E+000	4.75536E-005	5.99601E-002	4.71093E-001	3.57860E+000	9	...........
	13	0.186667	4.85044E-001	1.01025E-004	0.00000E+000	4.90016E-005	5.99601E-002	4.85150E-001	3.57860E+000	9	...........
	14	0.2	4.98785E-001	1.00964E-004	0.00000E+000	5.03591E-005	5.99601E-002	4.98896E-001	3.57860E+000	9	...........
	15	0.213333	5.12247E-001	1.01417E-004	0.00000E+000	5.19505E-005	5.99601E-002	5.12358E-001	3.57860E+000	9	...........
	16	0.226667	5.25439E-001	1.01036E-004	0.00000E+000	5.30880E-005	5.99601E-002	5.25555E-001	3.57860E+000	9	...........
	17	0.24	5.38153E-001	1.00927E-004	0.00000E+000	5.43143E-005	5.99601E-002	5.38332E-001	3.57860E+000	9	...........
	18	0.253333	5.50774E-001	1.01949E-004	0.00000E+000	5.61510E-005	5.99601E-002	5.50999E-001	3.57860E+000	9	...........
	19	0.266667	5.63265E-001	1.00868E-004	0.00000E+000	5.68153E-005	5.99601E-002	5.63485E-001	3.57860E+000	9	...........
	20	0.28	5.75509E-001	1.00802E-004	0.00000E+000	5.80126E-005	5.99601E-002	5.75746E-001	3.57860E+000	9	...........
	21	0.293333	5.87564E-001	9.98999E-005	0.00000E+000	5.86975E-005	5.99601E-002	5.87806E-001	3.57860E+000	9	...........
	22	0.306667	5.99423E-001	1.00739E-004	0.00000E+000	6.03850E-005	5.99601E-002	5.99686E-001	3.57860E+000	9	...........
	23	0.32	6.11089E-001	1.00833E-004	0.00000E+000	6.16182E-005	5.99601E-002	6.11337E-001	3.57860E+000	9	...........
	24	0.333333	6.22587E-001	1.00201E-004	0.00000E+000	6.23838E-005	5.99601E-002	6.22817E-001	3.57860E+000	9	...........
	25	0.346667	6.33831E-001	1.00915E-004	0.00000E+000	6.39628E-005	5.99601E-002	6.34114E-001	3.57860E+000	9	...........
	26	0.36	6.44987E-001	1.01596E-004	0.00000E+000	6.55282E-005	5.99601E-002	6.45236E-001	3.57860E+000	9	...........
	27	0.373333	6.55885E-001	1.00877E-004	0.00000E+000	6.61638E-005	5.99601E-002	6.56158E-001	3.57860E+000	9	...........
	28	0.386667	6.66649E-001	1.01779E-004	0.00000E+000	6.78512E-005	5.99601E-002	6.66932E-001	3.57860E+000	9	...........
	29	0.4	6.77254E-001	1.00622E-004	0.00000E+000	6.81466E-005	5.99601E-002	6.77520E-001	3.57860E+000	9	...........
	30	0.413333	6.87652E-001	1.00727E-004	0.00000E+000	6.92652E-005	5.99601E-002	6.87904E-001	3.57777E+000	9	...........
	31	0.426667	6.97871E-001	1.01450E-004	0.00000E+000	7.07991E-005	5.99601E-002	6.98133E-001	3.57750E+000	9	...........
	32	0.44	7.07922E-001	1.00839E-004	0.00000E+000	7.13859E-005	5.99601E-002	7.08203E-001	3.57750E+000	9	...........
	33	0.453333	7.17824E-001	1.00762E-004	0.00000E+000	7.23291E-005	5.99601E-002	7.18098E-001	3.57750E+000	9	...........
	34	0.466667	7.27560E-001	1.00603E-004	0.00000E+000	7.31949E-005	5.99601E-002	7.27819E-001	3.57750E+000	9	...........
	35	0.48	7.37069E-001	1.01301E-004	0.00000E+000	7.46660E-005	5.99601E-002	7.37373E-001	3.57750E+000	9	...........
	36	0.493333	7.46454E-001	1.00974E-004	0.00000E+000	7.53725E-005	5.99601E-002	7.46745E-001	3.57750E+000	9	...........
	37	0.506667	7.55666E-001	1.00483E-004	0.00000E+000	7.59318E-005	5.99601E-002	7.55940E-001	3.57750E+000	9	...........
	38	0.52	7.64677E-001	1.01824E-004	0.00000E+000	7.78626E-005	5.99601E-002	7.64952E-001	3.57750E+000	9	...........
	39	0.533333	7.73522E-001	1.00633E-004	0.00000E+000	7.78422E-005	5.99601E-002	7.73814E-001	3.57750E+000	9	...........
	40	0.546667	7.82185E-001	1.00335E-004	0.00000E+000	7.84809E-005	5.99601E-002	7.82490E-001	3.57750E+000	9	...........
	41	0.56	7.90677E-001	1.00689E-004	0.00000E+000	7.96122E-005	5.99601E-002	7.90969E-001	3.57750E+000	9	...........
	42	0.573333	7.98998E-001	1.00292E-004	0.00000E+000	8.01328E-005	5.99601E-002	7.99291E-001	3.57750E+000	9	...........
	43	0.586667	8.07106E-001	1.00827E-004	0.00000E+000	8.13782E-005	5.99601E-002	8.07443E-001	3.57750E+000	9	...........
	44	0.6	8.15060E-001	1.00196E-004	0.00000E+000	8.16656E-005	5.99601E-002	8.15385E-001	3.57750E+000	9	...........
	45	0.613333	8.22874E-001	1.01070E-004	0.00000E+000	8.31679E-005	5.99601E-002	8.23198E-001	3.57750E+000	9	...........
	46	0.626667	8.30482E-001	1.01682E-004	0.00000E+000	8.44447E-005	5.99601E-002	8.30781E-001	3.57750E+000	9	...........
	47	0.64	8.37894E-001	1.00643E-004	0.00000E+000	8.43279E-005	5.99601E-002	8.38188E-001	3.57750E+000	9	...........
	48	0.653333	8.45163E-001	1.00518E-004	0.00000E+000	8.49538E-005	5.99601E-002	8.45460E-001	3.57750E+000	9	...........
	49	0.666667	8.52244E-001	1.01072E-004	0.00000E+000	8.61380E-005	5.99601E-002	8.52537E-001	3.57750E+000	9	...........
	50	0.68	8.59159E-001	1.00592E-004	0.00000E+000	8.64243E-005	5.99601E-002	8.59441E-001	3.57750E+000	9	...........
	51	0.693333	8.65898E-001	1.01773E-004	0.00000E+000	8.81252E-005	5.99601E-002	8.66217E-001	3.57750E+000	9	...........
	52	0.706667	8.72481E-001	1.01838E-004	0.00000E+000	8.88516E-005	5.99601E-002	8.72783E-001	3.57750E+000	9	...........
	53	0.72	8.78880E-001	1.01299E-004	0.00000E+000	8.90298E-005	5.99601E-002	8.79209E-001	3.57750E+000	9	...........
	54	0.733333	8.85122E-001	1.02026E-004	0.00000E+000	9.03058E-005	5.99601E-002	8.85458E-001	3.57750E+000	9	...........
	55	0.746667	8.91178E-001	1.00205E-004	0.00000E+000	8.93007E-005	5.99601E-002	8.91510E-001	3.57750E+000	9	...........
	56	0.76	8.97101E-001	1.00484E-004	0.00000E+000	9.01446E-005	5.99601E-002	8.97437E-001	3.57750E+000	9	...........
	57	0.773333	9.02830E-001	1.00763E-004	0.00000E+000	9.09715E-005	5.99601E-002	9.03152E-001	3.57750E+000	9	...........
	58	0.786667	9.08412E-001	1.01429E-004	0.00000E+000	9.21397E-005	5.99601E-002	9.08745E-001	3.57750E+000	9	...........
	59	0.8	9.13849E-001	1.00303E-004	0.00000E+000	9.16619E-005	5.99601E-002	9.14187E-001	3.57750E+000	9	...........
	60	0.813333	9.19135E-001	1.00642E-004	0.00000E+000	9.25033E-005	5.99601E-002	9.19484E-001	3.57750E+000	9	...........
	61	0.826667	9.24319E-001	1.01031E-004	0.00000E+000	9.33853E-005	5.99601E-002	9.24643E-001	3.57750E+000	9	...........
	62	0.84	9.29299E-001	1.01088E-004	0.00000E+000	9.39406E-005	5.99601E-002	9.29628E-001	3.57750E+000	9	...........
	63	0.853333	9.34143E-001	1.00805E-004	0.00000E+000	9.41666E-005	5.99601E-002	9.34474E-001	3.57750E+000	9	...........
	64	0.866667	9.38865E-001	1.01160E-004	0.00000E+000	9.49751E-005	5.99601E-002	9.39195E-001	3.57750E+000	9	...........
	65	0.88	9.43438E-001	1.01536E-004	0.00000E+000	9.57926E-005	5.99601E-002	9.43787E-001	3.57750E+000	9	...........
	66	0.893333	9.47941E-001	1.01204E-004	0.00000E+000	9.59357E-005	5.99601E-002	9.48296E-001	3.57750E+000	9	...........
	67	0.906667	9.52298E-001	1.00975E-004	0.00000E+000	9.61585E-005	5.99601E-002	9.52648E-001	3.57750E+000	9	...........
	68	0.92	9.56541E-001	1.01331E-004	0.00000E+000	9.69277E-005	5.99601E-002	9.56886E-001	3.57750E+000	9	...........
	69	0.933333	9.60681E-001	1.00710E-004	0.00000E+000	9.67507E-005	5.99601E-002	9.61050E-001	3.57750E+000	9	...........
	70	0.946667	9.64740E-001	1.01363E-004	0.00000E+000	9.77887E-005	5.99601E-002	9.65091E-001	3.57750E+000	9	...........
	71	0.96	9.68678E-001	1.00460E-004	0.00000E+000	9.73138E-005	5.99601E-002	9.69053E-001	3.57750E+000	9	...........
	72	0.97333	9.72575E-001	1.00336E-004	0.00000E+000	9.75847E-005	5.99601E-002	9.72957E-001	3.57750E+000	9	...........
	73	0.98667	9.76362E-001	1.01021E-004	0.00000E+000	9.86331E-005	5.99601E-002	9.76731E-001	3.57750E+000	9	...........
	74	1	9.80041E-001	1.00506E-004	0.00000E+000	9.85003E-005	5.99601E-002	9.80404E-001	3.57750E+000	9	...........
	75	1.01333	9.83629E-001	1.01032E-004	0.00000E+000	9.93784E-005	5.99601E-002	9.83991E-001	3.57750E+000	9	...........
	76	1.02667	9.87140E-001	1.00467E-004	0.00000E+000	9.91747E-005	5.99601E-002	9.87506E-001	3.57750E+000	9	...........
	77	1.04	9.90574E-001	1.00858E-004	0.00000E+000	9.99077E-005	5.99601E-002	9.90939E-001	3.57750E+000	9	...........
	78	1.05333	9.93876E-001	1.01012E-004	0.00000E+000	1.00393E-004	5.99601E-002	9.94245E-001	3.57750E+000	9	...........
	79	1.06667	9.97120E-001	1.00696E-004	0.00000E+000	1.00406E-004	5.99601E-002	9.97494E-001	3.57750E+000	9	...........
	80	1.07333	9.99491E-001	1.00535E-004	0.00000E+000	1.00484E-004	5.99601E-002	9.99887E-001	3.57750E+000	9	...........
STARTTIMEOFFSET	QUANT	167.8517	Start Time Offset (s)
