EXPLAIN
TAG	PWR800_CHARGE
TITLE	LABEL	PWR Cyclic Charge Discharge (Cell) - Charge Step	Test &Identifier
DATE	LABEL	12-7-2017	Date
TIME	LABEL	16:40:25	Time
NOTES	NOTES	2	&Notes...
	supercap test cell
	6M KOH
PSTAT	PSTAT	IFC5000-01520	Potentiostat
CAPACITY	QUANT	1.00000E-003	Capacity (A-hr)
CELLTYPE	SELECTOR	1	&Cell Type
WORKINGCONNECTION	SELECTOR	0	&Working Lead
MAXCHARGETIME	VARIABLEANDUNITS	1.00000E+002	s	1.00000E+002	second(s)	Max &Charge Time
CHARGECURRENT	QUANT	1.00000E-004	&Charge Current (A) 
VOLTAGEFINISH	TWOPARAM	F	1.00000E-003	3.60000E+003	&Voltage Finish	 I (A) < 	Max Time(s)
SAMPLETIME	QUANT	1.00000E-002	Sa&mple Period (s)
CHARGESTOPAT1	MULTIPARAM	4	1.00000E+000	Charge Stop At &1	Voltage > Limit	V
CHARGESTOPAT2	MULTIPARAM	0	0.00000E+000	Charge Stop At &2	None	N/A
AESBHCSELECTOR	TOGGLE	F	Save Both Half Cells
IRCOMP	TOGGLE	F	IR &Measure
EOC	QUANT	0	Open Circuit (V)
SEQUENCER	TOGGLE	TRUE	Run as Sequence
PSTATMODEL	IQUANT	53	Pstat Model
PSTATSECTION	LABEL	IFC5000-01520	Pstat Section
PSTATSERIALNO	LABEL	01520	Pstat Serial Number
CTRLMODE	IQUANT	0	Control Mode
ELECTROMETER	IQUANT	1	RE=0 or CS=1
IESTAB	IQUANT	0	I/E Stability
CASPEED	IQUANT	4	Control Amp Speed
CONVENTION	IQUANT	1	Current Convention
ICHRANGE	IQUANT	2	Ich Range
ICHRANGEMODE	TOGGLE	T	Ich Auto Range
ICHOFFSETENABLE	TOGGLE	F	Ich Offset Enable
ICHOFFSET	QUANT	0	Ich Offset (V)
ICHFILTER	IQUANT	1	Ich Filter
VCHRANGE	IQUANT	2	Vch Range
VCHRANGEMODE	TOGGLE	T	Vch Auto Range
VCHOFFSETENABLE	TOGGLE	F	Vch Offset Enable
VCHOFFSET	QUANT	0	Vch Offset (V)
VCHFILTER	IQUANT	1	Vch Filter
IERANGELOWERLIMIT	IQUANT	9	I/E Range Lower Limit
IERANGEMODE	TOGGLE	F	I/E AutoRange
IERANGE	IQUANT	9	I/E Range
ACHSELECT	IQUANT	1	Ach Select
ACHRANGE	IQUANT	2	Ach Range
ACHOFFSETENABLE	TOGGLE	F	Ach Offset Enable
ACHOFFSET	QUANT	0	Ach Offset (V)
ACHFILTER	IQUANT	1	Ach Filter
CABLEID	IQUANT	14	Cable ID
DCCALDATE	LABEL	5-7-2017	DC Calibration Date
ACCALDATE	LABEL	12/3/2015	AC Calibration Date
FRAMEWORKVERSION	QUANT	7.01	Framework Version
INSTRUMENTVERSION	LABEL	4.00	Instrument Version
CURVE	TABLE	75
	Pt	T	Vf	Im	Vu	Pwr	Sig	Ach	Temp	IERange	Over
	#	s	V	A	V	W	V	V	deg C	#	bits
	0	0.013333	2.60273E-001	1.00146E-004	0.00000E+000	2.60653E-005	5.99601E-002	2.60340E-001	3.57790E+000	9	...........
	1	0.026667	2.83255E-001	1.01091E-004	0.00000E+000	2.86344E-005	5.99601E-002	2.83317E-001	3.57790E+000	9	...........
	2	0.04	3.04974E-001	1.01705E-004	0.00000E+000	3.10175E-005	5.99601E-002	3.05035E-001	3.57790E+000	9	...........
	3	0.053333	3.25771E-001	1.00988E-004	0.00000E+000	3.28989E-005	5.99601E-002	3.25843E-001	3.57790E+000	9	...........
	4	0.066667	3.45844E-001	1.00244E-004	0.00000E+000	3.46687E-005	5.99601E-002	3.45916E-001	3.57790E+000	9	...........
	5	0.08	3.65295E-001	1.01899E-004	0.00000E+000	3.72233E-005	5.99601E-002	3.65367E-001	3.57790E+000	9	...........
	6	0.093333	3.84214E-001	1.00876E-004	0.00000E+000	3.87580E-005	5.99601E-002	3.84294E-001	3.57790E+000	9	...........
	7	0.106667	4.02655E-001	1.01373E-004	0.00000E+000	4.08184E-005	5.99601E-002	4.02732E-001	3.57790E+000	9	...........
	8	0.12	4.20643E-001	1.01777E-004	0.00000E+000	4.28120E-005	5.99601E-002	4.20729E-001	3.57790E+000	9	...........
	9	0.133333	4.38231E-001	1.01280E-004	0.00000E+000	4.43843E-005	5.99601E-002	4.38316E-001	3.57790E+000	9	...........
	10	0.146667	4.55421E-001	1.00864E-004	0.00000E+000	4.59355E-005	5.99601E-002	4.55514E-001	3.57790E+000	9	...........
	11	0.16	4.72229E-001	9.91956E-005	0.00000E+000	4.68431E-005	5.99601E-002	4.72325E-001	3.57790E+000	9	...........
	12	0.173333	4.88673E-001	1.00702E-004	0.00000E+000	4.92105E-005	5.99601E-002	4.88771E-001	3.57790E+000	9	...........
	13	0.186667	5.04760E-001	9.99583E-005	0.00000E+000	5.04549E-005	5.99601E-002	5.04871E-001	3.57790E+000	9	...........
	14	0.2	5.20507E-001	1.00834E-004	0.00000E+000	5.24850E-005	5.99601E-002	5.20616E-001	3.57790E+000	9	...........
	15	0.213333	5.35762E-001	1.01456E-004	0.00000E+000	5.43566E-005	5.99601E-002	5.35902E-001	3.57790E+000	9	...........
	16	0.226667	5.50672E-001	1.00675E-004	0.00000E+000	5.54390E-005	5.99601E-002	5.50894E-001	3.57790E+000	9	...........
	17	0.24	5.65415E-001	1.00548E-004	0.00000E+000	5.68514E-005	5.99601E-002	5.65652E-001	3.57790E+000	9	...........
	18	0.253333	5.79797E-001	1.01156E-004	0.00000E+000	5.86502E-005	5.99601E-002	5.80045E-001	3.57790E+000	9	...........
	19	0.266667	5.93880E-001	9.99499E-005	0.00000E+000	5.93582E-005	5.99601E-002	5.94135E-001	3.57790E+000	9	...........
	20	0.28	6.07617E-001	1.01813E-004	0.00000E+000	6.18632E-005	5.99601E-002	6.07891E-001	3.57790E+000	9	...........
	21	0.293333	6.21137E-001	1.01236E-004	0.00000E+000	6.28812E-005	5.99601E-002	6.21341E-001	3.57790E+000	9	...........
	22	0.306667	6.34247E-001	1.01579E-004	0.00000E+000	6.44265E-005	5.99601E-002	6.34459E-001	3.57790E+000	9	...........
	23	0.32	6.47054E-001	1.01327E-004	0.00000E+000	6.55643E-005	5.99601E-002	6.47281E-001	3.57790E+000	9	...........
	24	0.333333	6.59571E-001	1.00146E-004	0.00000E+000	6.60533E-005	5.99601E-002	6.59800E-001	3.57790E+000	9	...........
	25	0.346667	6.71795E-001	1.00923E-004	0.00000E+000	6.77996E-005	5.99601E-002	6.72047E-001	3.57790E+000	9	...........
	26	0.36	6.83700E-001	1.00767E-004	0.00000E+000	6.88943E-005	5.99601E-002	6.83935E-001	3.57790E+000	9	...........
	27	0.373333	6.95296E-001	1.01456E-004	0.00000E+000	7.05423E-005	5.99601E-002	6.95559E-001	3.57790E+000	9	...........
	28	0.386667	7.06600E-001	1.01504E-004	0.00000E+000	7.17230E-005	5.99601E-002	7.06870E-001	3.57790E+000	9	...........
	29	0.4	7.17642E-001	1.00819E-004	0.00000E+000	7.23518E-005	5.99601E-002	7.17896E-001	3.57790E+000	9	...........
	30	0.413333	7.28372E-001	1.01054E-004	0.00000E+000	7.36051E-005	5.99601E-002	7.28644E-001	3.57790E+000	9	...........
	31	0.426667	7.38795E-001	1.00473E-004	0.00000E+000	7.42289E-005	5.99601E-002	7.39073E-001	3.57790E+000	9	...........
	32	0.44	7.48989E-001	1.00268E-004	0.00000E+000	7.50994E-005	5.99601E-002	7.49231E-001	3.57790E+000	9	...........
	33	0.453333	7.58884E-001	1.00152E-004	0.00000E+000	7.60038E-005	5.99601E-002	7.59147E-001	3.57790E+000	9	...........
	34	0.466667	7.68479E-001	1.00426E-004	0.00000E+000	7.71753E-005	5.99601E-002	7.68760E-001	3.57790E+000	9	...........
	35	0.48	7.77833E-001	1.01950E-004	0.00000E+000	7.93003E-005	5.99601E-002	7.78092E-001	3.57790E+000	9	...........
	36	0.493333	7.86915E-001	1.00758E-004	0.00000E+000	7.92883E-005	5.99601E-002	7.87165E-001	3.57790E+000	9	...........
	37	0.506667	7.95748E-001	1.01771E-004	0.00000E+000	8.09842E-005	5.99601E-002	7.95996E-001	3.57715E+000	9	...........
	38	0.52	8.04290E-001	1.01394E-004	0.00000E+000	8.15501E-005	5.99601E-002	8.04576E-001	3.57670E+000	9	...........
	39	0.533333	8.12592E-001	1.00393E-004	0.00000E+000	8.15783E-005	5.99601E-002	8.12863E-001	3.57670E+000	9	...........
	40	0.546667	8.20651E-001	1.00197E-004	0.00000E+000	8.22266E-005	5.99601E-002	8.20927E-001	3.57670E+000	9	...........
	41	0.56	8.28443E-001	1.00965E-004	0.00000E+000	8.36435E-005	5.99601E-002	8.28715E-001	3.57670E+000	9	...........
	42	0.573333	8.35979E-001	1.01535E-004	0.00000E+000	8.48808E-005	5.99601E-002	8.36275E-001	3.57670E+000	9	...........
	43	0.586667	8.43298E-001	1.00474E-004	0.00000E+000	8.47295E-005	5.99601E-002	8.43601E-001	3.57670E+000	9	...........
	44	0.6	8.50410E-001	1.00656E-004	0.00000E+000	8.55991E-005	5.99601E-002	8.50714E-001	3.57670E+000	9	...........
	45	0.613333	8.57255E-001	1.01547E-004	0.00000E+000	8.70517E-005	5.99601E-002	8.57562E-001	3.57670E+000	9	...........
	46	0.626667	8.63914E-001	1.01097E-004	0.00000E+000	8.73392E-005	5.99601E-002	8.64214E-001	3.57670E+000	9	...........
	47	0.64	8.70371E-001	1.01361E-004	0.00000E+000	8.82213E-005	5.99601E-002	8.70691E-001	3.57670E+000	9	...........
	48	0.653333	8.76643E-001	1.01163E-004	0.00000E+000	8.86835E-005	5.99601E-002	8.76954E-001	3.57670E+000	9	...........
	49	0.666667	8.82714E-001	1.00913E-004	0.00000E+000	8.90770E-005	5.99601E-002	8.83035E-001	3.57670E+000	9	...........
	50	0.68	8.88616E-001	1.00489E-004	0.00000E+000	8.92958E-005	5.99601E-002	8.88926E-001	3.57670E+000	9	...........
	51	0.693333	8.94355E-001	1.00669E-004	0.00000E+000	9.00336E-005	5.99601E-002	8.94702E-001	3.57670E+000	9	...........
	52	0.706667	8.99978E-001	1.01746E-004	0.00000E+000	9.15693E-005	5.99601E-002	9.00300E-001	3.57670E+000	9	...........
	53	0.72	9.05450E-001	1.00232E-004	0.00000E+000	9.07553E-005	5.99601E-002	9.05774E-001	3.57670E+000	9	...........
	54	0.733333	9.10796E-001	1.02127E-004	0.00000E+000	9.30172E-005	5.99601E-002	9.11088E-001	3.57670E+000	9	...........
	55	0.746667	9.16027E-001	1.01705E-004	0.00000E+000	9.31650E-005	5.99601E-002	9.16338E-001	3.57670E+000	9	...........
	56	0.76	9.21164E-001	1.00847E-004	0.00000E+000	9.28967E-005	5.99601E-002	9.21457E-001	3.57670E+000	9	...........
	57	0.773333	9.26233E-001	1.01107E-004	0.00000E+000	9.36490E-005	5.99601E-002	9.26482E-001	3.57670E+000	9	...........
	58	0.786667	9.31164E-001	1.00776E-004	0.00000E+000	9.38391E-005	5.99601E-002	9.31405E-001	3.57670E+000	9	...........
	59	0.8	9.35982E-001	1.00446E-004	0.00000E+000	9.40155E-005	5.99601E-002	9.36263E-001	3.57670E+000	9	...........
	60	0.813333	9.40732E-001	1.01702E-004	0.00000E+000	9.56746E-005	5.99601E-002	9.41018E-001	3.57670E+000	9	...........
	61	0.826667	9.45406E-001	1.01079E-004	0.00000E+000	9.55610E-005	5.99601E-002	9.45711E-001	3.57670E+000	9	...........
	62	0.84	9.50049E-001	1.01536E-004	0.00000E+000	9.64638E-005	5.99601E-002	9.50325E-001	3.57670E+000	9	...........
	63	0.853333	9.54538E-001	1.01257E-004	0.00000E+000	9.66541E-005	5.99601E-002	9.54851E-001	3.57670E+000	9	...........
	64	0.866667	9.58983E-001	1.01662E-004	0.00000E+000	9.74919E-005	5.99601E-002	9.59289E-001	3.57670E+000	9	...........
	65	0.88	9.63344E-001	1.00483E-004	0.00000E+000	9.68000E-005	5.99601E-002	9.63665E-001	3.57670E+000	9	...........
	66	0.893333	9.67625E-001	1.02436E-004	0.00000E+000	9.91195E-005	5.99601E-002	9.67956E-001	3.57670E+000	9	...........
	67	0.906667	9.71863E-001	1.00858E-004	0.00000E+000	9.80206E-005	5.99601E-002	9.72196E-001	3.57670E+000	9	...........
	68	0.92	9.76045E-001	1.01180E-004	0.00000E+000	9.87566E-005	5.99601E-002	9.76366E-001	3.57670E+000	9	...........
	69	0.933333	9.80104E-001	1.00440E-004	0.00000E+000	9.84412E-005	5.99601E-002	9.80433E-001	3.57670E+000	9	...........
	70	0.946667	9.84075E-001	1.00973E-004	0.00000E+000	9.93651E-005	5.99601E-002	9.84415E-001	3.57670E+000	9	...........
	71	0.96	9.87978E-001	1.01013E-004	0.00000E+000	9.97983E-005	5.99601E-002	9.88314E-001	3.57670E+000	9	...........
	72	0.97333	9.91789E-001	1.01054E-004	0.00000E+000	1.00225E-004	5.99601E-002	9.92140E-001	3.57670E+000	9	...........
	73	0.98667	9.95532E-001	1.00597E-004	0.00000E+000	1.00147E-004	5.99601E-002	9.95876E-001	3.57670E+000	9	...........
	74	0.99833	9.98978E-001	1.00935E-004	0.00000E+000	1.00832E-004	5.99601E-002	9.99330E-001	3.57670E+000	9	...........
STARTTIMEOFFSET	QUANT	1295.867	Start Time Offset (s)
