EXPLAIN
TAG	PWR800_CHARGE
TITLE	LABEL	PWR Cyclic Charge Discharge (Cell) - Charge Step	Test &Identifier
DATE	LABEL	12-7-2017	Date
TIME	LABEL	16:22:57	Time
NOTES	NOTES	2	&Notes...
	supercap test cell
	6M KOH
PSTAT	PSTAT	IFC5000-01520	Potentiostat
CAPACITY	QUANT	1.00000E-003	Capacity (A-hr)
CELLTYPE	SELECTOR	1	&Cell Type
WORKINGCONNECTION	SELECTOR	0	&Working Lead
MAXCHARGETIME	VARIABLEANDUNITS	1.00000E+002	s	1.00000E+002	second(s)	Max &Charge Time
CHARGECURRENT	QUANT	1.00000E-004	&Charge Current (A) 
VOLTAGEFINISH	TWOPARAM	F	1.00000E-003	3.60000E+003	&Voltage Finish	 I (A) < 	Max Time(s)
SAMPLETIME	QUANT	1.00000E-002	Sa&mple Period (s)
CHARGESTOPAT1	MULTIPARAM	4	1.00000E+000	Charge Stop At &1	Voltage > Limit	V
CHARGESTOPAT2	MULTIPARAM	0	0.00000E+000	Charge Stop At &2	None	N/A
AESBHCSELECTOR	TOGGLE	F	Save Both Half Cells
IRCOMP	TOGGLE	F	IR &Measure
EOC	QUANT	0	Open Circuit (V)
SEQUENCER	TOGGLE	TRUE	Run as Sequence
PSTATMODEL	IQUANT	53	Pstat Model
PSTATSECTION	LABEL	IFC5000-01520	Pstat Section
PSTATSERIALNO	LABEL	01520	Pstat Serial Number
CTRLMODE	IQUANT	0	Control Mode
ELECTROMETER	IQUANT	1	RE=0 or CS=1
IESTAB	IQUANT	0	I/E Stability
CASPEED	IQUANT	4	Control Amp Speed
CONVENTION	IQUANT	1	Current Convention
ICHRANGE	IQUANT	2	Ich Range
ICHRANGEMODE	TOGGLE	T	Ich Auto Range
ICHOFFSETENABLE	TOGGLE	F	Ich Offset Enable
ICHOFFSET	QUANT	0	Ich Offset (V)
ICHFILTER	IQUANT	1	Ich Filter
VCHRANGE	IQUANT	2	Vch Range
VCHRANGEMODE	TOGGLE	T	Vch Auto Range
VCHOFFSETENABLE	TOGGLE	F	Vch Offset Enable
VCHOFFSET	QUANT	0	Vch Offset (V)
VCHFILTER	IQUANT	1	Vch Filter
IERANGELOWERLIMIT	IQUANT	9	I/E Range Lower Limit
IERANGEMODE	TOGGLE	F	I/E AutoRange
IERANGE	IQUANT	9	I/E Range
ACHSELECT	IQUANT	1	Ach Select
ACHRANGE	IQUANT	2	Ach Range
ACHOFFSETENABLE	TOGGLE	F	Ach Offset Enable
ACHOFFSET	QUANT	0	Ach Offset (V)
ACHFILTER	IQUANT	1	Ach Filter
CABLEID	IQUANT	14	Cable ID
DCCALDATE	LABEL	5-7-2017	DC Calibration Date
ACCALDATE	LABEL	12/3/2015	AC Calibration Date
FRAMEWORKVERSION	QUANT	7.01	Framework Version
INSTRUMENTVERSION	LABEL	4.00	Instrument Version
CURVE	TABLE	78
	Pt	T	Vf	Im	Vu	Pwr	Sig	Ach	Temp	IERange	Over
	#	s	V	A	V	W	V	V	deg C	#	bits
	0	0.013333	2.61923E-001	1.00578E-004	0.00000E+000	2.63438E-005	5.99601E-002	2.62006E-001	3.57740E+000	9	...........
	1	0.026667	2.84647E-001	1.01523E-004	0.00000E+000	2.88982E-005	5.99601E-002	2.84707E-001	3.57740E+000	9	...........
	2	0.04	3.05945E-001	1.00521E-004	0.00000E+000	3.07539E-005	5.99601E-002	3.06011E-001	3.57740E+000	9	...........
	3	0.053333	3.26214E-001	1.02056E-004	0.00000E+000	3.32920E-005	5.99601E-002	3.26281E-001	3.57740E+000	9	...........
	4	0.066667	3.45642E-001	1.01598E-004	0.00000E+000	3.51166E-005	5.99601E-002	3.45714E-001	3.57740E+000	9	...........
	5	0.08	3.64378E-001	1.01218E-004	0.00000E+000	3.68816E-005	5.99601E-002	3.64456E-001	3.57740E+000	9	...........
	6	0.093333	3.82518E-001	1.01162E-004	0.00000E+000	3.86961E-005	5.99601E-002	3.82590E-001	3.57740E+000	9	...........
	7	0.106667	4.00130E-001	1.01791E-004	0.00000E+000	4.07296E-005	5.99601E-002	4.00214E-001	3.57740E+000	9	...........
	8	0.12	4.17264E-001	1.00986E-004	0.00000E+000	4.21376E-005	5.99601E-002	4.17359E-001	3.57740E+000	9	...........
	9	0.133333	4.33996E-001	1.01338E-004	0.00000E+000	4.39802E-005	5.99601E-002	4.34090E-001	3.57740E+000	9	...........
	10	0.146667	4.50317E-001	1.01384E-004	0.00000E+000	4.56548E-005	5.99601E-002	4.50415E-001	3.57740E+000	9	...........
	11	0.16	4.66271E-001	1.01427E-004	0.00000E+000	4.72927E-005	5.99601E-002	4.66370E-001	3.57740E+000	9	...........
	12	0.173333	4.81866E-001	1.01767E-004	0.00000E+000	4.90380E-005	5.99601E-002	4.81969E-001	3.57762E+000	9	...........
	13	0.186667	4.97118E-001	1.00642E-004	0.00000E+000	5.00308E-005	5.99601E-002	4.97228E-001	3.57800E+000	9	...........
	14	0.2	5.12063E-001	9.94165E-005	0.00000E+000	5.09075E-005	5.99601E-002	5.12175E-001	3.57800E+000	9	...........
	15	0.213333	5.26701E-001	1.01087E-004	0.00000E+000	5.32425E-005	5.99601E-002	5.26818E-001	3.57800E+000	9	...........
	16	0.226667	5.40746E-001	1.00669E-004	0.00000E+000	5.44363E-005	5.99601E-002	5.40956E-001	3.57800E+000	9	...........
	17	0.24	5.54769E-001	1.01379E-004	0.00000E+000	5.62421E-005	5.99601E-002	5.55024E-001	3.57800E+000	9	...........
	18	0.253333	5.68573E-001	1.01509E-004	0.00000E+000	5.77150E-005	5.99601E-002	5.68825E-001	3.57800E+000	9	...........
	19	0.266667	5.82042E-001	1.01588E-004	0.00000E+000	5.91283E-005	5.99601E-002	5.82347E-001	3.57800E+000	9	...........
	20	0.28	5.95295E-001	1.01486E-004	0.00000E+000	6.04139E-005	5.99601E-002	5.95591E-001	3.57800E+000	9	...........
	21	0.293333	6.08249E-001	1.00344E-004	0.00000E+000	6.10340E-005	5.99601E-002	6.08578E-001	3.57800E+000	9	...........
	22	0.306667	6.21025E-001	1.01795E-004	0.00000E+000	6.32173E-005	5.99601E-002	6.21277E-001	3.57800E+000	9	...........
	23	0.32	6.33482E-001	1.00573E-004	0.00000E+000	6.37111E-005	5.99601E-002	6.33766E-001	3.57800E+000	9	...........
	24	0.333333	6.45709E-001	1.00583E-004	0.00000E+000	6.49476E-005	5.99601E-002	6.45994E-001	3.57800E+000	9	...........
	25	0.346667	6.57674E-001	1.00983E-004	0.00000E+000	6.64142E-005	5.99601E-002	6.57965E-001	3.57800E+000	9	...........
	26	0.36	6.69430E-001	1.01374E-004	0.00000E+000	6.78629E-005	5.99601E-002	6.69677E-001	3.57800E+000	9	...........
	27	0.373333	6.80898E-001	1.00382E-004	0.00000E+000	6.83501E-005	5.99601E-002	6.81158E-001	3.57800E+000	9	...........
	28	0.386667	6.92115E-001	1.00635E-004	0.00000E+000	6.96513E-005	5.99601E-002	6.92407E-001	3.57800E+000	9	...........
	29	0.4	7.03096E-001	1.01766E-004	0.00000E+000	7.15512E-005	5.99601E-002	7.03362E-001	3.57800E+000	9	...........
	30	0.413333	7.13831E-001	1.00151E-004	0.00000E+000	7.14909E-005	5.99601E-002	7.14098E-001	3.57800E+000	9	...........
	31	0.426667	7.24365E-001	1.01274E-004	0.00000E+000	7.33595E-005	5.99601E-002	7.24624E-001	3.57800E+000	9	...........
	32	0.44	7.34615E-001	1.00971E-004	0.00000E+000	7.41748E-005	5.99601E-002	7.34861E-001	3.57800E+000	9	...........
	33	0.453333	7.44644E-001	1.00423E-004	0.00000E+000	7.47794E-005	5.99601E-002	7.44901E-001	3.57800E+000	9	...........
	34	0.466667	7.54447E-001	1.01732E-004	0.00000E+000	7.67510E-005	5.99601E-002	7.54721E-001	3.57800E+000	9	...........
	35	0.48	7.63980E-001	1.01678E-004	0.00000E+000	7.76803E-005	5.99601E-002	7.64236E-001	3.57800E+000	9	...........
	36	0.493333	7.73302E-001	1.00731E-004	0.00000E+000	7.78958E-005	5.99601E-002	7.73560E-001	3.57800E+000	9	...........
	37	0.506667	7.82381E-001	1.00912E-004	0.00000E+000	7.89513E-005	5.99601E-002	7.82647E-001	3.57800E+000	9	...........
	38	0.52	7.91239E-001	1.00169E-004	0.00000E+000	7.92574E-005	5.99601E-002	7.91500E-001	3.57800E+000	9	...........
	39	0.533333	7.99880E-001	1.01460E-004	0.00000E+000	8.11555E-005	5.99601E-002	8.00132E-001	3.57800E+000	9	...........
	40	0.546667	8.08253E-001	1.00950E-004	0.00000E+000	8.15932E-005	5.99601E-002	8.08551E-001	3.57800E+000	9	...........
	41	0.56	8.16427E-001	1.00751E-004	0.00000E+000	8.22559E-005	5.99601E-002	8.16746E-001	3.57800E+000	9	...........
	42	0.573333	8.24384E-001	1.01408E-004	0.00000E+000	8.35987E-005	5.99601E-002	8.24697E-001	3.57800E+000	9	...........
	43	0.586667	8.32118E-001	1.00626E-004	0.00000E+000	8.37328E-005	5.99601E-002	8.32420E-001	3.57800E+000	9	...........
	44	0.6	8.39622E-001	1.00973E-004	0.00000E+000	8.47792E-005	5.99601E-002	8.39923E-001	3.57800E+000	9	...........
	45	0.613333	8.46934E-001	1.01074E-004	0.00000E+000	8.56031E-005	5.99601E-002	8.47243E-001	3.57800E+000	9	...........
	46	0.626667	8.54008E-001	1.00261E-004	0.00000E+000	8.56241E-005	5.99601E-002	8.54316E-001	3.57800E+000	9	...........
	47	0.64	8.60878E-001	1.00825E-004	0.00000E+000	8.67981E-005	5.99601E-002	8.61212E-001	3.57800E+000	9	...........
	48	0.653333	8.67565E-001	1.00468E-004	0.00000E+000	8.71622E-005	5.99601E-002	8.67894E-001	3.57800E+000	9	...........
	49	0.666667	8.74038E-001	1.01188E-004	0.00000E+000	8.84419E-005	5.99601E-002	8.74362E-001	3.57800E+000	9	...........
	50	0.68	8.80298E-001	1.01719E-004	0.00000E+000	8.95431E-005	5.99601E-002	8.80626E-001	3.57800E+000	9	...........
	51	0.693333	8.86387E-001	1.01226E-004	0.00000E+000	8.97256E-005	5.99601E-002	8.86712E-001	3.57800E+000	9	...........
	52	0.706667	8.92266E-001	1.01049E-004	0.00000E+000	9.01627E-005	5.99601E-002	8.92587E-001	3.57800E+000	9	...........
	53	0.72	8.98000E-001	1.00476E-004	0.00000E+000	9.02275E-005	5.99601E-002	8.98348E-001	3.57800E+000	9	...........
	54	0.733333	9.03560E-001	1.01253E-004	0.00000E+000	9.14885E-005	5.99601E-002	9.03882E-001	3.57800E+000	9	...........
	55	0.746667	9.08959E-001	1.01836E-004	0.00000E+000	9.25645E-005	5.99601E-002	9.09263E-001	3.57800E+000	9	...........
	56	0.76	9.14201E-001	1.01860E-004	0.00000E+000	9.31202E-005	5.99601E-002	9.14507E-001	3.57800E+000	9	...........
	57	0.773333	9.19321E-001	1.00369E-004	0.00000E+000	9.22711E-005	5.99601E-002	9.19630E-001	3.57800E+000	9	...........
	58	0.786667	9.24351E-001	1.00449E-004	0.00000E+000	9.28501E-005	5.99601E-002	9.24632E-001	3.57800E+000	9	...........
	59	0.8	9.29215E-001	1.00185E-004	0.00000E+000	9.30937E-005	5.99601E-002	9.29529E-001	3.57800E+000	9	...........
	60	0.813333	9.33968E-001	9.99822E-005	0.00000E+000	9.33802E-005	5.99601E-002	9.34267E-001	3.57800E+000	9	...........
	61	0.826667	9.38602E-001	1.01373E-004	0.00000E+000	9.51490E-005	5.99601E-002	9.38938E-001	3.57800E+000	9	...........
	62	0.84	9.43160E-001	1.00967E-004	0.00000E+000	9.52278E-005	5.99601E-002	9.43484E-001	3.57800E+000	9	...........
	63	0.853333	9.47645E-001	1.00644E-004	0.00000E+000	9.53746E-005	5.99601E-002	9.47944E-001	3.57800E+000	9	...........
	64	0.866667	9.52031E-001	1.00818E-004	0.00000E+000	9.59817E-005	5.99601E-002	9.52328E-001	3.57800E+000	9	...........
	65	0.88	9.56312E-001	1.01249E-004	0.00000E+000	9.68258E-005	5.99601E-002	9.56630E-001	3.57800E+000	9	...........
	66	0.893333	9.60506E-001	1.01163E-004	0.00000E+000	9.71674E-005	5.99601E-002	9.60841E-001	3.57800E+000	9	...........
	67	0.906667	9.64623E-001	1.00252E-004	0.00000E+000	9.67054E-005	5.99601E-002	9.64970E-001	3.57800E+000	9	...........
	68	0.92	9.68671E-001	1.00633E-004	0.00000E+000	9.74806E-005	5.99601E-002	9.69026E-001	3.57800E+000	9	...........
	69	0.933333	9.72660E-001	1.01225E-004	0.00000E+000	9.84577E-005	5.99601E-002	9.73020E-001	3.57800E+000	9	...........
	70	0.946667	9.76570E-001	1.01169E-004	0.00000E+000	9.87985E-005	5.99601E-002	9.76905E-001	3.57800E+000	9	...........
	71	0.96	9.80375E-001	1.01652E-004	0.00000E+000	9.96574E-005	5.99601E-002	9.80694E-001	3.57800E+000	9	...........
	72	0.97333	9.84078E-001	1.01583E-004	0.00000E+000	9.99651E-005	5.99601E-002	9.84420E-001	3.57800E+000	9	...........
	73	0.98667	9.87739E-001	1.00809E-004	0.00000E+000	9.95735E-005	5.99601E-002	9.88082E-001	3.57800E+000	9	...........
	74	1	9.91294E-001	1.01907E-004	0.00000E+000	1.01019E-004	5.99601E-002	9.91644E-001	3.57800E+000	9	...........
	75	1.01333	9.94770E-001	1.01148E-004	0.00000E+000	1.00619E-004	5.99601E-002	9.95124E-001	3.57800E+000	9	...........
	76	1.02667	9.98189E-001	1.01378E-004	0.00000E+000	1.01195E-004	5.99601E-002	9.98535E-001	3.57800E+000	9	...........
	77	1.02833	1.00012E+000	1.02432E-004	0.00000E+000	1.02444E-004	5.99601E-002	1.00043E+000	3.57800E+000	9	...........
STARTTIMEOFFSET	QUANT	551.2902	Start Time Offset (s)
