EXPLAIN
TAG	PWR800_CHARGE
TITLE	LABEL	PWR Cyclic Charge Discharge (Cell) - Charge Step	Test &Identifier
DATE	LABEL	12-7-2017	Date
TIME	LABEL	16:11:19	Time
NOTES	NOTES	2	&Notes...
	supercap test cell
	6M KOH
PSTAT	PSTAT	IFC5000-01520	Potentiostat
CAPACITY	QUANT	1.00000E-003	Capacity (A-hr)
CELLTYPE	SELECTOR	1	&Cell Type
WORKINGCONNECTION	SELECTOR	0	&Working Lead
MAXCHARGETIME	VARIABLEANDUNITS	1.00000E+002	s	1.00000E+002	second(s)	Max &Charge Time
CHARGECURRENT	QUANT	1.00000E-004	&Charge Current (A) 
VOLTAGEFINISH	TWOPARAM	F	1.00000E-003	3.60000E+003	&Voltage Finish	 I (A) < 	Max Time(s)
SAMPLETIME	QUANT	1.00000E-002	Sa&mple Period (s)
CHARGESTOPAT1	MULTIPARAM	4	1.00000E+000	Charge Stop At &1	Voltage > Limit	V
CHARGESTOPAT2	MULTIPARAM	0	0.00000E+000	Charge Stop At &2	None	N/A
AESBHCSELECTOR	TOGGLE	F	Save Both Half Cells
IRCOMP	TOGGLE	F	IR &Measure
EOC	QUANT	0	Open Circuit (V)
SEQUENCER	TOGGLE	TRUE	Run as Sequence
PSTATMODEL	IQUANT	53	Pstat Model
PSTATSECTION	LABEL	IFC5000-01520	Pstat Section
PSTATSERIALNO	LABEL	01520	Pstat Serial Number
CTRLMODE	IQUANT	0	Control Mode
ELECTROMETER	IQUANT	1	RE=0 or CS=1
IESTAB	IQUANT	0	I/E Stability
CASPEED	IQUANT	4	Control Amp Speed
CONVENTION	IQUANT	1	Current Convention
ICHRANGE	IQUANT	2	Ich Range
ICHRANGEMODE	TOGGLE	T	Ich Auto Range
ICHOFFSETENABLE	TOGGLE	F	Ich Offset Enable
ICHOFFSET	QUANT	0	Ich Offset (V)
ICHFILTER	IQUANT	1	Ich Filter
VCHRANGE	IQUANT	2	Vch Range
VCHRANGEMODE	TOGGLE	T	Vch Auto Range
VCHOFFSETENABLE	TOGGLE	F	Vch Offset Enable
VCHOFFSET	QUANT	0	Vch Offset (V)
VCHFILTER	IQUANT	1	Vch Filter
IERANGELOWERLIMIT	IQUANT	9	I/E Range Lower Limit
IERANGEMODE	TOGGLE	F	I/E AutoRange
IERANGE	IQUANT	9	I/E Range
ACHSELECT	IQUANT	1	Ach Select
ACHRANGE	IQUANT	2	Ach Range
ACHOFFSETENABLE	TOGGLE	F	Ach Offset Enable
ACHOFFSET	QUANT	0	Ach Offset (V)
ACHFILTER	IQUANT	1	Ach Filter
CABLEID	IQUANT	14	Cable ID
DCCALDATE	LABEL	5-7-2017	DC Calibration Date
ACCALDATE	LABEL	12/3/2015	AC Calibration Date
FRAMEWORKVERSION	QUANT	7.01	Framework Version
INSTRUMENTVERSION	LABEL	4.00	Instrument Version
CURVE	TABLE	85
	Pt	T	Vf	Im	Vu	Pwr	Sig	Ach	Temp	IERange	Over
	#	s	V	A	V	W	V	V	deg C	#	bits
	0	0.013333	2.57316E-001	1.00867E-004	0.00000E+000	2.59547E-005	5.99601E-002	2.57387E-001	3.57730E+000	9	...........
	1	0.026667	2.79830E-001	1.00980E-004	0.00000E+000	2.82573E-005	5.99601E-002	2.79888E-001	3.57730E+000	9	...........
	2	0.04	3.00751E-001	1.01079E-004	0.00000E+000	3.03997E-005	5.99601E-002	3.00812E-001	3.57730E+000	9	...........
	3	0.053333	3.20426E-001	1.01060E-004	0.00000E+000	3.23821E-005	5.99601E-002	3.20484E-001	3.57730E+000	9	...........
	4	0.066667	3.39058E-001	1.00920E-004	0.00000E+000	3.42177E-005	5.99601E-002	3.39123E-001	3.57730E+000	9	...........
	5	0.08	3.56810E-001	1.01223E-004	0.00000E+000	3.61174E-005	5.99601E-002	3.56882E-001	3.57730E+000	9	...........
	6	0.093333	3.73776E-001	1.01177E-004	0.00000E+000	3.78176E-005	5.99601E-002	3.73853E-001	3.57730E+000	9	...........
	7	0.106667	3.90069E-001	1.00979E-004	0.00000E+000	3.93889E-005	5.99601E-002	3.90140E-001	3.57730E+000	9	...........
	8	0.12	4.05738E-001	1.01275E-004	0.00000E+000	4.10912E-005	5.99601E-002	4.05816E-001	3.57730E+000	9	...........
	9	0.133333	4.20851E-001	1.00639E-004	0.00000E+000	4.23538E-005	5.99601E-002	4.20934E-001	3.57730E+000	9	...........
	10	0.146667	4.35461E-001	1.01129E-004	0.00000E+000	4.40378E-005	5.99601E-002	4.35551E-001	3.57730E+000	9	...........
	11	0.16	4.49621E-001	1.00909E-004	0.00000E+000	4.53710E-005	5.99601E-002	4.49708E-001	3.57730E+000	9	...........
	12	0.173333	4.63373E-001	1.00658E-004	0.00000E+000	4.66423E-005	5.99601E-002	4.63464E-001	3.57730E+000	9	...........
	13	0.186667	4.76757E-001	1.00843E-004	0.00000E+000	4.80775E-005	5.99601E-002	4.76852E-001	3.57730E+000	9	...........
	14	0.2	4.89802E-001	1.01871E-004	0.00000E+000	4.98967E-005	5.99601E-002	4.89904E-001	3.57730E+000	9	...........
	15	0.213333	5.02539E-001	1.00738E-004	0.00000E+000	5.06246E-005	5.99601E-002	5.02639E-001	3.57730E+000	9	...........
	16	0.226667	5.15001E-001	1.01421E-004	0.00000E+000	5.22320E-005	5.99601E-002	5.15108E-001	3.57730E+000	9	...........
	17	0.24	5.27206E-001	1.00417E-004	0.00000E+000	5.29402E-005	5.99601E-002	5.27316E-001	3.57730E+000	9	...........
	18	0.253333	5.38884E-001	1.00656E-004	0.00000E+000	5.42421E-005	5.99601E-002	5.39079E-001	3.57730E+000	9	...........
	19	0.266667	5.50569E-001	1.00647E-004	0.00000E+000	5.54131E-005	5.99601E-002	5.50804E-001	3.57730E+000	9	...........
	20	0.28	5.62115E-001	1.00783E-004	0.00000E+000	5.66519E-005	5.99601E-002	5.62341E-001	3.57730E+000	9	...........
	21	0.293333	5.73440E-001	1.01365E-004	0.00000E+000	5.81266E-005	5.99601E-002	5.73677E-001	3.57730E+000	9	...........
	22	0.306667	5.84559E-001	1.01052E-004	0.00000E+000	5.90710E-005	5.99601E-002	5.84792E-001	3.57730E+000	9	...........
	23	0.32	5.95497E-001	1.00977E-004	0.00000E+000	6.01316E-005	5.99601E-002	5.95738E-001	3.57730E+000	9	...........
	24	0.333333	6.06264E-001	1.00866E-004	0.00000E+000	6.11513E-005	5.99601E-002	6.06507E-001	3.57730E+000	9	...........
	25	0.346667	6.16899E-001	1.01170E-004	0.00000E+000	6.24117E-005	5.99601E-002	6.17133E-001	3.57730E+000	9	...........
	26	0.36	6.27375E-001	1.00920E-004	0.00000E+000	6.33146E-005	5.99601E-002	6.27574E-001	3.57730E+000	9	...........
	27	0.373333	6.37660E-001	1.00614E-004	0.00000E+000	6.41572E-005	5.99601E-002	6.37877E-001	3.57730E+000	9	...........
	28	0.386667	6.47807E-001	1.01465E-004	0.00000E+000	6.57296E-005	5.99601E-002	6.48064E-001	3.57730E+000	9	...........
	29	0.4	6.57803E-001	1.00650E-004	0.00000E+000	6.62079E-005	5.99601E-002	6.58037E-001	3.57730E+000	9	...........
	30	0.413333	6.67656E-001	1.00947E-004	0.00000E+000	6.73978E-005	5.99601E-002	6.67915E-001	3.57730E+000	9	...........
	31	0.426667	6.77362E-001	1.01058E-004	0.00000E+000	6.84532E-005	5.99601E-002	6.77615E-001	3.57730E+000	9	...........
	32	0.44	6.86920E-001	1.00492E-004	0.00000E+000	6.90298E-005	5.99601E-002	6.87173E-001	3.57730E+000	9	...........
	33	0.453333	6.96358E-001	1.01304E-004	0.00000E+000	7.05441E-005	5.99601E-002	6.96583E-001	3.57730E+000	9	...........
	34	0.466667	7.05642E-001	1.00673E-004	0.00000E+000	7.10391E-005	5.99601E-002	7.05866E-001	3.57730E+000	9	...........
	35	0.48	7.14802E-001	1.00338E-004	0.00000E+000	7.17214E-005	5.99601E-002	7.15026E-001	3.57730E+000	9	...........
	36	0.493333	7.23841E-001	9.99885E-005	0.00000E+000	7.23758E-005	5.99601E-002	7.24055E-001	3.57730E+000	9	...........
	37	0.506667	7.32725E-001	1.00706E-004	0.00000E+000	7.37900E-005	5.99601E-002	7.32961E-001	3.57730E+000	9	...........
	38	0.52	7.41463E-001	1.00948E-004	0.00000E+000	7.48492E-005	5.99601E-002	7.41726E-001	3.57730E+000	9	...........
	39	0.533333	7.50087E-001	1.01501E-004	0.00000E+000	7.61348E-005	5.99601E-002	7.50341E-001	3.57730E+000	9	...........
	40	0.546667	7.58569E-001	1.00726E-004	0.00000E+000	7.64077E-005	5.99601E-002	7.58825E-001	3.57730E+000	9	...........
	41	0.56	7.66895E-001	1.01067E-004	0.00000E+000	7.75076E-005	5.99601E-002	7.67157E-001	3.57730E+000	9	...........
	42	0.573333	7.75095E-001	1.01176E-004	0.00000E+000	7.84212E-005	5.99601E-002	7.75349E-001	3.57730E+000	9	...........
	43	0.586667	7.83150E-001	1.00394E-004	0.00000E+000	7.86233E-005	5.99601E-002	7.83414E-001	3.57730E+000	9	...........
	44	0.6	7.91090E-001	1.00534E-004	0.00000E+000	7.95318E-005	5.99601E-002	7.91345E-001	3.57860E+000	9	...........
	45	0.613333	7.98870E-001	1.00869E-004	0.00000E+000	8.05812E-005	5.99601E-002	7.99132E-001	3.57860E+000	9	...........
	46	0.626667	8.06501E-001	1.01312E-004	0.00000E+000	8.17079E-005	5.99601E-002	8.06765E-001	3.57860E+000	9	...........
	47	0.64	8.13995E-001	1.01673E-004	0.00000E+000	8.27614E-005	5.99601E-002	8.14273E-001	3.57860E+000	9	...........
	48	0.653333	8.21366E-001	1.01203E-004	0.00000E+000	8.31250E-005	5.99601E-002	8.21646E-001	3.57860E+000	9	...........
	49	0.666667	8.28571E-001	1.01248E-004	0.00000E+000	8.38913E-005	5.99601E-002	8.28858E-001	3.57860E+000	9	...........
	50	0.68	8.35645E-001	1.00820E-004	0.00000E+000	8.42497E-005	5.99601E-002	8.35942E-001	3.57860E+000	9	...........
	51	0.693333	8.42573E-001	1.01136E-004	0.00000E+000	8.52141E-005	5.99601E-002	8.42869E-001	3.57860E+000	9	...........
	52	0.706667	8.49394E-001	1.01119E-004	0.00000E+000	8.58898E-005	5.99601E-002	8.49694E-001	3.57860E+000	9	...........
	53	0.72	8.56033E-001	1.01153E-004	0.00000E+000	8.65905E-005	5.99601E-002	8.56337E-001	3.57860E+000	9	...........
	54	0.733333	8.62521E-001	1.01540E-004	0.00000E+000	8.75803E-005	5.99601E-002	8.62852E-001	3.57860E+000	9	...........
	55	0.746667	8.68920E-001	1.00904E-004	0.00000E+000	8.76778E-005	5.99601E-002	8.69257E-001	3.57860E+000	9	...........
	56	0.76	8.75162E-001	1.00921E-004	0.00000E+000	8.83222E-005	5.99601E-002	8.75493E-001	3.57860E+000	9	...........
	57	0.773333	8.81261E-001	1.01044E-004	0.00000E+000	8.90460E-005	5.99601E-002	8.81598E-001	3.57860E+000	9	...........
	58	0.786667	8.87206E-001	1.00714E-004	0.00000E+000	8.93537E-005	5.99601E-002	8.87551E-001	3.57860E+000	9	...........
	59	0.8	8.93013E-001	1.00344E-004	0.00000E+000	8.96082E-005	5.99601E-002	8.93342E-001	3.57860E+000	9	...........
	60	0.813333	8.98709E-001	1.00637E-004	0.00000E+000	9.04429E-005	5.99601E-002	8.99027E-001	3.57860E+000	9	...........
	61	0.826667	9.04233E-001	1.00781E-004	0.00000E+000	9.11298E-005	5.99601E-002	9.04573E-001	3.57860E+000	9	...........
	62	0.84	9.09651E-001	1.00668E-004	0.00000E+000	9.15726E-005	5.99601E-002	9.09967E-001	3.57860E+000	9	...........
	63	0.853333	9.14908E-001	1.01299E-004	0.00000E+000	9.26794E-005	5.99601E-002	9.15228E-001	3.57860E+000	9	...........
	64	0.866667	9.20083E-001	1.00739E-004	0.00000E+000	9.26879E-005	5.99601E-002	9.20369E-001	3.57860E+000	9	...........
	65	0.88	9.25100E-001	1.00803E-004	0.00000E+000	9.32530E-005	5.99601E-002	9.25408E-001	3.57860E+000	9	...........
	66	0.893333	9.29981E-001	1.01595E-004	0.00000E+000	9.44815E-005	5.99601E-002	9.30279E-001	3.57860E+000	9	...........
	67	0.906667	9.34719E-001	1.01254E-004	0.00000E+000	9.46444E-005	5.99601E-002	9.35041E-001	3.57860E+000	9	...........
	68	0.92	9.39360E-001	1.00370E-004	0.00000E+000	9.42834E-005	5.99601E-002	9.39681E-001	3.57860E+000	9	...........
	69	0.933333	9.43850E-001	1.00618E-004	0.00000E+000	9.49681E-005	5.99601E-002	9.44210E-001	3.57860E+000	9	...........
	70	0.946667	9.48287E-001	1.00083E-004	0.00000E+000	9.49077E-005	5.99601E-002	9.48626E-001	3.57860E+000	9	...........
	71	0.96	9.52576E-001	1.00101E-004	0.00000E+000	9.53538E-005	5.99601E-002	9.52924E-001	3.57860E+000	9	...........
	72	0.97333	9.56760E-001	1.00921E-004	0.00000E+000	9.65571E-005	5.99601E-002	9.57076E-001	3.57860E+000	9	...........
	73	0.98667	9.60834E-001	1.00797E-004	0.00000E+000	9.68492E-005	5.99601E-002	9.61193E-001	3.57860E+000	9	...........
	74	1	9.64787E-001	1.00898E-004	0.00000E+000	9.73451E-005	5.99601E-002	9.65141E-001	3.57860E+000	9	...........
	75	1.01333	9.68653E-001	1.01132E-004	0.00000E+000	9.79623E-005	5.99601E-002	9.69003E-001	3.57860E+000	9	...........
	76	1.02667	9.72463E-001	1.01544E-004	0.00000E+000	9.87478E-005	5.99601E-002	9.72814E-001	3.57860E+000	9	...........
	77	1.04	9.76167E-001	1.00858E-004	0.00000E+000	9.84547E-005	5.99601E-002	9.76491E-001	3.57860E+000	9	...........
	78	1.05333	9.79743E-001	1.00998E-004	0.00000E+000	9.89522E-005	5.99601E-002	9.80069E-001	3.57860E+000	9	...........
	79	1.06667	9.83222E-001	1.00731E-004	0.00000E+000	9.90413E-005	5.99601E-002	9.83557E-001	3.57860E+000	9	...........
	80	1.08	9.86636E-001	1.00766E-004	0.00000E+000	9.94191E-005	5.99601E-002	9.86986E-001	3.57860E+000	9	...........
	81	1.09333	9.89996E-001	1.00907E-004	0.00000E+000	9.98979E-005	5.99601E-002	9.90322E-001	3.57860E+000	9	...........
	82	1.10667	9.93219E-001	1.00758E-004	0.00000E+000	1.00075E-004	5.99601E-002	9.93562E-001	3.57860E+000	9	...........
	83	1.12	9.96363E-001	1.00638E-004	0.00000E+000	1.00272E-004	5.99601E-002	9.96704E-001	3.57860E+000	9	...........
	84	1.13167	9.99253E-001	1.00566E-004	0.00000E+000	1.00491E-004	5.99601E-002	9.99600E-001	3.57860E+000	9	...........
STARTTIMEOFFSET	QUANT	52.36834	Start Time Offset (s)
