EXPLAIN
TAG	PWR800_CHARGE
TITLE	LABEL	PWR Cyclic Charge Discharge (Cell) - Charge Step	Test &Identifier
DATE	LABEL	12-7-2017	Date
TIME	LABEL	16:47:27	Time
NOTES	NOTES	2	&Notes...
	supercap test cell
	6M KOH
PSTAT	PSTAT	IFC5000-01520	Potentiostat
CAPACITY	QUANT	1.00000E-003	Capacity (A-hr)
CELLTYPE	SELECTOR	1	&Cell Type
WORKINGCONNECTION	SELECTOR	0	&Working Lead
MAXCHARGETIME	VARIABLEANDUNITS	1.00000E+002	s	1.00000E+002	second(s)	Max &Charge Time
CHARGECURRENT	QUANT	1.00000E-004	&Charge Current (A) 
VOLTAGEFINISH	TWOPARAM	F	1.00000E-003	3.60000E+003	&Voltage Finish	 I (A) < 	Max Time(s)
SAMPLETIME	QUANT	1.00000E-002	Sa&mple Period (s)
CHARGESTOPAT1	MULTIPARAM	4	1.00000E+000	Charge Stop At &1	Voltage > Limit	V
CHARGESTOPAT2	MULTIPARAM	0	0.00000E+000	Charge Stop At &2	None	N/A
AESBHCSELECTOR	TOGGLE	F	Save Both Half Cells
IRCOMP	TOGGLE	F	IR &Measure
EOC	QUANT	0	Open Circuit (V)
SEQUENCER	TOGGLE	TRUE	Run as Sequence
PSTATMODEL	IQUANT	53	Pstat Model
PSTATSECTION	LABEL	IFC5000-01520	Pstat Section
PSTATSERIALNO	LABEL	01520	Pstat Serial Number
CTRLMODE	IQUANT	0	Control Mode
ELECTROMETER	IQUANT	1	RE=0 or CS=1
IESTAB	IQUANT	0	I/E Stability
CASPEED	IQUANT	4	Control Amp Speed
CONVENTION	IQUANT	1	Current Convention
ICHRANGE	IQUANT	2	Ich Range
ICHRANGEMODE	TOGGLE	T	Ich Auto Range
ICHOFFSETENABLE	TOGGLE	F	Ich Offset Enable
ICHOFFSET	QUANT	0	Ich Offset (V)
ICHFILTER	IQUANT	1	Ich Filter
VCHRANGE	IQUANT	2	Vch Range
VCHRANGEMODE	TOGGLE	T	Vch Auto Range
VCHOFFSETENABLE	TOGGLE	F	Vch Offset Enable
VCHOFFSET	QUANT	0	Vch Offset (V)
VCHFILTER	IQUANT	1	Vch Filter
IERANGELOWERLIMIT	IQUANT	9	I/E Range Lower Limit
IERANGEMODE	TOGGLE	F	I/E AutoRange
IERANGE	IQUANT	9	I/E Range
ACHSELECT	IQUANT	1	Ach Select
ACHRANGE	IQUANT	2	Ach Range
ACHOFFSETENABLE	TOGGLE	F	Ach Offset Enable
ACHOFFSET	QUANT	0	Ach Offset (V)
ACHFILTER	IQUANT	1	Ach Filter
CABLEID	IQUANT	14	Cable ID
DCCALDATE	LABEL	5-7-2017	DC Calibration Date
ACCALDATE	LABEL	12/3/2015	AC Calibration Date
FRAMEWORKVERSION	QUANT	7.01	Framework Version
INSTRUMENTVERSION	LABEL	4.00	Instrument Version
CURVE	TABLE	75
	Pt	T	Vf	Im	Vu	Pwr	Sig	Ach	Temp	IERange	Over
	#	s	V	A	V	W	V	V	deg C	#	bits
	0	0.013333	2.57261E-001	1.00260E-004	0.00000E+000	2.57931E-005	5.99601E-002	2.57324E-001	3.57722E+000	9	...........
	1	0.026667	2.80370E-001	1.00505E-004	0.00000E+000	2.81787E-005	5.99601E-002	2.80427E-001	3.57700E+000	9	...........
	2	0.04	3.02241E-001	1.00603E-004	0.00000E+000	3.04064E-005	5.99601E-002	3.02296E-001	3.57700E+000	9	...........
	3	0.053333	3.23190E-001	1.00303E-004	0.00000E+000	3.24169E-005	5.99601E-002	3.23256E-001	3.57700E+000	9	...........
	4	0.066667	3.43425E-001	1.02467E-004	0.00000E+000	3.51898E-005	5.99601E-002	3.43492E-001	3.57700E+000	9	...........
	5	0.08	3.63061E-001	1.00306E-004	0.00000E+000	3.64173E-005	5.99601E-002	3.63127E-001	3.57700E+000	9	...........
	6	0.093333	3.82167E-001	1.00464E-004	0.00000E+000	3.83938E-005	5.99601E-002	3.82240E-001	3.57700E+000	9	...........
	7	0.106667	4.00808E-001	1.00777E-004	0.00000E+000	4.03923E-005	5.99601E-002	4.00883E-001	3.57700E+000	9	...........
	8	0.12	4.19006E-001	1.01078E-004	0.00000E+000	4.23524E-005	5.99601E-002	4.19086E-001	3.57700E+000	9	...........
	9	0.133333	4.36787E-001	1.01391E-004	0.00000E+000	4.42863E-005	5.99601E-002	4.36874E-001	3.57700E+000	9	...........
	10	0.146667	4.54184E-001	1.01040E-004	0.00000E+000	4.58906E-005	5.99601E-002	4.54278E-001	3.57700E+000	9	...........
	11	0.16	4.71195E-001	1.00781E-004	0.00000E+000	4.74876E-005	5.99601E-002	4.71292E-001	3.57700E+000	9	...........
	12	0.173333	4.87837E-001	1.01774E-004	0.00000E+000	4.96492E-005	5.99601E-002	4.87942E-001	3.57700E+000	9	...........
	13	0.186667	5.04124E-001	1.00184E-004	0.00000E+000	5.05053E-005	5.99601E-002	5.04231E-001	3.57700E+000	9	...........
	14	0.2	5.20062E-001	1.01068E-004	0.00000E+000	5.25616E-005	5.99601E-002	5.20173E-001	3.57700E+000	9	...........
	15	0.213333	5.35507E-001	1.00419E-004	0.00000E+000	5.37749E-005	5.99601E-002	5.35644E-001	3.57700E+000	9	...........
	16	0.226667	5.50591E-001	1.00021E-004	0.00000E+000	5.50706E-005	5.99601E-002	5.50834E-001	3.57700E+000	9	...........
	17	0.24	5.65515E-001	1.01026E-004	0.00000E+000	5.71319E-005	5.99601E-002	5.65732E-001	3.57700E+000	9	...........
	18	0.253333	5.80056E-001	1.01369E-004	0.00000E+000	5.87997E-005	5.99601E-002	5.80272E-001	3.57700E+000	9	...........
	19	0.266667	5.94292E-001	1.00843E-004	0.00000E+000	5.99301E-005	5.99601E-002	5.94513E-001	3.57700E+000	9	...........
	20	0.28	6.08165E-001	1.02006E-004	0.00000E+000	6.20362E-005	5.99601E-002	6.08392E-001	3.57700E+000	9	...........
	21	0.293333	6.21776E-001	9.99624E-005	0.00000E+000	6.21543E-005	5.99601E-002	6.21962E-001	3.57700E+000	9	...........
	22	0.306667	6.34994E-001	9.97030E-005	0.00000E+000	6.33108E-005	5.99601E-002	6.35214E-001	3.57700E+000	9	...........
	23	0.32	6.47941E-001	1.01522E-004	0.00000E+000	6.57803E-005	5.99601E-002	6.48124E-001	3.57700E+000	9	...........
	24	0.333333	6.60523E-001	9.96248E-005	0.00000E+000	6.58045E-005	5.99601E-002	6.60728E-001	3.57700E+000	9	...........
	25	0.346667	6.72845E-001	1.00807E-004	0.00000E+000	6.78278E-005	5.99601E-002	6.73034E-001	3.57700E+000	9	...........
	26	0.36	6.84823E-001	1.00948E-004	0.00000E+000	6.91316E-005	5.99601E-002	6.85029E-001	3.57700E+000	9	...........
	27	0.373333	6.96506E-001	1.01106E-004	0.00000E+000	7.04213E-005	5.99601E-002	6.96705E-001	3.57700E+000	9	...........
	28	0.386667	7.07851E-001	1.01875E-004	0.00000E+000	7.21125E-005	5.99601E-002	7.08075E-001	3.57700E+000	9	...........
	29	0.4	7.18931E-001	1.01956E-004	0.00000E+000	7.32990E-005	5.99601E-002	7.19164E-001	3.57700E+000	9	...........
	30	0.413333	7.29702E-001	1.01325E-004	0.00000E+000	7.39372E-005	5.99601E-002	7.29928E-001	3.57700E+000	9	...........
	31	0.426667	7.40176E-001	1.00486E-004	0.00000E+000	7.43777E-005	5.99601E-002	7.40420E-001	3.57700E+000	9	...........
	32	0.44	7.50350E-001	1.01163E-004	0.00000E+000	7.59074E-005	5.99601E-002	7.50609E-001	3.57700E+000	9	...........
	33	0.453333	7.60259E-001	1.00303E-004	0.00000E+000	7.62563E-005	5.99601E-002	7.60500E-001	3.57700E+000	9	...........
	34	0.466667	7.69875E-001	1.00504E-004	0.00000E+000	7.73756E-005	5.99601E-002	7.70149E-001	3.57700E+000	9	...........
	35	0.48	7.79221E-001	1.00541E-004	0.00000E+000	7.83434E-005	5.99601E-002	7.79492E-001	3.57700E+000	9	...........
	36	0.493333	7.88290E-001	1.01668E-004	0.00000E+000	8.01439E-005	5.99601E-002	7.88557E-001	3.57700E+000	9	...........
	37	0.506667	7.97125E-001	1.01953E-004	0.00000E+000	8.12696E-005	5.99601E-002	7.97388E-001	3.57700E+000	9	...........
	38	0.52	8.05648E-001	1.00695E-004	0.00000E+000	8.11246E-005	5.99601E-002	8.05908E-001	3.57700E+000	9	...........
	39	0.533333	8.13915E-001	1.00047E-004	0.00000E+000	8.14296E-005	5.99601E-002	8.14190E-001	3.57700E+000	9	...........
	40	0.546667	8.21938E-001	1.00407E-004	0.00000E+000	8.25285E-005	5.99601E-002	8.22237E-001	3.57700E+000	9	...........
	41	0.56	8.29711E-001	1.01435E-004	0.00000E+000	8.41614E-005	5.99601E-002	8.29991E-001	3.57700E+000	9	...........
	42	0.573333	8.37247E-001	1.01175E-004	0.00000E+000	8.47086E-005	5.99601E-002	8.37527E-001	3.57700E+000	9	...........
	43	0.586667	8.44535E-001	1.00779E-004	0.00000E+000	8.51116E-005	5.99601E-002	8.44816E-001	3.57700E+000	9	...........
	44	0.6	8.51592E-001	1.01490E-004	0.00000E+000	8.64280E-005	5.99601E-002	8.51891E-001	3.57700E+000	9	...........
	45	0.613333	8.58430E-001	1.00339E-004	0.00000E+000	8.61336E-005	5.99601E-002	8.58744E-001	3.57700E+000	9	...........
	46	0.626667	8.65070E-001	1.00564E-004	0.00000E+000	8.69945E-005	5.99601E-002	8.65367E-001	3.57700E+000	9	...........
	47	0.64	8.71525E-001	1.01122E-004	0.00000E+000	8.81304E-005	5.99601E-002	8.71817E-001	3.57700E+000	9	...........
	48	0.653333	8.77763E-001	1.01202E-004	0.00000E+000	8.88316E-005	5.99601E-002	8.78058E-001	3.57700E+000	9	...........
	49	0.666667	8.83839E-001	1.02297E-004	0.00000E+000	9.04144E-005	5.99601E-002	8.84139E-001	3.57700E+000	9	...........
	50	0.68	8.89719E-001	9.95769E-005	0.00000E+000	8.85955E-005	5.99601E-002	8.90037E-001	3.57700E+000	9	...........
	51	0.693333	8.95487E-001	1.01256E-004	0.00000E+000	9.06739E-005	5.99601E-002	8.95802E-001	3.57700E+000	9	...........
	52	0.706667	9.01093E-001	1.00325E-004	0.00000E+000	9.04022E-005	5.99601E-002	9.01417E-001	3.57700E+000	9	...........
	53	0.72	9.06582E-001	1.02131E-004	0.00000E+000	9.25897E-005	5.99601E-002	9.06892E-001	3.57700E+000	9	...........
	54	0.733333	9.11941E-001	1.00965E-004	0.00000E+000	9.20739E-005	5.99601E-002	9.12237E-001	3.57700E+000	9	...........
	55	0.746667	9.17188E-001	1.01622E-004	0.00000E+000	9.32066E-005	5.99601E-002	9.17507E-001	3.57700E+000	9	...........
	56	0.76	9.22374E-001	1.02114E-004	0.00000E+000	9.41872E-005	5.99601E-002	9.22653E-001	3.57700E+000	9	...........
	57	0.773333	9.27407E-001	1.00988E-004	0.00000E+000	9.36566E-005	5.99601E-002	9.27719E-001	3.57700E+000	9	...........
	58	0.786667	9.32359E-001	1.01736E-004	0.00000E+000	9.48541E-005	5.99601E-002	9.32684E-001	3.57700E+000	9	...........
	59	0.8	9.37239E-001	1.00417E-004	0.00000E+000	9.41144E-005	5.99601E-002	9.37562E-001	3.57700E+000	9	...........
	60	0.813333	9.42026E-001	1.00553E-004	0.00000E+000	9.47237E-005	5.99601E-002	9.42331E-001	3.57700E+000	9	...........
	61	0.826667	9.46774E-001	1.01354E-004	0.00000E+000	9.59597E-005	5.99601E-002	9.47095E-001	3.57700E+000	9	...........
	62	0.84	9.51432E-001	1.01793E-004	0.00000E+000	9.68491E-005	5.99601E-002	9.51755E-001	3.57700E+000	9	...........
	63	0.853333	9.56001E-001	1.01101E-004	0.00000E+000	9.66529E-005	5.99601E-002	9.56323E-001	3.57700E+000	9	...........
	64	0.866667	9.60491E-001	1.00971E-004	0.00000E+000	9.69817E-005	5.99601E-002	9.60825E-001	3.57700E+000	9	...........
	65	0.88	9.64918E-001	1.01381E-004	0.00000E+000	9.78248E-005	5.99601E-002	9.65251E-001	3.57700E+000	9	...........
	66	0.893333	9.69240E-001	1.01136E-004	0.00000E+000	9.80246E-005	5.99601E-002	9.69595E-001	3.57700E+000	9	...........
	67	0.906667	9.73553E-001	1.02070E-004	0.00000E+000	9.93706E-005	5.99601E-002	9.73886E-001	3.57700E+000	9	...........
	68	0.92	9.77748E-001	1.01341E-004	0.00000E+000	9.90858E-005	5.99601E-002	9.78063E-001	3.57700E+000	9	...........
	69	0.933333	9.81864E-001	1.01220E-004	0.00000E+000	9.93843E-005	5.99601E-002	9.82156E-001	3.57700E+000	9	...........
	70	0.946667	9.85883E-001	1.00284E-004	0.00000E+000	9.88687E-005	5.99601E-002	9.86204E-001	3.57700E+000	9	...........
	71	0.96	9.89815E-001	1.01587E-004	0.00000E+000	1.00552E-004	5.99601E-002	9.90146E-001	3.57700E+000	9	...........
	72	0.97333	9.93674E-001	9.93873E-005	0.00000E+000	9.87585E-005	5.99601E-002	9.94006E-001	3.57700E+000	9	...........
	73	0.98667	9.97471E-001	1.00463E-004	0.00000E+000	1.00208E-004	5.99601E-002	9.97810E-001	3.57700E+000	9	...........
	74	0.99	9.99796E-001	9.85100E-005	0.00000E+000	9.84899E-005	5.99601E-002	1.00016E+000	3.57700E+000	9	...........
STARTTIMEOFFSET	QUANT	1594.921	Start Time Offset (s)
