EXPLAIN
TAG	PWR800_CHARGE
TITLE	LABEL	PWR Cyclic Charge Discharge (Cell) - Charge Step	Test &Identifier
DATE	LABEL	12-7-2017	Date
TIME	LABEL	16:18:21	Time
NOTES	NOTES	2	&Notes...
	supercap test cell
	6M KOH
PSTAT	PSTAT	IFC5000-01520	Potentiostat
CAPACITY	QUANT	1.00000E-003	Capacity (A-hr)
CELLTYPE	SELECTOR	1	&Cell Type
WORKINGCONNECTION	SELECTOR	0	&Working Lead
MAXCHARGETIME	VARIABLEANDUNITS	1.00000E+002	s	1.00000E+002	second(s)	Max &Charge Time
CHARGECURRENT	QUANT	1.00000E-004	&Charge Current (A) 
VOLTAGEFINISH	TWOPARAM	F	1.00000E-003	3.60000E+003	&Voltage Finish	 I (A) < 	Max Time(s)
SAMPLETIME	QUANT	1.00000E-002	Sa&mple Period (s)
CHARGESTOPAT1	MULTIPARAM	4	1.00000E+000	Charge Stop At &1	Voltage > Limit	V
CHARGESTOPAT2	MULTIPARAM	0	0.00000E+000	Charge Stop At &2	None	N/A
AESBHCSELECTOR	TOGGLE	F	Save Both Half Cells
IRCOMP	TOGGLE	F	IR &Measure
EOC	QUANT	0	Open Circuit (V)
SEQUENCER	TOGGLE	TRUE	Run as Sequence
PSTATMODEL	IQUANT	53	Pstat Model
PSTATSECTION	LABEL	IFC5000-01520	Pstat Section
PSTATSERIALNO	LABEL	01520	Pstat Serial Number
CTRLMODE	IQUANT	0	Control Mode
ELECTROMETER	IQUANT	1	RE=0 or CS=1
IESTAB	IQUANT	0	I/E Stability
CASPEED	IQUANT	4	Control Amp Speed
CONVENTION	IQUANT	1	Current Convention
ICHRANGE	IQUANT	2	Ich Range
ICHRANGEMODE	TOGGLE	T	Ich Auto Range
ICHOFFSETENABLE	TOGGLE	F	Ich Offset Enable
ICHOFFSET	QUANT	0	Ich Offset (V)
ICHFILTER	IQUANT	1	Ich Filter
VCHRANGE	IQUANT	2	Vch Range
VCHRANGEMODE	TOGGLE	T	Vch Auto Range
VCHOFFSETENABLE	TOGGLE	F	Vch Offset Enable
VCHOFFSET	QUANT	0	Vch Offset (V)
VCHFILTER	IQUANT	1	Vch Filter
IERANGELOWERLIMIT	IQUANT	9	I/E Range Lower Limit
IERANGEMODE	TOGGLE	F	I/E AutoRange
IERANGE	IQUANT	9	I/E Range
ACHSELECT	IQUANT	1	Ach Select
ACHRANGE	IQUANT	2	Ach Range
ACHOFFSETENABLE	TOGGLE	F	Ach Offset Enable
ACHOFFSET	QUANT	0	Ach Offset (V)
ACHFILTER	IQUANT	1	Ach Filter
CABLEID	IQUANT	14	Cable ID
DCCALDATE	LABEL	5-7-2017	DC Calibration Date
ACCALDATE	LABEL	12/3/2015	AC Calibration Date
FRAMEWORKVERSION	QUANT	7.01	Framework Version
INSTRUMENTVERSION	LABEL	4.00	Instrument Version
CURVE	TABLE	79
	Pt	T	Vf	Im	Vu	Pwr	Sig	Ach	Temp	IERange	Over
	#	s	V	A	V	W	V	V	deg C	#	bits
	0	0.013333	2.60663E-001	1.00961E-004	0.00000E+000	2.63167E-005	5.99601E-002	2.60738E-001	3.57700E+000	9	...........
	1	0.026667	2.83382E-001	1.00289E-004	0.00000E+000	2.84199E-005	5.99601E-002	2.83445E-001	3.57700E+000	9	...........
	2	0.04	3.04582E-001	1.00852E-004	0.00000E+000	3.07178E-005	5.99601E-002	3.04643E-001	3.57700E+000	9	...........
	3	0.053333	3.24656E-001	9.97092E-005	0.00000E+000	3.23712E-005	5.99601E-002	3.24721E-001	3.57700E+000	9	...........
	4	0.066667	3.43826E-001	1.00888E-004	0.00000E+000	3.46878E-005	5.99601E-002	3.43893E-001	3.57700E+000	9	...........
	5	0.08	3.62243E-001	1.01171E-004	0.00000E+000	3.66485E-005	5.99601E-002	3.62317E-001	3.57700E+000	9	...........
	6	0.093333	3.80011E-001	1.00914E-004	0.00000E+000	3.83483E-005	5.99601E-002	3.80089E-001	3.57700E+000	9	...........
	7	0.106667	3.97223E-001	1.01588E-004	0.00000E+000	4.03530E-005	5.99601E-002	3.97303E-001	3.57700E+000	9	...........
	8	0.12	4.13937E-001	1.01065E-004	0.00000E+000	4.18344E-005	5.99601E-002	4.14024E-001	3.57700E+000	9	...........
	9	0.133333	4.30203E-001	1.00847E-004	0.00000E+000	4.33846E-005	5.99601E-002	4.30289E-001	3.57700E+000	9	...........
	10	0.146667	4.46050E-001	1.01112E-004	0.00000E+000	4.51009E-005	5.99601E-002	4.46150E-001	3.57700E+000	9	...........
	11	0.16	4.61531E-001	1.01250E-004	0.00000E+000	4.67301E-005	5.99601E-002	4.61631E-001	3.57700E+000	9	...........
	12	0.173333	4.76665E-001	1.00889E-004	0.00000E+000	4.80900E-005	5.99601E-002	4.76765E-001	3.57700E+000	9	...........
	13	0.186667	4.91462E-001	1.01027E-004	0.00000E+000	4.96510E-005	5.99601E-002	4.91567E-001	3.57700E+000	9	...........
	14	0.2	5.05953E-001	1.01427E-004	0.00000E+000	5.13174E-005	5.99601E-002	5.06059E-001	3.57700E+000	9	...........
	15	0.213333	5.20151E-001	1.01220E-004	0.00000E+000	5.26497E-005	5.99601E-002	5.20265E-001	3.57700E+000	9	...........
	16	0.226667	5.33889E-001	1.00580E-004	0.00000E+000	5.36987E-005	5.99601E-002	5.34100E-001	3.57700E+000	9	...........
	17	0.24	5.47404E-001	1.00227E-004	0.00000E+000	5.48647E-005	5.99601E-002	5.47654E-001	3.57700E+000	9	...........
	18	0.253333	5.60786E-001	1.01756E-004	0.00000E+000	5.70631E-005	5.99601E-002	5.61055E-001	3.57700E+000	9	...........
	19	0.266667	5.73960E-001	1.00588E-004	0.00000E+000	5.77332E-005	5.99601E-002	5.74213E-001	3.57700E+000	9	...........
	20	0.28	5.86835E-001	1.00898E-004	0.00000E+000	5.92105E-005	5.99601E-002	5.87106E-001	3.57700E+000	9	...........
	21	0.293333	5.99517E-001	1.01130E-004	0.00000E+000	6.06294E-005	5.99601E-002	5.99791E-001	3.57700E+000	9	...........
	22	0.306667	6.11938E-001	1.01179E-004	0.00000E+000	6.19154E-005	5.99601E-002	6.12239E-001	3.57700E+000	9	...........
	23	0.32	6.24215E-001	1.01090E-004	0.00000E+000	6.31017E-005	5.99601E-002	6.24436E-001	3.57700E+000	9	...........
	24	0.333333	6.36150E-001	1.00986E-004	0.00000E+000	6.42420E-005	5.99601E-002	6.36424E-001	3.57700E+000	9	...........
	25	0.346667	6.47942E-001	1.00639E-004	0.00000E+000	6.52080E-005	5.99601E-002	6.48189E-001	3.57700E+000	9	...........
	26	0.36	6.59501E-001	1.01212E-004	0.00000E+000	6.67492E-005	5.99601E-002	6.59744E-001	3.57700E+000	9	...........
	27	0.373333	6.70834E-001	1.00639E-004	0.00000E+000	6.75118E-005	5.99601E-002	6.71065E-001	3.57700E+000	9	...........
	28	0.386667	6.81952E-001	1.00795E-004	0.00000E+000	6.87373E-005	5.99601E-002	6.82168E-001	3.57700E+000	9	...........
	29	0.4	6.92851E-001	1.00559E-004	0.00000E+000	6.96727E-005	5.99601E-002	6.93087E-001	3.57700E+000	9	...........
	30	0.413333	7.03519E-001	9.99176E-005	0.00000E+000	7.02939E-005	5.99601E-002	7.03759E-001	3.57700E+000	9	...........
	31	0.426667	7.13998E-001	1.01130E-004	0.00000E+000	7.22069E-005	5.99601E-002	7.14226E-001	3.57700E+000	9	...........
	32	0.44	7.24284E-001	1.01410E-004	0.00000E+000	7.34494E-005	5.99601E-002	7.24491E-001	3.57700E+000	9	...........
	33	0.453333	7.34294E-001	1.01309E-004	0.00000E+000	7.43903E-005	5.99601E-002	7.34548E-001	3.57700E+000	9	...........
	34	0.466667	7.44159E-001	1.01178E-004	0.00000E+000	7.52927E-005	5.99601E-002	7.44394E-001	3.57700E+000	9	...........
	35	0.48	7.53756E-001	1.00694E-004	0.00000E+000	7.58986E-005	5.99601E-002	7.54016E-001	3.57700E+000	9	...........
	36	0.493333	7.63175E-001	1.00463E-004	0.00000E+000	7.66705E-005	5.99601E-002	7.63416E-001	3.57700E+000	9	...........
	37	0.506667	7.72368E-001	1.01576E-004	0.00000E+000	7.84543E-005	5.99601E-002	7.72640E-001	3.57700E+000	9	...........
	38	0.52	7.81371E-001	1.01147E-004	0.00000E+000	7.90334E-005	5.99601E-002	7.81640E-001	3.57700E+000	9	...........
	39	0.533333	7.90153E-001	1.00996E-004	0.00000E+000	7.98023E-005	5.99601E-002	7.90409E-001	3.57700E+000	9	...........
	40	0.546667	7.98715E-001	1.01013E-004	0.00000E+000	8.06804E-005	5.99601E-002	7.98985E-001	3.57700E+000	9	...........
	41	0.56	8.07065E-001	1.00541E-004	0.00000E+000	8.11428E-005	5.99601E-002	8.07362E-001	3.57700E+000	9	...........
	42	0.573333	8.15205E-001	1.02522E-004	0.00000E+000	8.35767E-005	5.99601E-002	8.15521E-001	3.57700E+000	9	...........
	43	0.586667	8.23183E-001	1.01046E-004	0.00000E+000	8.31794E-005	5.99601E-002	8.23476E-001	3.57700E+000	9	...........
	44	0.6	8.30896E-001	1.00340E-004	0.00000E+000	8.33718E-005	5.99601E-002	8.31201E-001	3.57700E+000	9	...........
	45	0.613333	8.38418E-001	1.00772E-004	0.00000E+000	8.44890E-005	5.99601E-002	8.38715E-001	3.57700E+000	9	...........
	46	0.626667	8.45779E-001	1.00531E-004	0.00000E+000	8.50273E-005	5.99601E-002	8.46091E-001	3.57700E+000	9	...........
	47	0.64	8.52905E-001	1.01305E-004	0.00000E+000	8.64039E-005	5.99601E-002	8.53216E-001	3.57700E+000	9	...........
	48	0.653333	8.59837E-001	1.01213E-004	0.00000E+000	8.70264E-005	5.99601E-002	8.60178E-001	3.57700E+000	9	...........
	49	0.666667	8.66565E-001	1.00783E-004	0.00000E+000	8.73354E-005	5.99601E-002	8.66908E-001	3.57700E+000	9	...........
	50	0.68	8.73133E-001	1.01384E-004	0.00000E+000	8.85213E-005	5.99601E-002	8.73504E-001	3.57700E+000	9	...........
	51	0.693333	8.79494E-001	1.01133E-004	0.00000E+000	8.89463E-005	5.99601E-002	8.79843E-001	3.57700E+000	9	...........
	52	0.706667	8.85700E-001	1.00517E-004	0.00000E+000	8.90276E-005	5.99601E-002	8.86044E-001	3.57700E+000	9	...........
	53	0.72	8.91682E-001	1.00550E-004	0.00000E+000	8.96587E-005	5.99601E-002	8.92022E-001	3.57700E+000	9	...........
	54	0.733333	8.97501E-001	1.01467E-004	0.00000E+000	9.10666E-005	5.99601E-002	8.97875E-001	3.57700E+000	9	...........
	55	0.746667	9.03141E-001	1.00386E-004	0.00000E+000	9.06632E-005	5.99601E-002	9.03517E-001	3.57700E+000	9	...........
	56	0.76	9.08610E-001	1.00423E-004	0.00000E+000	9.12453E-005	5.99601E-002	9.08989E-001	3.57700E+000	9	...........
	57	0.773333	9.13944E-001	1.01201E-004	0.00000E+000	9.24923E-005	5.99601E-002	9.14310E-001	3.57700E+000	9	...........
	58	0.786667	9.19132E-001	1.01309E-004	0.00000E+000	9.31160E-005	5.99601E-002	9.19490E-001	3.57700E+000	9	...........
	59	0.8	9.24218E-001	1.00800E-004	0.00000E+000	9.31613E-005	5.99601E-002	9.24514E-001	3.57700E+000	9	...........
	60	0.813333	9.29122E-001	1.01611E-004	0.00000E+000	9.44088E-005	5.99601E-002	9.29435E-001	3.57700E+000	9	...........
	61	0.826667	9.33872E-001	1.00092E-004	0.00000E+000	9.34727E-005	5.99601E-002	9.34214E-001	3.57700E+000	9	...........
	62	0.84	9.38520E-001	1.01132E-004	0.00000E+000	9.49148E-005	5.99601E-002	9.38873E-001	3.57700E+000	9	...........
	63	0.853333	9.43070E-001	1.00685E-004	0.00000E+000	9.49535E-005	5.99601E-002	9.43411E-001	3.57700E+000	9	...........
	64	0.866667	9.47525E-001	1.01030E-004	0.00000E+000	9.57288E-005	5.99601E-002	9.47868E-001	3.57700E+000	9	...........
	65	0.88	9.51890E-001	1.01892E-004	0.00000E+000	9.69899E-005	5.99601E-002	9.52228E-001	3.57700E+000	9	...........
	66	0.893333	9.56111E-001	1.01083E-004	0.00000E+000	9.66470E-005	5.99601E-002	9.56439E-001	3.57700E+000	9	...........
	67	0.906667	9.60266E-001	1.01362E-004	0.00000E+000	9.73342E-005	5.99601E-002	9.60641E-001	3.57738E+000	9	...........
	68	0.92	9.64310E-001	1.01069E-004	0.00000E+000	9.74618E-005	5.99601E-002	9.64688E-001	3.57850E+000	9	...........
	69	0.933333	9.68293E-001	1.00466E-004	0.00000E+000	9.72802E-005	5.99601E-002	9.68690E-001	3.57850E+000	9	...........
	70	0.946667	9.72220E-001	1.01613E-004	0.00000E+000	9.87899E-005	5.99601E-002	9.72610E-001	3.57850E+000	9	...........
	71	0.96	9.76076E-001	1.00851E-004	0.00000E+000	9.84384E-005	5.99601E-002	9.76430E-001	3.57850E+000	9	...........
	72	0.97333	9.79824E-001	1.00724E-004	0.00000E+000	9.86918E-005	5.99601E-002	9.80169E-001	3.57850E+000	9	...........
	73	0.98667	9.83482E-001	1.01789E-004	0.00000E+000	1.00108E-004	5.99601E-002	9.83825E-001	3.57850E+000	9	...........
	74	1	9.87054E-001	1.00156E-004	0.00000E+000	9.88596E-005	5.99601E-002	9.87409E-001	3.57850E+000	9	...........
	75	1.01333	9.90561E-001	1.01733E-004	0.00000E+000	1.00772E-004	5.99601E-002	9.90916E-001	3.57850E+000	9	...........
	76	1.02667	9.93960E-001	1.00585E-004	0.00000E+000	9.99779E-005	5.99601E-002	9.94302E-001	3.57850E+000	9	...........
	77	1.04	9.97304E-001	9.99353E-005	0.00000E+000	9.96659E-005	5.99601E-002	9.97617E-001	3.57850E+000	9	...........
	78	1.04667	9.99723E-001	1.01800E-004	0.00000E+000	1.01772E-004	5.99601E-002	1.00007E+000	3.57850E+000	9	...........
STARTTIMEOFFSET	QUANT	354.84	Start Time Offset (s)
