EXPLAIN
TAG	PWR800_CHARGE
TITLE	LABEL	PWR Cyclic Charge Discharge (Cell) - Charge Step	Test &Identifier
DATE	LABEL	12-7-2017	Date
TIME	LABEL	16:48:35	Time
NOTES	NOTES	2	&Notes...
	supercap test cell
	6M KOH
PSTAT	PSTAT	IFC5000-01520	Potentiostat
CAPACITY	QUANT	1.00000E-003	Capacity (A-hr)
CELLTYPE	SELECTOR	1	&Cell Type
WORKINGCONNECTION	SELECTOR	0	&Working Lead
MAXCHARGETIME	VARIABLEANDUNITS	1.00000E+002	s	1.00000E+002	second(s)	Max &Charge Time
CHARGECURRENT	QUANT	1.00000E-004	&Charge Current (A) 
VOLTAGEFINISH	TWOPARAM	F	1.00000E-003	3.60000E+003	&Voltage Finish	 I (A) < 	Max Time(s)
SAMPLETIME	QUANT	1.00000E-002	Sa&mple Period (s)
CHARGESTOPAT1	MULTIPARAM	4	1.00000E+000	Charge Stop At &1	Voltage > Limit	V
CHARGESTOPAT2	MULTIPARAM	0	0.00000E+000	Charge Stop At &2	None	N/A
AESBHCSELECTOR	TOGGLE	F	Save Both Half Cells
IRCOMP	TOGGLE	F	IR &Measure
EOC	QUANT	0	Open Circuit (V)
SEQUENCER	TOGGLE	TRUE	Run as Sequence
PSTATMODEL	IQUANT	53	Pstat Model
PSTATSECTION	LABEL	IFC5000-01520	Pstat Section
PSTATSERIALNO	LABEL	01520	Pstat Serial Number
CTRLMODE	IQUANT	0	Control Mode
ELECTROMETER	IQUANT	1	RE=0 or CS=1
IESTAB	IQUANT	0	I/E Stability
CASPEED	IQUANT	4	Control Amp Speed
CONVENTION	IQUANT	1	Current Convention
ICHRANGE	IQUANT	2	Ich Range
ICHRANGEMODE	TOGGLE	T	Ich Auto Range
ICHOFFSETENABLE	TOGGLE	F	Ich Offset Enable
ICHOFFSET	QUANT	0	Ich Offset (V)
ICHFILTER	IQUANT	1	Ich Filter
VCHRANGE	IQUANT	2	Vch Range
VCHRANGEMODE	TOGGLE	T	Vch Auto Range
VCHOFFSETENABLE	TOGGLE	F	Vch Offset Enable
VCHOFFSET	QUANT	0	Vch Offset (V)
VCHFILTER	IQUANT	1	Vch Filter
IERANGELOWERLIMIT	IQUANT	9	I/E Range Lower Limit
IERANGEMODE	TOGGLE	F	I/E AutoRange
IERANGE	IQUANT	9	I/E Range
ACHSELECT	IQUANT	1	Ach Select
ACHRANGE	IQUANT	2	Ach Range
ACHOFFSETENABLE	TOGGLE	F	Ach Offset Enable
ACHOFFSET	QUANT	0	Ach Offset (V)
ACHFILTER	IQUANT	1	Ach Filter
CABLEID	IQUANT	14	Cable ID
DCCALDATE	LABEL	5-7-2017	DC Calibration Date
ACCALDATE	LABEL	12/3/2015	AC Calibration Date
FRAMEWORKVERSION	QUANT	7.01	Framework Version
INSTRUMENTVERSION	LABEL	4.00	Instrument Version
CURVE	TABLE	75
	Pt	T	Vf	Im	Vu	Pwr	Sig	Ach	Temp	IERange	Over
	#	s	V	A	V	W	V	V	deg C	#	bits
	0	0.013333	2.59115E-001	9.97353E-005	0.00000E+000	2.58429E-005	5.99601E-002	2.59199E-001	3.57680E+000	9	...........
	1	0.026667	2.82184E-001	1.00833E-004	0.00000E+000	2.84536E-005	5.99601E-002	2.82242E-001	3.57680E+000	9	...........
	2	0.04	3.04000E-001	1.00665E-004	0.00000E+000	3.06020E-005	5.99601E-002	3.04053E-001	3.57680E+000	9	...........
	3	0.053333	3.24914E-001	1.02834E-004	0.00000E+000	3.34122E-005	5.99601E-002	3.24974E-001	3.57680E+000	9	...........
	4	0.066667	3.45108E-001	1.01760E-004	0.00000E+000	3.51180E-005	5.99601E-002	3.45173E-001	3.57680E+000	9	...........
	5	0.08	3.64689E-001	1.00676E-004	0.00000E+000	3.67155E-005	5.99601E-002	3.64762E-001	3.57680E+000	9	...........
	6	0.093333	3.83767E-001	1.01990E-004	0.00000E+000	3.91404E-005	5.99601E-002	3.83837E-001	3.57680E+000	9	...........
	7	0.106667	4.02374E-001	1.01984E-004	0.00000E+000	4.10356E-005	5.99601E-002	4.02447E-001	3.57680E+000	9	...........
	8	0.12	4.20536E-001	1.00775E-004	0.00000E+000	4.23796E-005	5.99601E-002	4.20623E-001	3.57680E+000	9	...........
	9	0.133333	4.38288E-001	1.00479E-004	0.00000E+000	4.40388E-005	5.99601E-002	4.38374E-001	3.57680E+000	9	...........
	10	0.146667	4.55637E-001	1.00560E-004	0.00000E+000	4.58191E-005	5.99601E-002	4.55733E-001	3.57680E+000	9	...........
	11	0.16	4.72611E-001	1.00228E-004	0.00000E+000	4.73689E-005	5.99601E-002	4.72708E-001	3.57680E+000	9	...........
	12	0.173333	4.89225E-001	1.00348E-004	0.00000E+000	4.90927E-005	5.99601E-002	4.89322E-001	3.57680E+000	9	...........
	13	0.186667	5.05476E-001	1.01130E-004	0.00000E+000	5.11190E-005	5.99601E-002	5.05581E-001	3.57680E+000	9	...........
	14	0.2	5.21368E-001	1.00221E-004	0.00000E+000	5.22519E-005	5.99601E-002	5.21476E-001	3.57810E+000	9	...........
	15	0.213333	5.36737E-001	1.01427E-004	0.00000E+000	5.44398E-005	5.99601E-002	5.36906E-001	3.57810E+000	9	...........
	16	0.226667	5.51832E-001	1.00273E-004	0.00000E+000	5.53338E-005	5.99601E-002	5.52040E-001	3.57810E+000	9	...........
	17	0.24	5.66701E-001	1.00106E-004	0.00000E+000	5.67303E-005	5.99601E-002	5.66913E-001	3.57810E+000	9	...........
	18	0.253333	5.81224E-001	1.01456E-004	0.00000E+000	5.89689E-005	5.99601E-002	5.81451E-001	3.57810E+000	9	...........
	19	0.266667	5.95446E-001	9.94832E-005	0.00000E+000	5.92369E-005	5.99601E-002	5.95663E-001	3.57810E+000	9	...........
	20	0.28	6.09273E-001	1.02126E-004	0.00000E+000	6.22228E-005	5.99601E-002	6.09541E-001	3.57810E+000	9	...........
	21	0.293333	6.22853E-001	1.02198E-004	0.00000E+000	6.36545E-005	5.99601E-002	6.23072E-001	3.57810E+000	9	...........
	22	0.306667	6.36054E-001	1.01927E-004	0.00000E+000	6.48313E-005	5.99601E-002	6.36301E-001	3.57810E+000	9	...........
	23	0.32	6.48951E-001	1.01508E-004	0.00000E+000	6.58734E-005	5.99601E-002	6.49199E-001	3.57810E+000	9	...........
	24	0.333333	6.61531E-001	1.02603E-004	0.00000E+000	6.78748E-005	5.99601E-002	6.61772E-001	3.57810E+000	9	...........
	25	0.346667	6.73813E-001	1.00241E-004	0.00000E+000	6.75434E-005	5.99601E-002	6.74065E-001	3.57810E+000	9	...........
	26	0.36	6.85735E-001	9.92727E-005	0.00000E+000	6.80747E-005	5.99601E-002	6.85979E-001	3.57810E+000	9	...........
	27	0.373333	6.97398E-001	1.01310E-004	0.00000E+000	7.06531E-005	5.99601E-002	6.97635E-001	3.57810E+000	9	...........
	28	0.386667	7.08711E-001	1.02090E-004	0.00000E+000	7.23523E-005	5.99601E-002	7.08974E-001	3.57810E+000	9	...........
	29	0.4	7.19767E-001	1.02717E-004	0.00000E+000	7.39325E-005	5.99601E-002	7.20033E-001	3.57810E+000	9	...........
	30	0.413333	7.30510E-001	1.00631E-004	0.00000E+000	7.35122E-005	5.99601E-002	7.30751E-001	3.57810E+000	9	...........
	31	0.426667	7.40950E-001	1.01584E-004	0.00000E+000	7.52684E-005	5.99601E-002	7.41211E-001	3.57810E+000	9	...........
	32	0.44	7.51154E-001	1.01728E-004	0.00000E+000	7.64137E-005	5.99601E-002	7.51366E-001	3.57810E+000	9	...........
	33	0.453333	7.61008E-001	1.00583E-004	0.00000E+000	7.65447E-005	5.99601E-002	7.61239E-001	3.57810E+000	9	...........
	34	0.466667	7.70602E-001	1.00825E-004	0.00000E+000	7.76961E-005	5.99601E-002	7.70857E-001	3.57810E+000	9	...........
	35	0.48	7.79917E-001	1.00564E-004	0.00000E+000	7.84313E-005	5.99601E-002	7.80180E-001	3.57810E+000	9	...........
	36	0.493333	7.88966E-001	1.00699E-004	0.00000E+000	7.94481E-005	5.99601E-002	7.89235E-001	3.57810E+000	9	...........
	37	0.506667	7.97764E-001	1.01434E-004	0.00000E+000	8.09200E-005	5.99601E-002	7.98021E-001	3.57810E+000	9	...........
	38	0.52	8.06268E-001	1.00440E-004	0.00000E+000	8.09813E-005	5.99601E-002	8.06531E-001	3.57810E+000	9	...........
	39	0.533333	8.14499E-001	1.01501E-004	0.00000E+000	8.26727E-005	5.99601E-002	8.14785E-001	3.57810E+000	9	...........
	40	0.546667	8.22519E-001	1.01143E-004	0.00000E+000	8.31920E-005	5.99601E-002	8.22826E-001	3.57810E+000	9	...........
	41	0.56	8.30262E-001	1.00764E-004	0.00000E+000	8.36602E-005	5.99601E-002	8.30551E-001	3.57810E+000	9	...........
	42	0.573333	8.37741E-001	1.01452E-004	0.00000E+000	8.49908E-005	5.99601E-002	8.38045E-001	3.57810E+000	9	...........
	43	0.586667	8.45019E-001	1.00172E-004	0.00000E+000	8.46471E-005	5.99601E-002	8.45332E-001	3.57810E+000	9	...........
	44	0.6	8.52059E-001	1.00797E-004	0.00000E+000	8.58849E-005	5.99601E-002	8.52378E-001	3.57810E+000	9	...........
	45	0.613333	8.58908E-001	1.01087E-004	0.00000E+000	8.68241E-005	5.99601E-002	8.59208E-001	3.57810E+000	9	...........
	46	0.626667	8.65481E-001	1.00382E-004	0.00000E+000	8.68790E-005	5.99601E-002	8.65804E-001	3.57810E+000	9	...........
	47	0.64	8.71947E-001	1.00110E-004	0.00000E+000	8.72910E-005	5.99601E-002	8.72249E-001	3.57810E+000	9	...........
	48	0.653333	8.78152E-001	1.00854E-004	0.00000E+000	8.85654E-005	5.99601E-002	8.78477E-001	3.57810E+000	9	...........
	49	0.666667	8.84227E-001	9.95946E-005	0.00000E+000	8.80643E-005	5.99601E-002	8.84531E-001	3.57810E+000	9	...........
	50	0.68	8.90123E-001	1.01321E-004	0.00000E+000	9.01882E-005	5.99601E-002	8.90426E-001	3.57810E+000	9	...........
	51	0.693333	8.95856E-001	1.00026E-004	0.00000E+000	8.96089E-005	5.99601E-002	8.96175E-001	3.57810E+000	9	...........
	52	0.706667	9.01458E-001	1.01213E-004	0.00000E+000	9.12390E-005	5.99601E-002	9.01793E-001	3.57810E+000	9	...........
	53	0.72	9.06910E-001	1.00564E-004	0.00000E+000	9.12022E-005	5.99601E-002	9.07272E-001	3.57810E+000	9	...........
	54	0.733333	9.12289E-001	1.00825E-004	0.00000E+000	9.19816E-005	5.99601E-002	9.12614E-001	3.57810E+000	9	...........
	55	0.746667	9.17518E-001	1.00684E-004	0.00000E+000	9.23798E-005	5.99601E-002	9.17849E-001	3.57810E+000	9	...........
	56	0.76	9.22715E-001	1.02106E-004	0.00000E+000	9.42143E-005	5.99601E-002	9.23005E-001	3.57810E+000	9	...........
	57	0.773333	9.27764E-001	1.00950E-004	0.00000E+000	9.36579E-005	5.99601E-002	9.28054E-001	3.57810E+000	9	...........
	58	0.786667	9.32722E-001	1.01648E-004	0.00000E+000	9.48095E-005	5.99601E-002	9.33019E-001	3.57810E+000	9	...........
	59	0.8	9.37575E-001	9.97915E-005	0.00000E+000	9.35621E-005	5.99601E-002	9.37912E-001	3.57810E+000	9	...........
	60	0.813333	9.42357E-001	1.01809E-004	0.00000E+000	9.59401E-005	5.99601E-002	9.42690E-001	3.57810E+000	9	...........
	61	0.826667	9.47106E-001	1.02773E-004	0.00000E+000	9.73374E-005	5.99601E-002	9.47430E-001	3.57810E+000	9	...........
	62	0.84	9.51746E-001	1.00050E-004	0.00000E+000	9.52221E-005	5.99601E-002	9.52084E-001	3.57810E+000	9	...........
	63	0.853333	9.56325E-001	1.01797E-004	0.00000E+000	9.73512E-005	5.99601E-002	9.56636E-001	3.57810E+000	9	...........
	64	0.866667	9.60807E-001	1.00695E-004	0.00000E+000	9.67483E-005	5.99601E-002	9.61136E-001	3.57810E+000	9	...........
	65	0.88	9.65212E-001	1.00577E-004	0.00000E+000	9.70782E-005	5.99601E-002	9.65565E-001	3.57810E+000	9	...........
	66	0.893333	9.69555E-001	1.00404E-004	0.00000E+000	9.73474E-005	5.99601E-002	9.69913E-001	3.57810E+000	9	...........
	67	0.906667	9.73864E-001	1.01799E-004	0.00000E+000	9.91386E-005	5.99601E-002	9.74194E-001	3.57810E+000	9	...........
	68	0.92	9.78062E-001	1.00780E-004	0.00000E+000	9.85693E-005	5.99601E-002	9.78380E-001	3.57810E+000	9	...........
	69	0.933333	9.82158E-001	1.01937E-004	0.00000E+000	1.00118E-004	5.99601E-002	9.82489E-001	3.57810E+000	9	...........
	70	0.946667	9.86193E-001	1.00779E-004	0.00000E+000	9.93878E-005	5.99601E-002	9.86530E-001	3.57810E+000	9	...........
	71	0.96	9.90137E-001	1.00357E-004	0.00000E+000	9.93675E-005	5.99601E-002	9.90480E-001	3.57810E+000	9	...........
	72	0.97333	9.93975E-001	1.01144E-004	0.00000E+000	1.00535E-004	5.99601E-002	9.94326E-001	3.57810E+000	9	...........
	73	0.98667	9.97784E-001	1.02015E-004	0.00000E+000	1.01789E-004	5.99601E-002	9.98142E-001	3.57810E+000	9	...........
	74	0.99	1.00010E+000	1.00506E-004	0.00000E+000	1.00516E-004	5.99601E-002	1.00050E+000	3.57810E+000	9	...........
STARTTIMEOFFSET	QUANT	1642.978	Start Time Offset (s)
