EXPLAIN
TAG	PWR800_CHARGE
TITLE	LABEL	PWR Cyclic Charge Discharge (Cell) - Charge Step	Test &Identifier
DATE	LABEL	12-7-2017	Date
TIME	LABEL	16:15:13	Time
NOTES	NOTES	2	&Notes...
	supercap test cell
	6M KOH
PSTAT	PSTAT	IFC5000-01520	Potentiostat
CAPACITY	QUANT	1.00000E-003	Capacity (A-hr)
CELLTYPE	SELECTOR	1	&Cell Type
WORKINGCONNECTION	SELECTOR	0	&Working Lead
MAXCHARGETIME	VARIABLEANDUNITS	1.00000E+002	s	1.00000E+002	second(s)	Max &Charge Time
CHARGECURRENT	QUANT	1.00000E-004	&Charge Current (A) 
VOLTAGEFINISH	TWOPARAM	F	1.00000E-003	3.60000E+003	&Voltage Finish	 I (A) < 	Max Time(s)
SAMPLETIME	QUANT	1.00000E-002	Sa&mple Period (s)
CHARGESTOPAT1	MULTIPARAM	4	1.00000E+000	Charge Stop At &1	Voltage > Limit	V
CHARGESTOPAT2	MULTIPARAM	0	0.00000E+000	Charge Stop At &2	None	N/A
AESBHCSELECTOR	TOGGLE	F	Save Both Half Cells
IRCOMP	TOGGLE	F	IR &Measure
EOC	QUANT	0	Open Circuit (V)
SEQUENCER	TOGGLE	TRUE	Run as Sequence
PSTATMODEL	IQUANT	53	Pstat Model
PSTATSECTION	LABEL	IFC5000-01520	Pstat Section
PSTATSERIALNO	LABEL	01520	Pstat Serial Number
CTRLMODE	IQUANT	0	Control Mode
ELECTROMETER	IQUANT	1	RE=0 or CS=1
IESTAB	IQUANT	0	I/E Stability
CASPEED	IQUANT	4	Control Amp Speed
CONVENTION	IQUANT	1	Current Convention
ICHRANGE	IQUANT	2	Ich Range
ICHRANGEMODE	TOGGLE	T	Ich Auto Range
ICHOFFSETENABLE	TOGGLE	F	Ich Offset Enable
ICHOFFSET	QUANT	0	Ich Offset (V)
ICHFILTER	IQUANT	1	Ich Filter
VCHRANGE	IQUANT	2	Vch Range
VCHRANGEMODE	TOGGLE	T	Vch Auto Range
VCHOFFSETENABLE	TOGGLE	F	Vch Offset Enable
VCHOFFSET	QUANT	0	Vch Offset (V)
VCHFILTER	IQUANT	1	Vch Filter
IERANGELOWERLIMIT	IQUANT	9	I/E Range Lower Limit
IERANGEMODE	TOGGLE	F	I/E AutoRange
IERANGE	IQUANT	9	I/E Range
ACHSELECT	IQUANT	1	Ach Select
ACHRANGE	IQUANT	2	Ach Range
ACHOFFSETENABLE	TOGGLE	F	Ach Offset Enable
ACHOFFSET	QUANT	0	Ach Offset (V)
ACHFILTER	IQUANT	1	Ach Filter
CABLEID	IQUANT	14	Cable ID
DCCALDATE	LABEL	5-7-2017	DC Calibration Date
ACCALDATE	LABEL	12/3/2015	AC Calibration Date
FRAMEWORKVERSION	QUANT	7.01	Framework Version
INSTRUMENTVERSION	LABEL	4.00	Instrument Version
CURVE	TABLE	80
	Pt	T	Vf	Im	Vu	Pwr	Sig	Ach	Temp	IERange	Over
	#	s	V	A	V	W	V	V	deg C	#	bits
	0	0.013333	2.60687E-001	1.00050E-004	0.00000E+000	2.60817E-005	5.99601E-002	2.60771E-001	3.57720E+000	9	...........
	1	0.026667	2.83426E-001	1.01465E-004	0.00000E+000	2.87577E-005	5.99601E-002	2.83490E-001	3.57720E+000	9	...........
	2	0.04	3.04559E-001	1.00214E-004	0.00000E+000	3.05209E-005	5.99601E-002	3.04621E-001	3.57720E+000	9	...........
	3	0.053333	3.24485E-001	1.00919E-004	0.00000E+000	3.27467E-005	5.99601E-002	3.24551E-001	3.57720E+000	9	...........
	4	0.066667	3.43429E-001	1.00710E-004	0.00000E+000	3.45869E-005	5.99601E-002	3.43503E-001	3.57720E+000	9	...........
	5	0.08	3.61551E-001	1.00564E-004	0.00000E+000	3.63589E-005	5.99601E-002	3.61625E-001	3.57720E+000	9	...........
	6	0.093333	3.78969E-001	1.01032E-004	0.00000E+000	3.82882E-005	5.99601E-002	3.79046E-001	3.57720E+000	9	...........
	7	0.106667	3.95785E-001	1.01165E-004	0.00000E+000	4.00395E-005	5.99601E-002	3.95862E-001	3.57720E+000	9	...........
	8	0.12	4.12060E-001	1.01301E-004	0.00000E+000	4.17421E-005	5.99601E-002	4.12144E-001	3.57720E+000	9	...........
	9	0.133333	4.27860E-001	1.00653E-004	0.00000E+000	4.30655E-005	5.99601E-002	4.27951E-001	3.57720E+000	9	...........
	10	0.146667	4.43234E-001	1.01030E-004	0.00000E+000	4.47801E-005	5.99601E-002	4.43320E-001	3.57720E+000	9	...........
	11	0.16	4.58226E-001	1.01403E-004	0.00000E+000	4.64656E-005	5.99601E-002	4.58318E-001	3.57720E+000	9	...........
	12	0.173333	4.72860E-001	1.00300E-004	0.00000E+000	4.74279E-005	5.99601E-002	4.72957E-001	3.57720E+000	9	...........
	13	0.186667	4.87167E-001	1.00938E-004	0.00000E+000	4.91734E-005	5.99601E-002	4.87265E-001	3.57720E+000	9	...........
	14	0.2	5.01162E-001	1.00894E-004	0.00000E+000	5.05642E-005	5.99601E-002	5.01271E-001	3.57720E+000	9	...........
	15	0.213333	5.14883E-001	1.01408E-004	0.00000E+000	5.22130E-005	5.99601E-002	5.14993E-001	3.57720E+000	9	...........
	16	0.226667	5.28329E-001	1.00468E-004	0.00000E+000	5.30800E-005	5.99601E-002	5.28415E-001	3.57720E+000	9	...........
	17	0.24	5.41213E-001	1.00185E-004	0.00000E+000	5.42216E-005	5.99601E-002	5.41444E-001	3.57720E+000	9	...........
	18	0.253333	5.54170E-001	1.00854E-004	0.00000E+000	5.58904E-005	5.99601E-002	5.54395E-001	3.57720E+000	9	...........
	19	0.266667	5.66917E-001	1.01347E-004	0.00000E+000	5.74554E-005	5.99601E-002	5.67168E-001	3.57720E+000	9	...........
	20	0.28	5.79376E-001	9.97270E-005	0.00000E+000	5.77794E-005	5.99601E-002	5.79642E-001	3.57720E+000	9	...........
	21	0.293333	5.91659E-001	1.00578E-004	0.00000E+000	5.95080E-005	5.99601E-002	5.91940E-001	3.57720E+000	9	...........
	22	0.306667	6.03688E-001	1.00694E-004	0.00000E+000	6.07877E-005	5.99601E-002	6.04002E-001	3.57720E+000	9	...........
	23	0.32	6.15603E-001	1.00217E-004	0.00000E+000	6.16936E-005	5.99601E-002	6.15857E-001	3.57720E+000	9	...........
	24	0.333333	6.27278E-001	1.00707E-004	0.00000E+000	6.31715E-005	5.99601E-002	6.27524E-001	3.57720E+000	9	...........
	25	0.346667	6.38725E-001	1.00334E-004	0.00000E+000	6.40861E-005	5.99601E-002	6.39002E-001	3.57720E+000	9	...........
	26	0.36	6.50034E-001	1.00906E-004	0.00000E+000	6.55926E-005	5.99601E-002	6.50282E-001	3.57720E+000	9	...........
	27	0.373333	6.61105E-001	1.00521E-004	0.00000E+000	6.64548E-005	5.99601E-002	6.61368E-001	3.57720E+000	9	...........
	28	0.386667	6.72020E-001	1.01530E-004	0.00000E+000	6.82305E-005	5.99601E-002	6.72294E-001	3.57720E+000	9	...........
	29	0.4	6.82735E-001	1.01082E-004	0.00000E+000	6.90125E-005	5.99601E-002	6.82978E-001	3.57720E+000	9	...........
	30	0.413333	6.93248E-001	1.01335E-004	0.00000E+000	7.02500E-005	5.99601E-002	6.93523E-001	3.57720E+000	9	...........
	31	0.426667	7.03603E-001	1.00453E-004	0.00000E+000	7.06791E-005	5.99601E-002	7.03875E-001	3.57720E+000	9	...........
	32	0.44	7.13754E-001	1.01523E-004	0.00000E+000	7.24626E-005	5.99601E-002	7.14030E-001	3.57720E+000	9	...........
	33	0.453333	7.23766E-001	1.01421E-004	0.00000E+000	7.34052E-005	5.99601E-002	7.24016E-001	3.57720E+000	9	...........
	34	0.466667	7.33523E-001	1.00870E-004	0.00000E+000	7.39903E-005	5.99601E-002	7.33785E-001	3.57720E+000	9	...........
	35	0.48	7.43127E-001	1.01027E-004	0.00000E+000	7.50761E-005	5.99601E-002	7.43394E-001	3.57720E+000	9	...........
	36	0.493333	7.52542E-001	1.00417E-004	0.00000E+000	7.55678E-005	5.99601E-002	7.52815E-001	3.57720E+000	9	...........
	37	0.506667	7.61782E-001	1.00144E-004	0.00000E+000	7.62876E-005	5.99601E-002	7.62039E-001	3.57720E+000	9	...........
	38	0.52	7.70816E-001	1.00939E-004	0.00000E+000	7.78052E-005	5.99601E-002	7.71100E-001	3.57720E+000	9	...........
	39	0.533333	7.79641E-001	1.00850E-004	0.00000E+000	7.86269E-005	5.99601E-002	7.79951E-001	3.57720E+000	9	...........
	40	0.546667	7.88299E-001	1.00950E-004	0.00000E+000	7.95789E-005	5.99601E-002	7.88590E-001	3.57720E+000	9	...........
	41	0.56	7.96791E-001	1.01446E-004	0.00000E+000	8.08313E-005	5.99601E-002	7.97067E-001	3.57720E+000	9	...........
	42	0.573333	8.05044E-001	1.01277E-004	0.00000E+000	8.15327E-005	5.99601E-002	8.05351E-001	3.57720E+000	9	...........
	43	0.586667	8.13131E-001	1.01185E-004	0.00000E+000	8.22763E-005	5.99601E-002	8.13428E-001	3.57720E+000	9	...........
	44	0.6	8.21046E-001	1.01596E-004	0.00000E+000	8.34151E-005	5.99601E-002	8.21356E-001	3.57720E+000	9	...........
	45	0.613333	8.28760E-001	1.01642E-004	0.00000E+000	8.42368E-005	5.99601E-002	8.29085E-001	3.57720E+000	9	...........
	46	0.626667	8.36276E-001	1.00663E-004	0.00000E+000	8.41816E-005	5.99601E-002	8.36595E-001	3.57720E+000	9	...........
	47	0.64	8.43634E-001	1.01110E-004	0.00000E+000	8.52995E-005	5.99601E-002	8.43960E-001	3.57720E+000	9	...........
	48	0.653333	8.50798E-001	1.00177E-004	0.00000E+000	8.52305E-005	5.99601E-002	8.51126E-001	3.57720E+000	9	...........
	49	0.666667	8.57773E-001	1.00526E-004	0.00000E+000	8.62286E-005	5.99601E-002	8.58107E-001	3.57720E+000	9	...........
	50	0.68	8.64580E-001	1.01527E-004	0.00000E+000	8.77785E-005	5.99601E-002	8.64913E-001	3.57720E+000	9	...........
	51	0.693333	8.71211E-001	1.00340E-004	0.00000E+000	8.74169E-005	5.99601E-002	8.71559E-001	3.57720E+000	9	...........
	52	0.706667	8.77661E-001	1.00949E-004	0.00000E+000	8.85991E-005	5.99601E-002	8.77976E-001	3.57720E+000	9	...........
	53	0.72	8.83946E-001	1.01064E-004	0.00000E+000	8.93348E-005	5.99601E-002	8.84269E-001	3.57720E+000	9	...........
	54	0.733333	8.90020E-001	1.00872E-004	0.00000E+000	8.97781E-005	5.99601E-002	8.90339E-001	3.57720E+000	9	...........
	55	0.746667	8.95931E-001	1.00557E-004	0.00000E+000	9.00925E-005	5.99601E-002	8.96275E-001	3.57720E+000	9	...........
	56	0.76	9.01695E-001	1.00698E-004	0.00000E+000	9.07988E-005	5.99601E-002	9.02040E-001	3.57720E+000	9	...........
	57	0.773333	9.07289E-001	1.00872E-004	0.00000E+000	9.15201E-005	5.99601E-002	9.07628E-001	3.57720E+000	9	...........
	58	0.786667	9.12726E-001	1.01599E-004	0.00000E+000	9.27323E-005	5.99601E-002	9.13068E-001	3.57720E+000	9	...........
	59	0.8	9.17983E-001	1.00750E-004	0.00000E+000	9.24869E-005	5.99601E-002	9.18342E-001	3.57720E+000	9	...........
	60	0.813333	9.23200E-001	9.99697E-005	0.00000E+000	9.22921E-005	5.99601E-002	9.23495E-001	3.57720E+000	9	...........
	61	0.826667	9.28174E-001	1.00311E-004	0.00000E+000	9.31065E-005	5.99601E-002	9.28477E-001	3.57720E+000	9	...........
	62	0.84	9.33015E-001	1.01237E-004	0.00000E+000	9.44553E-005	5.99601E-002	9.33319E-001	3.57720E+000	9	...........
	63	0.853333	9.37735E-001	1.01048E-004	0.00000E+000	9.47564E-005	5.99601E-002	9.38061E-001	3.57720E+000	9	...........
	64	0.866667	9.42317E-001	1.00695E-004	0.00000E+000	9.48865E-005	5.99601E-002	9.42645E-001	3.57720E+000	9	...........
	65	0.88	9.46823E-001	1.00519E-004	0.00000E+000	9.51735E-005	5.99601E-002	9.47135E-001	3.57720E+000	9	...........
	66	0.893333	9.51204E-001	1.00478E-004	0.00000E+000	9.55752E-005	5.99601E-002	9.51511E-001	3.57720E+000	9	...........
	67	0.906667	9.55468E-001	1.01904E-004	0.00000E+000	9.73665E-005	5.99601E-002	9.55756E-001	3.57720E+000	9	...........
	68	0.92	9.59620E-001	1.00927E-004	0.00000E+000	9.68517E-005	5.99601E-002	9.59961E-001	3.57720E+000	9	...........
	69	0.933333	9.63668E-001	1.01017E-004	0.00000E+000	9.73466E-005	5.99601E-002	9.64016E-001	3.57720E+000	9	...........
	70	0.946667	9.67653E-001	1.01071E-004	0.00000E+000	9.78016E-005	5.99601E-002	9.67959E-001	3.57720E+000	9	...........
	71	0.96	9.71534E-001	1.00433E-004	0.00000E+000	9.75744E-005	5.99601E-002	9.71861E-001	3.57720E+000	9	...........
	72	0.97333	9.75376E-001	1.01624E-004	0.00000E+000	9.91218E-005	5.99601E-002	9.75690E-001	3.57720E+000	9	...........
	73	0.98667	9.79101E-001	1.01311E-004	0.00000E+000	9.91933E-005	5.99601E-002	9.79415E-001	3.57720E+000	9	...........
	74	1	9.82735E-001	1.00777E-004	0.00000E+000	9.90372E-005	5.99601E-002	9.83044E-001	3.57745E+000	9	...........
	75	1.01333	9.86263E-001	1.02058E-004	0.00000E+000	1.00656E-004	5.99601E-002	9.86621E-001	3.57770E+000	9	...........
	76	1.02667	9.89713E-001	1.01277E-004	0.00000E+000	1.00235E-004	5.99601E-002	9.90075E-001	3.57770E+000	9	...........
	77	1.04	9.93058E-001	1.00787E-004	0.00000E+000	1.00087E-004	5.99601E-002	9.93447E-001	3.57770E+000	9	...........
	78	1.05333	9.96352E-001	1.01746E-004	0.00000E+000	1.01375E-004	5.99601E-002	9.96734E-001	3.57770E+000	9	...........
	79	1.06333	9.99184E-001	1.00679E-004	0.00000E+000	1.00596E-004	5.99601E-002	9.99549E-001	3.57770E+000	9	...........
STARTTIMEOFFSET	QUANT	220.48	Start Time Offset (s)
