EXPLAIN
TAG	PWR800_CHARGE
TITLE	LABEL	PWR Cyclic Charge Discharge (Cell) - Charge Step	Test &Identifier
DATE	LABEL	12-7-2017	Date
TIME	LABEL	16:26:46	Time
NOTES	NOTES	2	&Notes...
	supercap test cell
	6M KOH
PSTAT	PSTAT	IFC5000-01520	Potentiostat
CAPACITY	QUANT	1.00000E-003	Capacity (A-hr)
CELLTYPE	SELECTOR	1	&Cell Type
WORKINGCONNECTION	SELECTOR	0	&Working Lead
MAXCHARGETIME	VARIABLEANDUNITS	1.00000E+002	s	1.00000E+002	second(s)	Max &Charge Time
CHARGECURRENT	QUANT	1.00000E-004	&Charge Current (A) 
VOLTAGEFINISH	TWOPARAM	F	1.00000E-003	3.60000E+003	&Voltage Finish	 I (A) < 	Max Time(s)
SAMPLETIME	QUANT	1.00000E-002	Sa&mple Period (s)
CHARGESTOPAT1	MULTIPARAM	4	1.00000E+000	Charge Stop At &1	Voltage > Limit	V
CHARGESTOPAT2	MULTIPARAM	0	0.00000E+000	Charge Stop At &2	None	N/A
AESBHCSELECTOR	TOGGLE	F	Save Both Half Cells
IRCOMP	TOGGLE	F	IR &Measure
EOC	QUANT	0	Open Circuit (V)
SEQUENCER	TOGGLE	TRUE	Run as Sequence
PSTATMODEL	IQUANT	53	Pstat Model
PSTATSECTION	LABEL	IFC5000-01520	Pstat Section
PSTATSERIALNO	LABEL	01520	Pstat Serial Number
CTRLMODE	IQUANT	0	Control Mode
ELECTROMETER	IQUANT	1	RE=0 or CS=1
IESTAB	IQUANT	0	I/E Stability
CASPEED	IQUANT	4	Control Amp Speed
CONVENTION	IQUANT	1	Current Convention
ICHRANGE	IQUANT	2	Ich Range
ICHRANGEMODE	TOGGLE	T	Ich Auto Range
ICHOFFSETENABLE	TOGGLE	F	Ich Offset Enable
ICHOFFSET	QUANT	0	Ich Offset (V)
ICHFILTER	IQUANT	1	Ich Filter
VCHRANGE	IQUANT	2	Vch Range
VCHRANGEMODE	TOGGLE	T	Vch Auto Range
VCHOFFSETENABLE	TOGGLE	F	Vch Offset Enable
VCHOFFSET	QUANT	0	Vch Offset (V)
VCHFILTER	IQUANT	1	Vch Filter
IERANGELOWERLIMIT	IQUANT	9	I/E Range Lower Limit
IERANGEMODE	TOGGLE	F	I/E AutoRange
IERANGE	IQUANT	9	I/E Range
ACHSELECT	IQUANT	1	Ach Select
ACHRANGE	IQUANT	2	Ach Range
ACHOFFSETENABLE	TOGGLE	F	Ach Offset Enable
ACHOFFSET	QUANT	0	Ach Offset (V)
ACHFILTER	IQUANT	1	Ach Filter
CABLEID	IQUANT	14	Cable ID
DCCALDATE	LABEL	5-7-2017	DC Calibration Date
ACCALDATE	LABEL	12/3/2015	AC Calibration Date
FRAMEWORKVERSION	QUANT	7.01	Framework Version
INSTRUMENTVERSION	LABEL	4.00	Instrument Version
CURVE	TABLE	77
	Pt	T	Vf	Im	Vu	Pwr	Sig	Ach	Temp	IERange	Over
	#	s	V	A	V	W	V	V	deg C	#	bits
	0	0.013333	2.61874E-001	1.01700E-004	0.00000E+000	2.66326E-005	5.99601E-002	2.61957E-001	3.57680E+000	9	...........
	1	0.026667	2.84652E-001	1.01132E-004	0.00000E+000	2.87876E-005	5.99601E-002	2.84717E-001	3.57680E+000	9	...........
	2	0.04	3.06051E-001	1.00118E-004	0.00000E+000	3.06411E-005	5.99601E-002	3.06116E-001	3.57680E+000	9	...........
	3	0.053333	3.26451E-001	1.00881E-004	0.00000E+000	3.29328E-005	5.99601E-002	3.26521E-001	3.57680E+000	9	...........
	4	0.066667	3.46065E-001	1.01160E-004	0.00000E+000	3.50077E-005	5.99601E-002	3.46130E-001	3.57680E+000	9	...........
	5	0.08	3.65010E-001	1.00724E-004	0.00000E+000	3.67653E-005	5.99601E-002	3.65088E-001	3.57680E+000	9	...........
	6	0.093333	3.83380E-001	1.01860E-004	0.00000E+000	3.90510E-005	5.99601E-002	3.83457E-001	3.57680E+000	9	...........
	7	0.106667	4.01256E-001	1.00939E-004	0.00000E+000	4.05022E-005	5.99601E-002	4.01333E-001	3.57680E+000	9	...........
	8	0.12	4.18657E-001	1.00993E-004	0.00000E+000	4.22813E-005	5.99601E-002	4.18747E-001	3.57680E+000	9	...........
	9	0.133333	4.35640E-001	1.01700E-004	0.00000E+000	4.43047E-005	5.99601E-002	4.35742E-001	3.57680E+000	9	...........
	10	0.146667	4.52233E-001	1.01795E-004	0.00000E+000	4.60351E-005	5.99601E-002	4.52331E-001	3.57680E+000	9	...........
	11	0.16	4.68452E-001	1.01798E-004	0.00000E+000	4.76875E-005	5.99601E-002	4.68545E-001	3.57770E+000	9	...........
	12	0.173333	4.84310E-001	1.01377E-004	0.00000E+000	4.90980E-005	5.99601E-002	4.84414E-001	3.57770E+000	9	...........
	13	0.186667	4.99823E-001	1.01068E-004	0.00000E+000	5.05161E-005	5.99601E-002	4.99937E-001	3.57770E+000	9	...........
	14	0.2	5.15022E-001	1.00927E-004	0.00000E+000	5.19797E-005	5.99601E-002	5.15137E-001	3.57770E+000	9	...........
	15	0.213333	5.29853E-001	1.00797E-004	0.00000E+000	5.34076E-005	5.99601E-002	5.29955E-001	3.57770E+000	9	...........
	16	0.226667	5.44132E-001	1.00863E-004	0.00000E+000	5.48826E-005	5.99601E-002	5.44409E-001	3.57770E+000	9	...........
	17	0.24	5.58419E-001	1.00635E-004	0.00000E+000	5.61968E-005	5.99601E-002	5.58662E-001	3.57770E+000	9	...........
	18	0.253333	5.72432E-001	1.00275E-004	0.00000E+000	5.74006E-005	5.99601E-002	5.72647E-001	3.57770E+000	9	...........
	19	0.266667	5.86107E-001	1.01017E-004	0.00000E+000	5.92066E-005	5.99601E-002	5.86330E-001	3.57770E+000	9	...........
	20	0.28	5.99513E-001	1.01847E-004	0.00000E+000	6.10587E-005	5.99601E-002	5.99762E-001	3.57770E+000	9	...........
	21	0.293333	6.12667E-001	1.01157E-004	0.00000E+000	6.19758E-005	5.99601E-002	6.12887E-001	3.57770E+000	9	...........
	22	0.306667	6.25543E-001	1.00168E-004	0.00000E+000	6.26591E-005	5.99601E-002	6.25773E-001	3.57770E+000	9	...........
	23	0.32	6.38130E-001	1.01865E-004	0.00000E+000	6.50030E-005	5.99601E-002	6.38368E-001	3.57770E+000	9	...........
	24	0.333333	6.50443E-001	1.01499E-004	0.00000E+000	6.60195E-005	5.99601E-002	6.50691E-001	3.57770E+000	9	...........
	25	0.346667	6.62484E-001	1.01728E-004	0.00000E+000	6.73934E-005	5.99601E-002	6.62740E-001	3.57770E+000	9	...........
	26	0.36	6.74297E-001	1.01072E-004	0.00000E+000	6.81526E-005	5.99601E-002	6.74544E-001	3.57770E+000	9	...........
	27	0.373333	6.85785E-001	9.99916E-005	0.00000E+000	6.85727E-005	5.99601E-002	6.86067E-001	3.57770E+000	9	...........
	28	0.386667	6.97060E-001	1.01843E-004	0.00000E+000	7.09907E-005	5.99601E-002	6.97333E-001	3.57770E+000	9	...........
	29	0.4	7.08067E-001	1.00798E-004	0.00000E+000	7.13717E-005	5.99601E-002	7.08340E-001	3.57770E+000	9	...........
	30	0.413333	7.18816E-001	1.01870E-004	0.00000E+000	7.32259E-005	5.99601E-002	7.19105E-001	3.57770E+000	9	...........
	31	0.426667	7.29320E-001	1.00827E-004	0.00000E+000	7.35353E-005	5.99601E-002	7.29590E-001	3.57770E+000	9	...........
	32	0.44	7.39546E-001	1.01217E-004	0.00000E+000	7.48545E-005	5.99601E-002	7.39816E-001	3.57770E+000	9	...........
	33	0.453333	7.49542E-001	1.01630E-004	0.00000E+000	7.61763E-005	5.99601E-002	7.49796E-001	3.57770E+000	9	...........
	34	0.466667	7.59298E-001	1.00427E-004	0.00000E+000	7.62541E-005	5.99601E-002	7.59547E-001	3.57770E+000	9	...........
	35	0.48	7.68776E-001	1.00469E-004	0.00000E+000	7.72379E-005	5.99601E-002	7.69040E-001	3.57770E+000	9	...........
	36	0.493333	7.78008E-001	1.00909E-004	0.00000E+000	7.85084E-005	5.99601E-002	7.78290E-001	3.57770E+000	9	...........
	37	0.506667	7.87004E-001	1.00951E-004	0.00000E+000	7.94489E-005	5.99601E-002	7.87285E-001	3.57770E+000	9	...........
	38	0.52	7.95807E-001	1.01101E-004	0.00000E+000	8.04570E-005	5.99601E-002	7.96046E-001	3.57770E+000	9	...........
	39	0.533333	8.04309E-001	1.02387E-004	0.00000E+000	8.23507E-005	5.99601E-002	8.04592E-001	3.57770E+000	9	...........
	40	0.546667	8.12573E-001	1.02217E-004	0.00000E+000	8.30588E-005	5.99601E-002	8.12877E-001	3.57770E+000	9	...........
	41	0.56	8.20657E-001	1.01589E-004	0.00000E+000	8.33696E-005	5.99601E-002	8.20963E-001	3.57770E+000	9	...........
	42	0.573333	8.28481E-001	1.00946E-004	0.00000E+000	8.36319E-005	5.99601E-002	8.28778E-001	3.57770E+000	9	...........
	43	0.586667	8.36048E-001	1.01089E-004	0.00000E+000	8.45150E-005	5.99601E-002	8.36356E-001	3.57770E+000	9	...........
	44	0.6	8.43422E-001	1.00649E-004	0.00000E+000	8.48896E-005	5.99601E-002	8.43748E-001	3.57770E+000	9	...........
	45	0.613333	8.50595E-001	1.00308E-004	0.00000E+000	8.53217E-005	5.99601E-002	8.50911E-001	3.57770E+000	9	...........
	46	0.626667	8.57506E-001	1.00556E-004	0.00000E+000	8.62276E-005	5.99601E-002	8.57851E-001	3.57770E+000	9	...........
	47	0.64	8.64205E-001	1.00929E-004	0.00000E+000	8.72236E-005	5.99601E-002	8.64541E-001	3.57770E+000	9	...........
	48	0.653333	8.70766E-001	1.01707E-004	0.00000E+000	8.85626E-005	5.99601E-002	8.71086E-001	3.57770E+000	9	...........
	49	0.666667	8.77059E-001	1.01365E-004	0.00000E+000	8.89029E-005	5.99601E-002	8.77378E-001	3.57770E+000	9	...........
	50	0.68	8.83198E-001	1.00494E-004	0.00000E+000	8.87559E-005	5.99601E-002	8.83501E-001	3.57770E+000	9	...........
	51	0.693333	8.89138E-001	1.00723E-004	0.00000E+000	8.95566E-005	5.99601E-002	8.89440E-001	3.57770E+000	9	...........
	52	0.706667	8.94890E-001	1.01636E-004	0.00000E+000	9.09527E-005	5.99601E-002	8.95225E-001	3.57770E+000	9	...........
	53	0.72	9.00486E-001	1.01618E-004	0.00000E+000	9.15055E-005	5.99601E-002	9.00842E-001	3.57770E+000	9	...........
	54	0.733333	9.05922E-001	1.00506E-004	0.00000E+000	9.10509E-005	5.99601E-002	9.06295E-001	3.57770E+000	9	...........
	55	0.746667	9.11242E-001	1.01178E-004	0.00000E+000	9.21979E-005	5.99601E-002	9.11584E-001	3.57770E+000	9	...........
	56	0.76	9.16411E-001	1.01688E-004	0.00000E+000	9.31878E-005	5.99601E-002	9.16768E-001	3.57770E+000	9	...........
	57	0.773333	9.21498E-001	1.00519E-004	0.00000E+000	9.26279E-005	5.99601E-002	9.21837E-001	3.57770E+000	9	...........
	58	0.786667	9.26454E-001	1.01653E-004	0.00000E+000	9.41772E-005	5.99601E-002	9.26768E-001	3.57770E+000	9	...........
	59	0.8	9.31283E-001	1.01232E-004	0.00000E+000	9.42761E-005	5.99601E-002	9.31580E-001	3.57770E+000	9	...........
	60	0.813333	9.35987E-001	1.01567E-004	0.00000E+000	9.50653E-005	5.99601E-002	9.36339E-001	3.57770E+000	9	...........
	61	0.826667	9.40608E-001	1.01358E-004	0.00000E+000	9.53377E-005	5.99601E-002	9.40940E-001	3.57770E+000	9	...........
	62	0.84	9.45140E-001	1.00958E-004	0.00000E+000	9.54198E-005	5.99601E-002	9.45485E-001	3.57770E+000	9	...........
	63	0.853333	9.49637E-001	1.01100E-004	0.00000E+000	9.60085E-005	5.99601E-002	9.49953E-001	3.57770E+000	9	...........
	64	0.866667	9.54018E-001	1.00917E-004	0.00000E+000	9.62764E-005	5.99601E-002	9.54325E-001	3.57770E+000	9	...........
	65	0.88	9.58297E-001	1.01237E-004	0.00000E+000	9.70148E-005	5.99601E-002	9.58629E-001	3.57770E+000	9	...........
	66	0.893333	9.62497E-001	1.01226E-004	0.00000E+000	9.74300E-005	5.99601E-002	9.62834E-001	3.57770E+000	9	...........
	67	0.906667	9.66631E-001	1.00298E-004	0.00000E+000	9.69511E-005	5.99601E-002	9.66974E-001	3.57770E+000	9	...........
	68	0.92	9.70679E-001	1.00612E-004	0.00000E+000	9.76615E-005	5.99601E-002	9.71034E-001	3.57770E+000	9	...........
	69	0.933333	9.74702E-001	1.02485E-004	0.00000E+000	9.98921E-005	5.99601E-002	9.75025E-001	3.57770E+000	9	...........
	70	0.946667	9.78601E-001	1.01268E-004	0.00000E+000	9.91008E-005	5.99601E-002	9.78946E-001	3.57770E+000	9	...........
	71	0.96	9.82412E-001	1.00598E-004	0.00000E+000	9.88287E-005	5.99601E-002	9.82770E-001	3.57770E+000	9	...........
	72	0.97333	9.86157E-001	1.00691E-004	0.00000E+000	9.92969E-005	5.99601E-002	9.86517E-001	3.57770E+000	9	...........
	73	0.98667	9.89829E-001	1.01941E-004	0.00000E+000	1.00904E-004	5.99601E-002	9.90189E-001	3.57770E+000	9	...........
	74	1	9.93397E-001	1.00946E-004	0.00000E+000	1.00279E-004	5.99601E-002	9.93779E-001	3.57770E+000	9	...........
	75	1.01333	9.96911E-001	1.02669E-004	0.00000E+000	1.02352E-004	5.99601E-002	9.97282E-001	3.57770E+000	9	...........
	76	1.02	9.99496E-001	1.01548E-004	0.00000E+000	1.01497E-004	5.99601E-002	9.99877E-001	3.57770E+000	9	...........
STARTTIMEOFFSET	QUANT	714.8197	Start Time Offset (s)
