EXPLAIN
TAG	PWR800_CHARGE
TITLE	LABEL	PWR Cyclic Charge Discharge (Cell) - Charge Step	Test &Identifier
DATE	LABEL	12-7-2017	Date
TIME	LABEL	16:42:50	Time
NOTES	NOTES	2	&Notes...
	supercap test cell
	6M KOH
PSTAT	PSTAT	IFC5000-01520	Potentiostat
CAPACITY	QUANT	1.00000E-003	Capacity (A-hr)
CELLTYPE	SELECTOR	1	&Cell Type
WORKINGCONNECTION	SELECTOR	0	&Working Lead
MAXCHARGETIME	VARIABLEANDUNITS	1.00000E+002	s	1.00000E+002	second(s)	Max &Charge Time
CHARGECURRENT	QUANT	1.00000E-004	&Charge Current (A) 
VOLTAGEFINISH	TWOPARAM	F	1.00000E-003	3.60000E+003	&Voltage Finish	 I (A) < 	Max Time(s)
SAMPLETIME	QUANT	1.00000E-002	Sa&mple Period (s)
CHARGESTOPAT1	MULTIPARAM	4	1.00000E+000	Charge Stop At &1	Voltage > Limit	V
CHARGESTOPAT2	MULTIPARAM	0	0.00000E+000	Charge Stop At &2	None	N/A
AESBHCSELECTOR	TOGGLE	F	Save Both Half Cells
IRCOMP	TOGGLE	F	IR &Measure
EOC	QUANT	0	Open Circuit (V)
SEQUENCER	TOGGLE	TRUE	Run as Sequence
PSTATMODEL	IQUANT	53	Pstat Model
PSTATSECTION	LABEL	IFC5000-01520	Pstat Section
PSTATSERIALNO	LABEL	01520	Pstat Serial Number
CTRLMODE	IQUANT	0	Control Mode
ELECTROMETER	IQUANT	1	RE=0 or CS=1
IESTAB	IQUANT	0	I/E Stability
CASPEED	IQUANT	4	Control Amp Speed
CONVENTION	IQUANT	1	Current Convention
ICHRANGE	IQUANT	2	Ich Range
ICHRANGEMODE	TOGGLE	T	Ich Auto Range
ICHOFFSETENABLE	TOGGLE	F	Ich Offset Enable
ICHOFFSET	QUANT	0	Ich Offset (V)
ICHFILTER	IQUANT	1	Ich Filter
VCHRANGE	IQUANT	2	Vch Range
VCHRANGEMODE	TOGGLE	T	Vch Auto Range
VCHOFFSETENABLE	TOGGLE	F	Vch Offset Enable
VCHOFFSET	QUANT	0	Vch Offset (V)
VCHFILTER	IQUANT	1	Vch Filter
IERANGELOWERLIMIT	IQUANT	9	I/E Range Lower Limit
IERANGEMODE	TOGGLE	F	I/E AutoRange
IERANGE	IQUANT	9	I/E Range
ACHSELECT	IQUANT	1	Ach Select
ACHRANGE	IQUANT	2	Ach Range
ACHOFFSETENABLE	TOGGLE	F	Ach Offset Enable
ACHOFFSET	QUANT	0	Ach Offset (V)
ACHFILTER	IQUANT	1	Ach Filter
CABLEID	IQUANT	14	Cable ID
DCCALDATE	LABEL	5-7-2017	DC Calibration Date
ACCALDATE	LABEL	12/3/2015	AC Calibration Date
FRAMEWORKVERSION	QUANT	7.01	Framework Version
INSTRUMENTVERSION	LABEL	4.00	Instrument Version
CURVE	TABLE	75
	Pt	T	Vf	Im	Vu	Pwr	Sig	Ach	Temp	IERange	Over
	#	s	V	A	V	W	V	V	deg C	#	bits
	0	0.013333	2.58927E-001	1.01342E-004	0.00000E+000	2.62401E-005	5.99601E-002	2.59001E-001	3.57790E+000	9	...........
	1	0.026667	2.81966E-001	1.01277E-004	0.00000E+000	2.85567E-005	5.99601E-002	2.82033E-001	3.57790E+000	9	...........
	2	0.04	3.03737E-001	1.00454E-004	0.00000E+000	3.05116E-005	5.99601E-002	3.03804E-001	3.57790E+000	9	...........
	3	0.053333	3.24599E-001	1.01115E-004	0.00000E+000	3.28218E-005	5.99601E-002	3.24661E-001	3.57790E+000	9	...........
	4	0.066667	3.44717E-001	1.00929E-004	0.00000E+000	3.47920E-005	5.99601E-002	3.44791E-001	3.57790E+000	9	...........
	5	0.08	3.64238E-001	1.00442E-004	0.00000E+000	3.65847E-005	5.99601E-002	3.64313E-001	3.57790E+000	9	...........
	6	0.093333	3.83230E-001	1.00665E-004	0.00000E+000	3.85777E-005	5.99601E-002	3.83307E-001	3.57790E+000	9	...........
	7	0.106667	4.01745E-001	1.00709E-004	0.00000E+000	4.04595E-005	5.99601E-002	4.01829E-001	3.57790E+000	9	...........
	8	0.12	4.19813E-001	1.00965E-004	0.00000E+000	4.23863E-005	5.99601E-002	4.19903E-001	3.57790E+000	9	...........
	9	0.133333	4.37472E-001	9.99530E-005	0.00000E+000	4.37267E-005	5.99601E-002	4.37560E-001	3.57790E+000	9	...........
	10	0.146667	4.54726E-001	9.99708E-005	0.00000E+000	4.54593E-005	5.99601E-002	4.54826E-001	3.57790E+000	9	...........
	11	0.16	4.71604E-001	1.01206E-004	0.00000E+000	4.77294E-005	5.99601E-002	4.71698E-001	3.57790E+000	9	...........
	12	0.173333	4.88116E-001	1.00685E-004	0.00000E+000	4.91462E-005	5.99601E-002	4.88208E-001	3.57790E+000	9	...........
	13	0.186667	5.04257E-001	1.00738E-004	0.00000E+000	5.07976E-005	5.99601E-002	5.04363E-001	3.57790E+000	9	...........
	14	0.2	5.20063E-001	1.00494E-004	0.00000E+000	5.22631E-005	5.99601E-002	5.20172E-001	3.57790E+000	9	...........
	15	0.213333	5.35376E-001	1.01081E-004	0.00000E+000	5.41166E-005	5.99601E-002	5.35495E-001	3.57790E+000	9	...........
	16	0.226667	5.50345E-001	1.01296E-004	0.00000E+000	5.57477E-005	5.99601E-002	5.50556E-001	3.57790E+000	9	...........
	17	0.24	5.65144E-001	1.01249E-004	0.00000E+000	5.72204E-005	5.99601E-002	5.65359E-001	3.57790E+000	9	...........
	18	0.253333	5.79596E-001	1.00706E-004	0.00000E+000	5.83689E-005	5.99601E-002	5.79838E-001	3.57790E+000	9	...........
	19	0.266667	5.93726E-001	1.01580E-004	0.00000E+000	6.03110E-005	5.99601E-002	5.93968E-001	3.57790E+000	9	...........
	20	0.28	6.07510E-001	1.00409E-004	0.00000E+000	6.09997E-005	5.99601E-002	6.07793E-001	3.57790E+000	9	...........
	21	0.293333	6.21070E-001	1.00330E-004	0.00000E+000	6.23121E-005	5.99601E-002	6.21276E-001	3.57790E+000	9	...........
	22	0.306667	6.34221E-001	1.01675E-004	0.00000E+000	6.44846E-005	5.99601E-002	6.34464E-001	3.57790E+000	9	...........
	23	0.32	6.47093E-001	1.01838E-004	0.00000E+000	6.58985E-005	5.99601E-002	6.47306E-001	3.57790E+000	9	...........
	24	0.333333	6.59628E-001	1.01372E-004	0.00000E+000	6.68678E-005	5.99601E-002	6.59845E-001	3.57790E+000	9	...........
	25	0.346667	6.71879E-001	9.98530E-005	0.00000E+000	6.70891E-005	5.99601E-002	6.72094E-001	3.57790E+000	9	...........
	26	0.36	6.83794E-001	1.02306E-004	0.00000E+000	6.99560E-005	5.99601E-002	6.84004E-001	3.57790E+000	9	...........
	27	0.373333	6.95435E-001	1.01895E-004	0.00000E+000	7.08614E-005	5.99601E-002	6.95663E-001	3.57790E+000	9	...........
	28	0.386667	7.06755E-001	1.01570E-004	0.00000E+000	7.17852E-005	5.99601E-002	7.07000E-001	3.57790E+000	9	...........
	29	0.4	7.17823E-001	1.01356E-004	0.00000E+000	7.27560E-005	5.99601E-002	7.18063E-001	3.57790E+000	9	...........
	30	0.413333	7.28569E-001	1.01099E-004	0.00000E+000	7.36577E-005	5.99601E-002	7.28806E-001	3.57764E+000	9	...........
	31	0.426667	7.39020E-001	1.00927E-004	0.00000E+000	7.45872E-005	5.99601E-002	7.39279E-001	3.57760E+000	9	...........
	32	0.44	7.49220E-001	1.00610E-004	0.00000E+000	7.53793E-005	5.99601E-002	7.49459E-001	3.57760E+000	9	...........
	33	0.453333	7.59115E-001	1.00671E-004	0.00000E+000	7.64207E-005	5.99601E-002	7.59375E-001	3.57760E+000	9	...........
	34	0.466667	7.68732E-001	9.97593E-005	0.00000E+000	7.66881E-005	5.99601E-002	7.69016E-001	3.57760E+000	9	...........
	35	0.48	7.78089E-001	1.00177E-004	0.00000E+000	7.79467E-005	5.99601E-002	7.78366E-001	3.57760E+000	9	...........
	36	0.493333	7.87165E-001	1.00404E-004	0.00000E+000	7.90346E-005	5.99601E-002	7.87452E-001	3.57760E+000	9	...........
	37	0.506667	7.96003E-001	1.01894E-004	0.00000E+000	8.11080E-005	5.99601E-002	7.96270E-001	3.57760E+000	9	...........
	38	0.52	8.04540E-001	1.01497E-004	0.00000E+000	8.16585E-005	5.99601E-002	8.04843E-001	3.57760E+000	9	...........
	39	0.533333	8.12828E-001	1.00695E-004	0.00000E+000	8.18476E-005	5.99601E-002	8.13130E-001	3.57760E+000	9	...........
	40	0.546667	8.20900E-001	1.01322E-004	0.00000E+000	8.31753E-005	5.99601E-002	8.21211E-001	3.57760E+000	9	...........
	41	0.56	8.28678E-001	1.01203E-004	0.00000E+000	8.38649E-005	5.99601E-002	8.28987E-001	3.57760E+000	9	...........
	42	0.573333	8.36202E-001	1.00547E-004	0.00000E+000	8.40775E-005	5.99601E-002	8.36541E-001	3.57760E+000	9	...........
	43	0.586667	8.43533E-001	1.00330E-004	0.00000E+000	8.46319E-005	5.99601E-002	8.43873E-001	3.57760E+000	9	...........
	44	0.6	8.50630E-001	1.01980E-004	0.00000E+000	8.67468E-005	5.99601E-002	8.50978E-001	3.57760E+000	9	...........
	45	0.613333	8.57481E-001	1.01396E-004	0.00000E+000	8.69452E-005	5.99601E-002	8.57822E-001	3.57760E+000	9	...........
	46	0.626667	8.64125E-001	1.00929E-004	0.00000E+000	8.72155E-005	5.99601E-002	8.64459E-001	3.57760E+000	9	...........
	47	0.64	8.70593E-001	1.01768E-004	0.00000E+000	8.85985E-005	5.99601E-002	8.70937E-001	3.57760E+000	9	...........
	48	0.653333	8.76863E-001	1.00920E-004	0.00000E+000	8.84929E-005	5.99601E-002	8.77199E-001	3.57760E+000	9	...........
	49	0.666667	8.82935E-001	1.00546E-004	0.00000E+000	8.87755E-005	5.99601E-002	8.83281E-001	3.57760E+000	9	...........
	50	0.68	8.88855E-001	1.01351E-004	0.00000E+000	9.00866E-005	5.99601E-002	8.89189E-001	3.57760E+000	9	...........
	51	0.693333	8.94598E-001	9.99916E-005	0.00000E+000	8.94523E-005	5.99601E-002	8.94935E-001	3.57760E+000	9	...........
	52	0.706667	9.00210E-001	1.00652E-004	0.00000E+000	9.06081E-005	5.99601E-002	9.00567E-001	3.57760E+000	9	...........
	53	0.72	9.05689E-001	1.00541E-004	0.00000E+000	9.10585E-005	5.99601E-002	9.06035E-001	3.57760E+000	9	...........
	54	0.733333	9.11046E-001	1.01001E-004	0.00000E+000	9.20167E-005	5.99601E-002	9.11387E-001	3.57760E+000	9	...........
	55	0.746667	9.16279E-001	1.01048E-004	0.00000E+000	9.25882E-005	5.99601E-002	9.16617E-001	3.57760E+000	9	...........
	56	0.76	9.21446E-001	1.00529E-004	0.00000E+000	9.26322E-005	5.99601E-002	9.21750E-001	3.57760E+000	9	...........
	57	0.773333	9.26500E-001	9.93956E-005	0.00000E+000	9.20901E-005	5.99601E-002	9.26787E-001	3.57760E+000	9	...........
	58	0.786667	9.31433E-001	1.00482E-004	0.00000E+000	9.35926E-005	5.99601E-002	9.31684E-001	3.57760E+000	9	...........
	59	0.8	9.36296E-001	1.02366E-004	0.00000E+000	9.58449E-005	5.99601E-002	9.36548E-001	3.57760E+000	9	...........
	60	0.813333	9.41057E-001	1.00662E-004	0.00000E+000	9.47282E-005	5.99601E-002	9.41299E-001	3.57760E+000	9	...........
	61	0.826667	9.45755E-001	1.01517E-004	0.00000E+000	9.60101E-005	5.99601E-002	9.46023E-001	3.57760E+000	9	...........
	62	0.84	9.50399E-001	1.00893E-004	0.00000E+000	9.58884E-005	5.99601E-002	9.50663E-001	3.57760E+000	9	...........
	63	0.853333	9.54933E-001	1.00720E-004	0.00000E+000	9.61807E-005	5.99601E-002	9.55191E-001	3.57760E+000	9	...........
	64	0.866667	9.59394E-001	1.00994E-004	0.00000E+000	9.68929E-005	5.99601E-002	9.59654E-001	3.57760E+000	9	...........
	65	0.88	9.63755E-001	1.02476E-004	0.00000E+000	9.87622E-005	5.99601E-002	9.64086E-001	3.57760E+000	9	...........
	66	0.893333	9.68076E-001	1.00804E-004	0.00000E+000	9.75861E-005	5.99601E-002	9.68381E-001	3.57760E+000	9	...........
	67	0.906667	9.72312E-001	1.00977E-004	0.00000E+000	9.81814E-005	5.99601E-002	9.72660E-001	3.57760E+000	9	...........
	68	0.92	9.76526E-001	9.95998E-005	0.00000E+000	9.72618E-005	5.99601E-002	9.76815E-001	3.57760E+000	9	...........
	69	0.933333	9.80595E-001	1.00342E-004	0.00000E+000	9.83946E-005	5.99601E-002	9.80886E-001	3.57760E+000	9	...........
	70	0.946667	9.84570E-001	1.00665E-004	0.00000E+000	9.91114E-005	5.99601E-002	9.84910E-001	3.57760E+000	9	...........
	71	0.96	9.88511E-001	1.00265E-004	0.00000E+000	9.91126E-005	5.99601E-002	9.88849E-001	3.57760E+000	9	...........
	72	0.97333	9.92328E-001	1.00813E-004	0.00000E+000	1.00039E-004	5.99601E-002	9.92652E-001	3.57760E+000	9	...........
	73	0.98667	9.96085E-001	1.01437E-004	0.00000E+000	1.01040E-004	5.99601E-002	9.96424E-001	3.57760E+000	9	...........
	74	0.99667	9.99311E-001	1.01750E-004	0.00000E+000	1.01679E-004	5.99601E-002	9.99656E-001	3.57760E+000	9	...........
STARTTIMEOFFSET	QUANT	1398.306	Start Time Offset (s)
