EXPLAIN
TAG	PWR800_CHARGE
TITLE	LABEL	PWR Cyclic Charge Discharge (Cell) - Charge Step	Test &Identifier
DATE	LABEL	12-7-2017	Date
TIME	LABEL	16:36:12	Time
NOTES	NOTES	2	&Notes...
	supercap test cell
	6M KOH
PSTAT	PSTAT	IFC5000-01520	Potentiostat
CAPACITY	QUANT	1.00000E-003	Capacity (A-hr)
CELLTYPE	SELECTOR	1	&Cell Type
WORKINGCONNECTION	SELECTOR	0	&Working Lead
MAXCHARGETIME	VARIABLEANDUNITS	1.00000E+002	s	1.00000E+002	second(s)	Max &Charge Time
CHARGECURRENT	QUANT	1.00000E-004	&Charge Current (A) 
VOLTAGEFINISH	TWOPARAM	F	1.00000E-003	3.60000E+003	&Voltage Finish	 I (A) < 	Max Time(s)
SAMPLETIME	QUANT	1.00000E-002	Sa&mple Period (s)
CHARGESTOPAT1	MULTIPARAM	4	1.00000E+000	Charge Stop At &1	Voltage > Limit	V
CHARGESTOPAT2	MULTIPARAM	0	0.00000E+000	Charge Stop At &2	None	N/A
AESBHCSELECTOR	TOGGLE	F	Save Both Half Cells
IRCOMP	TOGGLE	F	IR &Measure
EOC	QUANT	0	Open Circuit (V)
SEQUENCER	TOGGLE	TRUE	Run as Sequence
PSTATMODEL	IQUANT	53	Pstat Model
PSTATSECTION	LABEL	IFC5000-01520	Pstat Section
PSTATSERIALNO	LABEL	01520	Pstat Serial Number
CTRLMODE	IQUANT	0	Control Mode
ELECTROMETER	IQUANT	1	RE=0 or CS=1
IESTAB	IQUANT	0	I/E Stability
CASPEED	IQUANT	4	Control Amp Speed
CONVENTION	IQUANT	1	Current Convention
ICHRANGE	IQUANT	2	Ich Range
ICHRANGEMODE	TOGGLE	T	Ich Auto Range
ICHOFFSETENABLE	TOGGLE	F	Ich Offset Enable
ICHOFFSET	QUANT	0	Ich Offset (V)
ICHFILTER	IQUANT	1	Ich Filter
VCHRANGE	IQUANT	2	Vch Range
VCHRANGEMODE	TOGGLE	T	Vch Auto Range
VCHOFFSETENABLE	TOGGLE	F	Vch Offset Enable
VCHOFFSET	QUANT	0	Vch Offset (V)
VCHFILTER	IQUANT	1	Vch Filter
IERANGELOWERLIMIT	IQUANT	9	I/E Range Lower Limit
IERANGEMODE	TOGGLE	F	I/E AutoRange
IERANGE	IQUANT	9	I/E Range
ACHSELECT	IQUANT	1	Ach Select
ACHRANGE	IQUANT	2	Ach Range
ACHOFFSETENABLE	TOGGLE	F	Ach Offset Enable
ACHOFFSET	QUANT	0	Ach Offset (V)
ACHFILTER	IQUANT	1	Ach Filter
CABLEID	IQUANT	14	Cable ID
DCCALDATE	LABEL	5-7-2017	DC Calibration Date
ACCALDATE	LABEL	12/3/2015	AC Calibration Date
FRAMEWORKVERSION	QUANT	7.01	Framework Version
INSTRUMENTVERSION	LABEL	4.00	Instrument Version
CURVE	TABLE	76
	Pt	T	Vf	Im	Vu	Pwr	Sig	Ach	Temp	IERange	Over
	#	s	V	A	V	W	V	V	deg C	#	bits
	0	0.013333	2.60439E-001	1.01000E-004	0.00000E+000	2.63044E-005	5.99601E-002	2.60509E-001	3.57670E+000	9	...........
	1	0.026667	2.83321E-001	1.00112E-004	0.00000E+000	2.83640E-005	5.99601E-002	2.83385E-001	3.57670E+000	9	...........
	2	0.04	3.04923E-001	1.00562E-004	0.00000E+000	3.06635E-005	5.99601E-002	3.04988E-001	3.57670E+000	9	...........
	3	0.053333	3.25598E-001	9.94967E-005	0.00000E+000	3.23959E-005	5.99601E-002	3.25660E-001	3.57670E+000	9	...........
	4	0.066667	3.45533E-001	1.01632E-004	0.00000E+000	3.51171E-005	5.99601E-002	3.45601E-001	3.57670E+000	9	...........
	5	0.08	3.64838E-001	1.00002E-004	0.00000E+000	3.64846E-005	5.99601E-002	3.64914E-001	3.57670E+000	9	...........
	6	0.093333	3.83606E-001	1.00324E-004	0.00000E+000	3.84849E-005	5.99601E-002	3.83687E-001	3.57670E+000	9	...........
	7	0.106667	4.01894E-001	9.99447E-005	0.00000E+000	4.01672E-005	5.99601E-002	4.01975E-001	3.57670E+000	9	...........
	8	0.12	4.19738E-001	1.01434E-004	0.00000E+000	4.25755E-005	5.99601E-002	4.19827E-001	3.57670E+000	9	...........
	9	0.133333	4.37165E-001	1.01137E-004	0.00000E+000	4.42134E-005	5.99601E-002	4.37263E-001	3.57722E+000	9	...........
	10	0.146667	4.54208E-001	1.01678E-004	0.00000E+000	4.61832E-005	5.99601E-002	4.54302E-001	3.57740E+000	9	...........
	11	0.16	4.70867E-001	1.01328E-004	0.00000E+000	4.77122E-005	5.99601E-002	4.70965E-001	3.57740E+000	9	...........
	12	0.173333	4.87163E-001	1.01525E-004	0.00000E+000	4.94593E-005	5.99601E-002	4.87265E-001	3.57740E+000	9	...........
	13	0.186667	5.03107E-001	1.00710E-004	0.00000E+000	5.06681E-005	5.99601E-002	5.03216E-001	3.57740E+000	9	...........
	14	0.2	5.18717E-001	1.01458E-004	0.00000E+000	5.26278E-005	5.99601E-002	5.18830E-001	3.57740E+000	9	...........
	15	0.213333	5.33872E-001	1.01371E-004	0.00000E+000	5.41192E-005	5.99601E-002	5.34010E-001	3.57740E+000	9	...........
	16	0.226667	5.48633E-001	1.01060E-004	0.00000E+000	5.54446E-005	5.99601E-002	5.48881E-001	3.57740E+000	9	...........
	17	0.24	5.63260E-001	1.01117E-004	0.00000E+000	5.69550E-005	5.99601E-002	5.63511E-001	3.57740E+000	9	...........
	18	0.253333	5.77566E-001	1.01554E-004	0.00000E+000	5.86544E-005	5.99601E-002	5.77828E-001	3.57740E+000	9	...........
	19	0.266667	5.91563E-001	1.00030E-004	0.00000E+000	5.91741E-005	5.99601E-002	5.91825E-001	3.57740E+000	9	...........
	20	0.28	6.05213E-001	1.01955E-004	0.00000E+000	6.17041E-005	5.99601E-002	6.05502E-001	3.57740E+000	9	...........
	21	0.293333	6.18661E-001	9.95269E-005	0.00000E+000	6.15735E-005	5.99601E-002	6.18882E-001	3.57740E+000	9	...........
	22	0.306667	6.31692E-001	1.00120E-004	0.00000E+000	6.32449E-005	5.99601E-002	6.31943E-001	3.57740E+000	9	...........
	23	0.32	6.44480E-001	1.00954E-004	0.00000E+000	6.50630E-005	5.99601E-002	6.44737E-001	3.57740E+000	9	...........
	24	0.333333	6.56965E-001	1.00882E-004	0.00000E+000	6.62763E-005	5.99601E-002	6.57194E-001	3.57740E+000	9	...........
	25	0.346667	6.69156E-001	1.01019E-004	0.00000E+000	6.75974E-005	5.99601E-002	6.69387E-001	3.57740E+000	9	...........
	26	0.36	6.81009E-001	1.00527E-004	0.00000E+000	6.84599E-005	5.99601E-002	6.81245E-001	3.57740E+000	9	...........
	27	0.373333	6.92606E-001	1.00753E-004	0.00000E+000	6.97823E-005	5.99601E-002	6.92838E-001	3.57740E+000	9	...........
	28	0.386667	7.03898E-001	1.00568E-004	0.00000E+000	7.07894E-005	5.99601E-002	7.04141E-001	3.57740E+000	9	...........
	29	0.4	7.14924E-001	1.00392E-004	0.00000E+000	7.17725E-005	5.99601E-002	7.15166E-001	3.57740E+000	9	...........
	30	0.413333	7.25688E-001	1.02241E-004	0.00000E+000	7.41951E-005	5.99601E-002	7.25935E-001	3.57740E+000	9	...........
	31	0.426667	7.36124E-001	1.00542E-004	0.00000E+000	7.40111E-005	5.99601E-002	7.36370E-001	3.57740E+000	9	...........
	32	0.44	7.46345E-001	1.01632E-004	0.00000E+000	7.58521E-005	5.99601E-002	7.46605E-001	3.57740E+000	9	...........
	33	0.453333	7.56258E-001	1.00988E-004	0.00000E+000	7.63728E-005	5.99601E-002	7.56491E-001	3.57740E+000	9	...........
	34	0.466667	7.65896E-001	1.01380E-004	0.00000E+000	7.76468E-005	5.99601E-002	7.66166E-001	3.57740E+000	9	...........
	35	0.48	7.75274E-001	9.98301E-005	0.00000E+000	7.73957E-005	5.99601E-002	7.75541E-001	3.57740E+000	9	...........
	36	0.493333	7.84393E-001	1.01664E-004	0.00000E+000	7.97443E-005	5.99601E-002	7.84649E-001	3.57740E+000	9	...........
	37	0.506667	7.93275E-001	1.01501E-004	0.00000E+000	8.05184E-005	5.99601E-002	7.93511E-001	3.57740E+000	9	...........
	38	0.52	8.01892E-001	1.00749E-004	0.00000E+000	8.07898E-005	5.99601E-002	8.02121E-001	3.57740E+000	9	...........
	39	0.533333	8.10240E-001	1.01914E-004	0.00000E+000	8.25747E-005	5.99601E-002	8.10490E-001	3.57740E+000	9	...........
	40	0.546667	8.18328E-001	1.00505E-004	0.00000E+000	8.22462E-005	5.99601E-002	8.18631E-001	3.57740E+000	9	...........
	41	0.56	8.26191E-001	1.01172E-004	0.00000E+000	8.35874E-005	5.99601E-002	8.26481E-001	3.57740E+000	9	...........
	42	0.573333	8.33810E-001	1.00382E-004	0.00000E+000	8.36997E-005	5.99601E-002	8.34118E-001	3.57740E+000	9	...........
	43	0.586667	8.41177E-001	1.01278E-004	0.00000E+000	8.51930E-005	5.99601E-002	8.41498E-001	3.57740E+000	9	...........
	44	0.6	8.48352E-001	1.01347E-004	0.00000E+000	8.59780E-005	5.99601E-002	8.48667E-001	3.57740E+000	9	...........
	45	0.613333	8.55244E-001	1.01666E-004	0.00000E+000	8.69491E-005	5.99601E-002	8.55602E-001	3.57740E+000	9	...........
	46	0.626667	8.61964E-001	1.01268E-004	0.00000E+000	8.72893E-005	5.99601E-002	8.62289E-001	3.57740E+000	9	...........
	47	0.64	8.68484E-001	1.00801E-004	0.00000E+000	8.75441E-005	5.99601E-002	8.68811E-001	3.57740E+000	9	...........
	48	0.653333	8.74810E-001	1.01124E-004	0.00000E+000	8.84644E-005	5.99601E-002	8.75102E-001	3.57740E+000	9	...........
	49	0.666667	8.80918E-001	1.00476E-004	0.00000E+000	8.85112E-005	5.99601E-002	8.81247E-001	3.57740E+000	9	...........
	50	0.68	8.86880E-001	1.00748E-004	0.00000E+000	8.93514E-005	5.99601E-002	8.87194E-001	3.57740E+000	9	...........
	51	0.693333	8.92631E-001	1.00389E-004	0.00000E+000	8.96100E-005	5.99601E-002	8.92984E-001	3.57740E+000	9	...........
	52	0.706667	8.98306E-001	1.01639E-004	0.00000E+000	9.13027E-005	5.99601E-002	8.98605E-001	3.57740E+000	9	...........
	53	0.72	9.03768E-001	1.01064E-004	0.00000E+000	9.13381E-005	5.99601E-002	9.04104E-001	3.57740E+000	9	...........
	54	0.733333	9.09139E-001	1.01031E-004	0.00000E+000	9.18516E-005	5.99601E-002	9.09478E-001	3.57740E+000	9	...........
	55	0.746667	9.14359E-001	1.00659E-004	0.00000E+000	9.20389E-005	5.99601E-002	9.14714E-001	3.57740E+000	9	...........
	56	0.76	9.19501E-001	1.00750E-004	0.00000E+000	9.26398E-005	5.99601E-002	9.19849E-001	3.57740E+000	9	...........
	57	0.773333	9.24542E-001	1.01323E-004	0.00000E+000	9.36775E-005	5.99601E-002	9.24880E-001	3.57740E+000	9	...........
	58	0.786667	9.29459E-001	1.01832E-004	0.00000E+000	9.46482E-005	5.99601E-002	9.29799E-001	3.57740E+000	9	...........
	59	0.8	9.34278E-001	1.01122E-004	0.00000E+000	9.44761E-005	5.99601E-002	9.34623E-001	3.57740E+000	9	...........
	60	0.813333	9.38987E-001	1.00443E-004	0.00000E+000	9.43144E-005	5.99601E-002	9.39351E-001	3.57740E+000	9	...........
	61	0.826667	9.43651E-001	1.01884E-004	0.00000E+000	9.61427E-005	5.99601E-002	9.43963E-001	3.57740E+000	9	...........
	62	0.84	9.48272E-001	1.01213E-004	0.00000E+000	9.59771E-005	5.99601E-002	9.48594E-001	3.57740E+000	9	...........
	63	0.853333	9.52780E-001	1.01497E-004	0.00000E+000	9.67044E-005	5.99601E-002	9.53090E-001	3.57740E+000	9	...........
	64	0.866667	9.57198E-001	1.01146E-004	0.00000E+000	9.68167E-005	5.99601E-002	9.57528E-001	3.57740E+000	9	...........
	65	0.88	9.61534E-001	1.01669E-004	0.00000E+000	9.77582E-005	5.99601E-002	9.61890E-001	3.57740E+000	9	...........
	66	0.893333	9.65800E-001	1.01051E-004	0.00000E+000	9.75952E-005	5.99601E-002	9.66160E-001	3.57740E+000	9	...........
	67	0.906667	9.69979E-001	1.00795E-004	0.00000E+000	9.77689E-005	5.99601E-002	9.70371E-001	3.57740E+000	9	...........
	68	0.92	9.74158E-001	1.00464E-004	0.00000E+000	9.78674E-005	5.99601E-002	9.74514E-001	3.57740E+000	9	...........
	69	0.933333	9.78179E-001	1.00859E-004	0.00000E+000	9.86587E-005	5.99601E-002	9.78549E-001	3.57740E+000	9	...........
	70	0.946667	9.82136E-001	9.98499E-005	0.00000E+000	9.80661E-005	5.99601E-002	9.82499E-001	3.57740E+000	9	...........
	71	0.96	9.86016E-001	1.00878E-004	0.00000E+000	9.94675E-005	5.99601E-002	9.86406E-001	3.57740E+000	9	...........
	72	0.97333	9.89814E-001	1.01264E-004	0.00000E+000	1.00232E-004	5.99601E-002	9.90185E-001	3.57740E+000	9	...........
	73	0.98667	9.93541E-001	1.01464E-004	0.00000E+000	1.00808E-004	5.99601E-002	9.93911E-001	3.57740E+000	9	...........
	74	1	9.97185E-001	1.00536E-004	0.00000E+000	1.00253E-004	5.99601E-002	9.97555E-001	3.57740E+000	9	...........
	75	1.005	9.99653E-001	9.97811E-005	0.00000E+000	9.97465E-005	5.99601E-002	1.00003E+000	3.57740E+000	9	...........
STARTTIMEOFFSET	QUANT	1117.439	Start Time Offset (s)
