EXPLAIN
TAG	PWR800_CHARGE
TITLE	LABEL	PWR Cyclic Charge Discharge (Cell) - Charge Step	Test &Identifier
DATE	LABEL	12-7-2017	Date
TIME	LABEL	16:20:46	Time
NOTES	NOTES	2	&Notes...
	supercap test cell
	6M KOH
PSTAT	PSTAT	IFC5000-01520	Potentiostat
CAPACITY	QUANT	1.00000E-003	Capacity (A-hr)
CELLTYPE	SELECTOR	1	&Cell Type
WORKINGCONNECTION	SELECTOR	0	&Working Lead
MAXCHARGETIME	VARIABLEANDUNITS	1.00000E+002	s	1.00000E+002	second(s)	Max &Charge Time
CHARGECURRENT	QUANT	1.00000E-004	&Charge Current (A) 
VOLTAGEFINISH	TWOPARAM	F	1.00000E-003	3.60000E+003	&Voltage Finish	 I (A) < 	Max Time(s)
SAMPLETIME	QUANT	1.00000E-002	Sa&mple Period (s)
CHARGESTOPAT1	MULTIPARAM	4	1.00000E+000	Charge Stop At &1	Voltage > Limit	V
CHARGESTOPAT2	MULTIPARAM	0	0.00000E+000	Charge Stop At &2	None	N/A
AESBHCSELECTOR	TOGGLE	F	Save Both Half Cells
IRCOMP	TOGGLE	F	IR &Measure
EOC	QUANT	0	Open Circuit (V)
SEQUENCER	TOGGLE	TRUE	Run as Sequence
PSTATMODEL	IQUANT	53	Pstat Model
PSTATSECTION	LABEL	IFC5000-01520	Pstat Section
PSTATSERIALNO	LABEL	01520	Pstat Serial Number
CTRLMODE	IQUANT	0	Control Mode
ELECTROMETER	IQUANT	1	RE=0 or CS=1
IESTAB	IQUANT	0	I/E Stability
CASPEED	IQUANT	4	Control Amp Speed
CONVENTION	IQUANT	1	Current Convention
ICHRANGE	IQUANT	2	Ich Range
ICHRANGEMODE	TOGGLE	T	Ich Auto Range
ICHOFFSETENABLE	TOGGLE	F	Ich Offset Enable
ICHOFFSET	QUANT	0	Ich Offset (V)
ICHFILTER	IQUANT	1	Ich Filter
VCHRANGE	IQUANT	2	Vch Range
VCHRANGEMODE	TOGGLE	T	Vch Auto Range
VCHOFFSETENABLE	TOGGLE	F	Vch Offset Enable
VCHOFFSET	QUANT	0	Vch Offset (V)
VCHFILTER	IQUANT	1	Vch Filter
IERANGELOWERLIMIT	IQUANT	9	I/E Range Lower Limit
IERANGEMODE	TOGGLE	F	I/E AutoRange
IERANGE	IQUANT	9	I/E Range
ACHSELECT	IQUANT	1	Ach Select
ACHRANGE	IQUANT	2	Ach Range
ACHOFFSETENABLE	TOGGLE	F	Ach Offset Enable
ACHOFFSET	QUANT	0	Ach Offset (V)
ACHFILTER	IQUANT	1	Ach Filter
CABLEID	IQUANT	14	Cable ID
DCCALDATE	LABEL	5-7-2017	DC Calibration Date
ACCALDATE	LABEL	12/3/2015	AC Calibration Date
FRAMEWORKVERSION	QUANT	7.01	Framework Version
INSTRUMENTVERSION	LABEL	4.00	Instrument Version
CURVE	TABLE	78
	Pt	T	Vf	Im	Vu	Pwr	Sig	Ach	Temp	IERange	Over
	#	s	V	A	V	W	V	V	deg C	#	bits
	0	0.013333	2.62643E-001	1.01231E-004	0.00000E+000	2.65877E-005	5.99601E-002	2.62721E-001	3.57690E+000	9	...........
	1	0.026667	2.85336E-001	1.01535E-004	0.00000E+000	2.89715E-005	5.99601E-002	2.85393E-001	3.57690E+000	9	...........
	2	0.04	3.06558E-001	1.02610E-004	0.00000E+000	3.14559E-005	5.99601E-002	3.06621E-001	3.57690E+000	9	...........
	3	0.053333	3.26702E-001	1.00917E-004	0.00000E+000	3.29697E-005	5.99601E-002	3.26774E-001	3.57690E+000	9	...........
	4	0.066667	3.45989E-001	1.00915E-004	0.00000E+000	3.49153E-005	5.99601E-002	3.46063E-001	3.57690E+000	9	...........
	5	0.08	3.64564E-001	9.98280E-005	0.00000E+000	3.63937E-005	5.99601E-002	3.64642E-001	3.57690E+000	9	...........
	6	0.093333	3.82525E-001	1.01988E-004	0.00000E+000	3.90129E-005	5.99601E-002	3.82604E-001	3.57690E+000	9	...........
	7	0.106667	3.99950E-001	1.01839E-004	0.00000E+000	4.07305E-005	5.99601E-002	4.00032E-001	3.57690E+000	9	...........
	8	0.12	4.16884E-001	1.01535E-004	0.00000E+000	4.23282E-005	5.99601E-002	4.16977E-001	3.57690E+000	9	...........
	9	0.133333	4.33395E-001	1.00508E-004	0.00000E+000	4.35598E-005	5.99601E-002	4.33485E-001	3.57690E+000	9	...........
	10	0.146667	4.49491E-001	1.00737E-004	0.00000E+000	4.52802E-005	5.99601E-002	4.49593E-001	3.57690E+000	9	...........
	11	0.16	4.65221E-001	1.00355E-004	0.00000E+000	4.66873E-005	5.99601E-002	4.65323E-001	3.57690E+000	9	...........
	12	0.173333	4.80600E-001	1.00360E-004	0.00000E+000	4.82332E-005	5.99601E-002	4.80708E-001	3.57690E+000	9	...........
	13	0.186667	4.95653E-001	1.00106E-004	0.00000E+000	4.96179E-005	5.99601E-002	4.95765E-001	3.57690E+000	9	...........
	14	0.2	5.10388E-001	1.00748E-004	0.00000E+000	5.14205E-005	5.99601E-002	5.10500E-001	3.57690E+000	9	...........
	15	0.213333	5.24827E-001	1.01173E-004	0.00000E+000	5.30984E-005	5.99601E-002	5.24943E-001	3.57690E+000	9	...........
	16	0.226667	5.38735E-001	1.01131E-004	0.00000E+000	5.44830E-005	5.99601E-002	5.38924E-001	3.57710E+000	9	...........
	17	0.24	5.52532E-001	1.00710E-004	0.00000E+000	5.56458E-005	5.99601E-002	5.52770E-001	3.57730E+000	9	...........
	18	0.253333	5.66154E-001	1.00328E-004	0.00000E+000	5.68012E-005	5.99601E-002	5.66370E-001	3.57730E+000	9	...........
	19	0.266667	5.79469E-001	1.00137E-004	0.00000E+000	5.80266E-005	5.99601E-002	5.79703E-001	3.57730E+000	9	...........
	20	0.28	5.92570E-001	9.97582E-005	0.00000E+000	5.91138E-005	5.99601E-002	5.92800E-001	3.57730E+000	9	...........
	21	0.293333	6.05375E-001	1.01602E-004	0.00000E+000	6.15075E-005	5.99601E-002	6.05636E-001	3.57730E+000	9	...........
	22	0.306667	6.18011E-001	1.01535E-004	0.00000E+000	6.27495E-005	5.99601E-002	6.18248E-001	3.57730E+000	9	...........
	23	0.32	6.30342E-001	1.01912E-004	0.00000E+000	6.42393E-005	5.99601E-002	6.30599E-001	3.57730E+000	9	...........
	24	0.333333	6.42480E-001	1.00824E-004	0.00000E+000	6.47775E-005	5.99601E-002	6.42737E-001	3.57730E+000	9	...........
	25	0.346667	6.54361E-001	1.01500E-004	0.00000E+000	6.64178E-005	5.99601E-002	6.54609E-001	3.57730E+000	9	...........
	26	0.36	6.66016E-001	1.00007E-004	0.00000E+000	6.66064E-005	5.99601E-002	6.66265E-001	3.57730E+000	9	...........
	27	0.373333	6.77428E-001	1.01295E-004	0.00000E+000	6.86201E-005	5.99601E-002	6.77678E-001	3.57730E+000	9	...........
	28	0.386667	6.88586E-001	1.01213E-004	0.00000E+000	6.96936E-005	5.99601E-002	6.88864E-001	3.57730E+000	9	...........
	29	0.4	6.99530E-001	1.01165E-004	0.00000E+000	7.07678E-005	5.99601E-002	6.99819E-001	3.57730E+000	9	...........
	30	0.413333	7.10230E-001	1.01920E-004	0.00000E+000	7.23867E-005	5.99601E-002	7.10546E-001	3.57730E+000	9	...........
	31	0.426667	7.20764E-001	1.00667E-004	0.00000E+000	7.25570E-005	5.99601E-002	7.21039E-001	3.57730E+000	9	...........
	32	0.44	7.31009E-001	1.01316E-004	0.00000E+000	7.40628E-005	5.99601E-002	7.31296E-001	3.57730E+000	9	...........
	33	0.453333	7.41047E-001	1.00695E-004	0.00000E+000	7.46196E-005	5.99601E-002	7.41326E-001	3.57730E+000	9	...........
	34	0.466667	7.50833E-001	1.01287E-004	0.00000E+000	7.60493E-005	5.99601E-002	7.51116E-001	3.57730E+000	9	...........
	35	0.48	7.60416E-001	1.01512E-004	0.00000E+000	7.71911E-005	5.99601E-002	7.60692E-001	3.57730E+000	9	...........
	36	0.493333	7.69771E-001	1.00681E-004	0.00000E+000	7.75016E-005	5.99601E-002	7.70064E-001	3.57730E+000	9	...........
	37	0.506667	7.78887E-001	1.01114E-004	0.00000E+000	7.87561E-005	5.99601E-002	7.79200E-001	3.57730E+000	9	...........
	38	0.52	7.87781E-001	9.97030E-005	0.00000E+000	7.85442E-005	5.99601E-002	7.88084E-001	3.57730E+000	9	...........
	39	0.533333	7.96473E-001	1.00566E-004	0.00000E+000	8.00979E-005	5.99601E-002	7.96776E-001	3.57730E+000	9	...........
	40	0.546667	8.04913E-001	1.00511E-004	0.00000E+000	8.09030E-005	5.99601E-002	8.05221E-001	3.57730E+000	9	...........
	41	0.56	8.13139E-001	1.00397E-004	0.00000E+000	8.16367E-005	5.99601E-002	8.13482E-001	3.57730E+000	9	...........
	42	0.573333	8.21182E-001	1.00945E-004	0.00000E+000	8.28942E-005	5.99601E-002	8.21541E-001	3.57730E+000	9	...........
	43	0.586667	8.29019E-001	1.01512E-004	0.00000E+000	8.41551E-005	5.99601E-002	8.29358E-001	3.57730E+000	9	...........
	44	0.6	8.36578E-001	1.00424E-004	0.00000E+000	8.40125E-005	5.99601E-002	8.36976E-001	3.57730E+000	9	...........
	45	0.613333	8.43997E-001	1.00191E-004	0.00000E+000	8.45606E-005	5.99601E-002	8.44352E-001	3.57730E+000	9	...........
	46	0.626667	8.51194E-001	1.00585E-004	0.00000E+000	8.56177E-005	5.99601E-002	8.51528E-001	3.57730E+000	9	...........
	47	0.64	8.58170E-001	1.00624E-004	0.00000E+000	8.63525E-005	5.99601E-002	8.58546E-001	3.57730E+000	9	...........
	48	0.653333	8.64951E-001	1.00273E-004	0.00000E+000	8.67312E-005	5.99601E-002	8.65312E-001	3.57730E+000	9	...........
	49	0.666667	8.71562E-001	1.00540E-004	0.00000E+000	8.76265E-005	5.99601E-002	8.71903E-001	3.57730E+000	9	...........
	50	0.68	8.77916E-001	1.01171E-004	0.00000E+000	8.88196E-005	5.99601E-002	8.78267E-001	3.57730E+000	9	...........
	51	0.693333	8.84131E-001	1.00997E-004	0.00000E+000	8.92946E-005	5.99601E-002	8.84456E-001	3.57730E+000	9	...........
	52	0.706667	8.90132E-001	1.01431E-004	0.00000E+000	9.02874E-005	5.99601E-002	8.90452E-001	3.57730E+000	9	...........
	53	0.72	8.95945E-001	1.00085E-004	0.00000E+000	8.96710E-005	5.99601E-002	8.96283E-001	3.57730E+000	9	...........
	54	0.733333	9.01615E-001	1.01621E-004	0.00000E+000	9.16231E-005	5.99601E-002	9.01938E-001	3.57730E+000	9	...........
	55	0.746667	9.07098E-001	1.01386E-004	0.00000E+000	9.19667E-005	5.99601E-002	9.07448E-001	3.57730E+000	9	...........
	56	0.76	9.12451E-001	1.01601E-004	0.00000E+000	9.27062E-005	5.99601E-002	9.12764E-001	3.57730E+000	9	...........
	57	0.773333	9.17651E-001	1.01804E-004	0.00000E+000	9.34209E-005	5.99601E-002	9.17962E-001	3.57730E+000	9	...........
	58	0.786667	9.22716E-001	1.00522E-004	0.00000E+000	9.27532E-005	5.99601E-002	9.23023E-001	3.57730E+000	9	...........
	59	0.8	9.27646E-001	1.00497E-004	0.00000E+000	9.32255E-005	5.99601E-002	9.27955E-001	3.57730E+000	9	...........
	60	0.813333	9.32417E-001	1.00684E-004	0.00000E+000	9.38799E-005	5.99601E-002	9.32750E-001	3.57730E+000	9	...........
	61	0.826667	9.37093E-001	1.00599E-004	0.00000E+000	9.42706E-005	5.99601E-002	9.37443E-001	3.57730E+000	9	...........
	62	0.84	9.41671E-001	1.01099E-004	0.00000E+000	9.52021E-005	5.99601E-002	9.42016E-001	3.57730E+000	9	...........
	63	0.853333	9.46166E-001	1.01414E-004	0.00000E+000	9.59543E-005	5.99601E-002	9.46500E-001	3.57730E+000	9	...........
	64	0.866667	9.50564E-001	1.01999E-004	0.00000E+000	9.69569E-005	5.99601E-002	9.50916E-001	3.57730E+000	9	...........
	65	0.88	9.54861E-001	1.01716E-004	0.00000E+000	9.71245E-005	5.99601E-002	9.55176E-001	3.57730E+000	9	...........
	66	0.893333	9.59065E-001	1.01195E-004	0.00000E+000	9.70525E-005	5.99601E-002	9.59385E-001	3.57730E+000	9	...........
	67	0.906667	9.63195E-001	1.00056E-004	0.00000E+000	9.63736E-005	5.99601E-002	9.63533E-001	3.57730E+000	9	...........
	68	0.92	9.67231E-001	1.01196E-004	0.00000E+000	9.78800E-005	5.99601E-002	9.67551E-001	3.57730E+000	9	...........
	69	0.933333	9.71195E-001	1.01353E-004	0.00000E+000	9.84339E-005	5.99601E-002	9.71539E-001	3.57730E+000	9	...........
	70	0.946667	9.75114E-001	9.99718E-005	0.00000E+000	9.74839E-005	5.99601E-002	9.75440E-001	3.57730E+000	9	...........
	71	0.96	9.78916E-001	1.00567E-004	0.00000E+000	9.84463E-005	5.99601E-002	9.79234E-001	3.57730E+000	9	...........
	72	0.97333	9.82632E-001	1.01108E-004	0.00000E+000	9.93525E-005	5.99601E-002	9.82952E-001	3.57730E+000	9	...........
	73	0.98667	9.86285E-001	1.01037E-004	0.00000E+000	9.96509E-005	5.99601E-002	9.86604E-001	3.57730E+000	9	...........
	74	1	9.89843E-001	1.01313E-004	0.00000E+000	1.00284E-004	5.99601E-002	9.90169E-001	3.57730E+000	9	...........
	75	1.01333	9.93294E-001	1.01400E-004	0.00000E+000	1.00720E-004	5.99601E-002	9.93646E-001	3.57730E+000	9	...........
	76	1.02667	9.96712E-001	1.00071E-004	0.00000E+000	9.97418E-005	5.99601E-002	9.97046E-001	3.57730E+000	9	...........
	77	1.035	9.99420E-001	1.00235E-004	0.00000E+000	1.00176E-004	5.99601E-002	9.99779E-001	3.57730E+000	9	...........
STARTTIMEOFFSET	QUANT	458.2835	Start Time Offset (s)
