EXPLAIN
TAG	PWR800_CHARGE
TITLE	LABEL	PWR Cyclic Charge Discharge (Cell) - Charge Step	Test &Identifier
DATE	LABEL	12-7-2017	Date
TIME	LABEL	16:15:10	Time
NOTES	NOTES	2	&Notes...
	supercap test cell
	6M KOH
PSTAT	PSTAT	IFC5000-01520	Potentiostat
CAPACITY	QUANT	1.00000E-003	Capacity (A-hr)
CELLTYPE	SELECTOR	1	&Cell Type
WORKINGCONNECTION	SELECTOR	0	&Working Lead
MAXCHARGETIME	VARIABLEANDUNITS	1.00000E+002	s	1.00000E+002	second(s)	Max &Charge Time
CHARGECURRENT	QUANT	1.00000E-004	&Charge Current (A) 
VOLTAGEFINISH	TWOPARAM	F	1.00000E-003	3.60000E+003	&Voltage Finish	 I (A) < 	Max Time(s)
SAMPLETIME	QUANT	1.00000E-002	Sa&mple Period (s)
CHARGESTOPAT1	MULTIPARAM	4	1.00000E+000	Charge Stop At &1	Voltage > Limit	V
CHARGESTOPAT2	MULTIPARAM	0	0.00000E+000	Charge Stop At &2	None	N/A
AESBHCSELECTOR	TOGGLE	F	Save Both Half Cells
IRCOMP	TOGGLE	F	IR &Measure
EOC	QUANT	0	Open Circuit (V)
SEQUENCER	TOGGLE	TRUE	Run as Sequence
PSTATMODEL	IQUANT	53	Pstat Model
PSTATSECTION	LABEL	IFC5000-01520	Pstat Section
PSTATSERIALNO	LABEL	01520	Pstat Serial Number
CTRLMODE	IQUANT	0	Control Mode
ELECTROMETER	IQUANT	1	RE=0 or CS=1
IESTAB	IQUANT	0	I/E Stability
CASPEED	IQUANT	4	Control Amp Speed
CONVENTION	IQUANT	1	Current Convention
ICHRANGE	IQUANT	2	Ich Range
ICHRANGEMODE	TOGGLE	T	Ich Auto Range
ICHOFFSETENABLE	TOGGLE	F	Ich Offset Enable
ICHOFFSET	QUANT	0	Ich Offset (V)
ICHFILTER	IQUANT	1	Ich Filter
VCHRANGE	IQUANT	2	Vch Range
VCHRANGEMODE	TOGGLE	T	Vch Auto Range
VCHOFFSETENABLE	TOGGLE	F	Vch Offset Enable
VCHOFFSET	QUANT	0	Vch Offset (V)
VCHFILTER	IQUANT	1	Vch Filter
IERANGELOWERLIMIT	IQUANT	9	I/E Range Lower Limit
IERANGEMODE	TOGGLE	F	I/E AutoRange
IERANGE	IQUANT	9	I/E Range
ACHSELECT	IQUANT	1	Ach Select
ACHRANGE	IQUANT	2	Ach Range
ACHOFFSETENABLE	TOGGLE	F	Ach Offset Enable
ACHOFFSET	QUANT	0	Ach Offset (V)
ACHFILTER	IQUANT	1	Ach Filter
CABLEID	IQUANT	14	Cable ID
DCCALDATE	LABEL	5-7-2017	DC Calibration Date
ACCALDATE	LABEL	12/3/2015	AC Calibration Date
FRAMEWORKVERSION	QUANT	7.01	Framework Version
INSTRUMENTVERSION	LABEL	4.00	Instrument Version
CURVE	TABLE	80
	Pt	T	Vf	Im	Vu	Pwr	Sig	Ach	Temp	IERange	Over
	#	s	V	A	V	W	V	V	deg C	#	bits
	0	0.013333	2.62125E-001	1.00993E-004	0.00000E+000	2.64727E-005	5.99601E-002	2.62196E-001	3.57750E+000	9	...........
	1	0.026667	2.84817E-001	1.00134E-004	0.00000E+000	2.85200E-005	5.99601E-002	2.84870E-001	3.57750E+000	9	...........
	2	0.04	3.05916E-001	1.00986E-004	0.00000E+000	3.08931E-005	5.99601E-002	3.05976E-001	3.57750E+000	9	...........
	3	0.053333	3.25796E-001	1.00907E-004	0.00000E+000	3.28753E-005	5.99601E-002	3.25861E-001	3.57750E+000	9	...........
	4	0.066667	3.44705E-001	1.01294E-004	0.00000E+000	3.49165E-005	5.99601E-002	3.44774E-001	3.57750E+000	9	...........
	5	0.08	3.62791E-001	1.00705E-004	0.00000E+000	3.65349E-005	5.99601E-002	3.62862E-001	3.57750E+000	9	...........
	6	0.093333	3.80172E-001	1.00954E-004	0.00000E+000	3.83800E-005	5.99601E-002	3.80247E-001	3.57750E+000	9	...........
	7	0.106667	3.96947E-001	1.00668E-004	0.00000E+000	3.99597E-005	5.99601E-002	3.97027E-001	3.57750E+000	9	...........
	8	0.12	4.13191E-001	1.01487E-004	0.00000E+000	4.19334E-005	5.99601E-002	4.13278E-001	3.57750E+000	9	...........
	9	0.133333	4.28960E-001	1.00733E-004	0.00000E+000	4.32106E-005	5.99601E-002	4.29046E-001	3.57750E+000	9	...........
	10	0.146667	4.44300E-001	1.00643E-004	0.00000E+000	4.47156E-005	5.99601E-002	4.44390E-001	3.57750E+000	9	...........
	11	0.16	4.59250E-001	1.00371E-004	0.00000E+000	4.60953E-005	5.99601E-002	4.59343E-001	3.57750E+000	9	...........
	12	0.173333	4.73852E-001	1.00461E-004	0.00000E+000	4.76039E-005	5.99601E-002	4.73948E-001	3.57750E+000	9	...........
	13	0.186667	4.88119E-001	1.01112E-004	0.00000E+000	4.93545E-005	5.99601E-002	4.88231E-001	3.57750E+000	9	...........
	14	0.2	5.02092E-001	1.01785E-004	0.00000E+000	5.11053E-005	5.99601E-002	5.02202E-001	3.57750E+000	9	...........
	15	0.213333	5.15770E-001	1.00971E-004	0.00000E+000	5.20778E-005	5.99601E-002	5.15885E-001	3.57750E+000	9	...........
	16	0.226667	5.29153E-001	1.00421E-004	0.00000E+000	5.31380E-005	5.99601E-002	5.29281E-001	3.57750E+000	9	...........
	17	0.24	5.42038E-001	1.01231E-004	0.00000E+000	5.48713E-005	5.99601E-002	5.42289E-001	3.57750E+000	9	...........
	18	0.253333	5.54944E-001	1.00538E-004	0.00000E+000	5.57927E-005	5.99601E-002	5.55200E-001	3.57750E+000	9	...........
	19	0.266667	5.67677E-001	1.00359E-004	0.00000E+000	5.69718E-005	5.99601E-002	5.67922E-001	3.57750E+000	9	...........
	20	0.28	5.80123E-001	1.00702E-004	0.00000E+000	5.84197E-005	5.99601E-002	5.80388E-001	3.57750E+000	9	...........
	21	0.293333	5.92389E-001	1.00345E-004	0.00000E+000	5.94432E-005	5.99601E-002	5.92661E-001	3.57750E+000	9	...........
	22	0.306667	6.04404E-001	1.00899E-004	0.00000E+000	6.09838E-005	5.99601E-002	6.04711E-001	3.57750E+000	9	...........
	23	0.32	6.16299E-001	1.01255E-004	0.00000E+000	6.24036E-005	5.99601E-002	6.16567E-001	3.57750E+000	9	...........
	24	0.333333	6.27956E-001	1.00546E-004	0.00000E+000	6.31384E-005	5.99601E-002	6.28173E-001	3.57750E+000	9	...........
	25	0.346667	6.39400E-001	1.00851E-004	0.00000E+000	6.44842E-005	5.99601E-002	6.39638E-001	3.57750E+000	9	...........
	26	0.36	6.50666E-001	1.00854E-004	0.00000E+000	6.56224E-005	5.99601E-002	6.50897E-001	3.57750E+000	9	...........
	27	0.373333	6.61729E-001	1.01053E-004	0.00000E+000	6.68698E-005	5.99601E-002	6.61948E-001	3.57750E+000	9	...........
	28	0.386667	6.72641E-001	1.01637E-004	0.00000E+000	6.83651E-005	5.99601E-002	6.72853E-001	3.57750E+000	9	...........
	29	0.4	6.83319E-001	1.00674E-004	0.00000E+000	6.87925E-005	5.99601E-002	6.83542E-001	3.57750E+000	9	...........
	30	0.413333	6.93835E-001	1.00505E-004	0.00000E+000	6.97341E-005	5.99601E-002	6.94075E-001	3.57750E+000	9	...........
	31	0.426667	7.04145E-001	1.00905E-004	0.00000E+000	7.10520E-005	5.99601E-002	7.04379E-001	3.57750E+000	9	...........
	32	0.44	7.14263E-001	1.00870E-004	0.00000E+000	7.20476E-005	5.99601E-002	7.14530E-001	3.57750E+000	9	...........
	33	0.453333	7.24258E-001	1.01072E-004	0.00000E+000	7.32022E-005	5.99601E-002	7.24488E-001	3.57750E+000	9	...........
	34	0.466667	7.34000E-001	1.00978E-004	0.00000E+000	7.41181E-005	5.99601E-002	7.34254E-001	3.57750E+000	9	...........
	35	0.48	7.43589E-001	1.01023E-004	0.00000E+000	7.51196E-005	5.99601E-002	7.43861E-001	3.57750E+000	9	...........
	36	0.493333	7.52995E-001	1.00779E-004	0.00000E+000	7.58863E-005	5.99601E-002	7.53251E-001	3.57750E+000	9	...........
	37	0.506667	7.62192E-001	1.00722E-004	0.00000E+000	7.67695E-005	5.99601E-002	7.62454E-001	3.57750E+000	9	...........
	38	0.52	7.71215E-001	1.01178E-004	0.00000E+000	7.80302E-005	5.99601E-002	7.71490E-001	3.57750E+000	9	...........
	39	0.533333	7.80059E-001	1.00477E-004	0.00000E+000	7.83780E-005	5.99601E-002	7.80335E-001	3.57750E+000	9	...........
	40	0.546667	7.88692E-001	1.00963E-004	0.00000E+000	7.96284E-005	5.99601E-002	7.88966E-001	3.57750E+000	9	...........
	41	0.56	7.97190E-001	1.01215E-004	0.00000E+000	8.06874E-005	5.99601E-002	7.97448E-001	3.57750E+000	9	...........
	42	0.573333	8.05442E-001	1.01144E-004	0.00000E+000	8.14655E-005	5.99601E-002	8.05716E-001	3.57750E+000	9	...........
	43	0.586667	8.13490E-001	1.01119E-004	0.00000E+000	8.22592E-005	5.99601E-002	8.13772E-001	3.57750E+000	9	...........
	44	0.6	8.21404E-001	1.00339E-004	0.00000E+000	8.24185E-005	5.99601E-002	8.21723E-001	3.57750E+000	9	...........
	45	0.613333	8.29115E-001	1.01249E-004	0.00000E+000	8.39472E-005	5.99601E-002	8.29401E-001	3.57750E+000	9	...........
	46	0.626667	8.36614E-001	1.01278E-004	0.00000E+000	8.47309E-005	5.99601E-002	8.36935E-001	3.57750E+000	9	...........
	47	0.64	8.43948E-001	1.00844E-004	0.00000E+000	8.51070E-005	5.99601E-002	8.44260E-001	3.57750E+000	9	...........
	48	0.653333	8.51102E-001	1.01701E-004	0.00000E+000	8.65582E-005	5.99601E-002	8.51433E-001	3.57750E+000	9	...........
	49	0.666667	8.58071E-001	1.00771E-004	0.00000E+000	8.64686E-005	5.99601E-002	8.58409E-001	3.57750E+000	9	...........
	50	0.68	8.64867E-001	1.01446E-004	0.00000E+000	8.77374E-005	5.99601E-002	8.65198E-001	3.57750E+000	9	...........
	51	0.693333	8.71491E-001	9.98436E-005	0.00000E+000	8.70128E-005	5.99601E-002	8.71827E-001	3.57750E+000	9	...........
	52	0.706667	8.77923E-001	1.01070E-004	0.00000E+000	8.87317E-005	5.99601E-002	8.78259E-001	3.57750E+000	9	...........
	53	0.72	8.84179E-001	1.00980E-004	0.00000E+000	8.92847E-005	5.99601E-002	8.84518E-001	3.57750E+000	9	...........
	54	0.733333	8.90269E-001	1.00856E-004	0.00000E+000	8.97893E-005	5.99601E-002	8.90589E-001	3.57750E+000	9	...........
	55	0.746667	8.96186E-001	1.01310E-004	0.00000E+000	9.07923E-005	5.99601E-002	8.96493E-001	3.57750E+000	9	...........
	56	0.76	9.01924E-001	1.00817E-004	0.00000E+000	9.09290E-005	5.99601E-002	9.02250E-001	3.57750E+000	9	...........
	57	0.773333	9.07522E-001	1.00990E-004	0.00000E+000	9.16504E-005	5.99601E-002	9.07838E-001	3.57750E+000	9	...........
	58	0.786667	9.12948E-001	1.01500E-004	0.00000E+000	9.26644E-005	5.99601E-002	9.13255E-001	3.57750E+000	9	...........
	59	0.8	9.18227E-001	1.01002E-004	0.00000E+000	9.27430E-005	5.99601E-002	9.18543E-001	3.57780E+000	9	...........
	60	0.813333	9.23408E-001	1.00569E-004	0.00000E+000	9.28660E-005	5.99601E-002	9.23677E-001	3.57870E+000	9	...........
	61	0.826667	9.28382E-001	1.01310E-004	0.00000E+000	9.40540E-005	5.99601E-002	9.28677E-001	3.57870E+000	9	...........
	62	0.84	9.33210E-001	9.99416E-005	0.00000E+000	9.32665E-005	5.99601E-002	9.33529E-001	3.57870E+000	9	...........
	63	0.853333	9.37906E-001	1.01291E-004	0.00000E+000	9.50012E-005	5.99601E-002	9.38251E-001	3.57870E+000	9	...........
	64	0.866667	9.42516E-001	1.01181E-004	0.00000E+000	9.53651E-005	5.99601E-002	9.42845E-001	3.57870E+000	9	...........
	65	0.88	9.47008E-001	1.01169E-004	0.00000E+000	9.58077E-005	5.99601E-002	9.47359E-001	3.57870E+000	9	...........
	66	0.893333	9.51388E-001	1.00514E-004	0.00000E+000	9.56274E-005	5.99601E-002	9.51738E-001	3.57870E+000	9	...........
	67	0.906667	9.55642E-001	1.01344E-004	0.00000E+000	9.68486E-005	5.99601E-002	9.55990E-001	3.57870E+000	9	...........
	68	0.92	9.59800E-001	1.01200E-004	0.00000E+000	9.71319E-005	5.99601E-002	9.60153E-001	3.57870E+000	9	...........
	69	0.933333	9.63856E-001	1.01549E-004	0.00000E+000	9.78789E-005	5.99601E-002	9.64238E-001	3.57870E+000	9	...........
	70	0.946667	9.67822E-001	1.01712E-004	0.00000E+000	9.84388E-005	5.99601E-002	9.68183E-001	3.57870E+000	9	...........
	71	0.96	9.71716E-001	1.00852E-004	0.00000E+000	9.79996E-005	5.99601E-002	9.72106E-001	3.57870E+000	9	...........
	72	0.97333	9.75558E-001	1.00481E-004	0.00000E+000	9.80253E-005	5.99601E-002	9.75905E-001	3.57870E+000	9	...........
	73	0.98667	9.79251E-001	1.00936E-004	0.00000E+000	9.88412E-005	5.99601E-002	9.79601E-001	3.57870E+000	9	...........
	74	1	9.82865E-001	1.01591E-004	0.00000E+000	9.98501E-005	5.99601E-002	9.83230E-001	3.57870E+000	9	...........
	75	1.01333	9.86409E-001	1.01199E-004	0.00000E+000	9.98237E-005	5.99601E-002	9.86787E-001	3.57870E+000	9	...........
	76	1.02667	9.89875E-001	1.01320E-004	0.00000E+000	1.00294E-004	5.99601E-002	9.90251E-001	3.57870E+000	9	...........
	77	1.04	9.93221E-001	1.01364E-004	0.00000E+000	1.00677E-004	5.99601E-002	9.93584E-001	3.57870E+000	9	...........
	78	1.05333	9.96496E-001	1.01196E-004	0.00000E+000	1.00841E-004	5.99601E-002	9.96870E-001	3.57870E+000	9	...........
	79	1.06333	9.99341E-001	1.01159E-004	0.00000E+000	1.01093E-004	5.99601E-002	9.99667E-001	3.57870E+000	9	...........
STARTTIMEOFFSET	QUANT	218.46	Start Time Offset (s)
