EXPLAIN
TAG	PWR800_CHARGE
TITLE	LABEL	PWR Cyclic Charge Discharge (Cell) - Charge Step	Test &Identifier
DATE	LABEL	12-7-2017	Date
TIME	LABEL	16:29:55	Time
NOTES	NOTES	2	&Notes...
	supercap test cell
	6M KOH
PSTAT	PSTAT	IFC5000-01520	Potentiostat
CAPACITY	QUANT	1.00000E-003	Capacity (A-hr)
CELLTYPE	SELECTOR	1	&Cell Type
WORKINGCONNECTION	SELECTOR	0	&Working Lead
MAXCHARGETIME	VARIABLEANDUNITS	1.00000E+002	s	1.00000E+002	second(s)	Max &Charge Time
CHARGECURRENT	QUANT	1.00000E-004	&Charge Current (A) 
VOLTAGEFINISH	TWOPARAM	F	1.00000E-003	3.60000E+003	&Voltage Finish	 I (A) < 	Max Time(s)
SAMPLETIME	QUANT	1.00000E-002	Sa&mple Period (s)
CHARGESTOPAT1	MULTIPARAM	4	1.00000E+000	Charge Stop At &1	Voltage > Limit	V
CHARGESTOPAT2	MULTIPARAM	0	0.00000E+000	Charge Stop At &2	None	N/A
AESBHCSELECTOR	TOGGLE	F	Save Both Half Cells
IRCOMP	TOGGLE	F	IR &Measure
EOC	QUANT	0	Open Circuit (V)
SEQUENCER	TOGGLE	TRUE	Run as Sequence
PSTATMODEL	IQUANT	53	Pstat Model
PSTATSECTION	LABEL	IFC5000-01520	Pstat Section
PSTATSERIALNO	LABEL	01520	Pstat Serial Number
CTRLMODE	IQUANT	0	Control Mode
ELECTROMETER	IQUANT	1	RE=0 or CS=1
IESTAB	IQUANT	0	I/E Stability
CASPEED	IQUANT	4	Control Amp Speed
CONVENTION	IQUANT	1	Current Convention
ICHRANGE	IQUANT	2	Ich Range
ICHRANGEMODE	TOGGLE	T	Ich Auto Range
ICHOFFSETENABLE	TOGGLE	F	Ich Offset Enable
ICHOFFSET	QUANT	0	Ich Offset (V)
ICHFILTER	IQUANT	1	Ich Filter
VCHRANGE	IQUANT	2	Vch Range
VCHRANGEMODE	TOGGLE	T	Vch Auto Range
VCHOFFSETENABLE	TOGGLE	F	Vch Offset Enable
VCHOFFSET	QUANT	0	Vch Offset (V)
VCHFILTER	IQUANT	1	Vch Filter
IERANGELOWERLIMIT	IQUANT	9	I/E Range Lower Limit
IERANGEMODE	TOGGLE	F	I/E AutoRange
IERANGE	IQUANT	9	I/E Range
ACHSELECT	IQUANT	1	Ach Select
ACHRANGE	IQUANT	2	Ach Range
ACHOFFSETENABLE	TOGGLE	F	Ach Offset Enable
ACHOFFSET	QUANT	0	Ach Offset (V)
ACHFILTER	IQUANT	1	Ach Filter
CABLEID	IQUANT	14	Cable ID
DCCALDATE	LABEL	5-7-2017	DC Calibration Date
ACCALDATE	LABEL	12/3/2015	AC Calibration Date
FRAMEWORKVERSION	QUANT	7.01	Framework Version
INSTRUMENTVERSION	LABEL	4.00	Instrument Version
CURVE	TABLE	77
	Pt	T	Vf	Im	Vu	Pwr	Sig	Ach	Temp	IERange	Over
	#	s	V	A	V	W	V	V	deg C	#	bits
	0	0.013333	2.60561E-001	1.01540E-004	0.00000E+000	2.64574E-005	5.99601E-002	2.60645E-001	3.57670E+000	9	...........
	1	0.026667	2.83399E-001	1.00823E-004	0.00000E+000	2.85732E-005	5.99601E-002	2.83468E-001	3.57670E+000	9	...........
	2	0.04	3.04908E-001	1.00739E-004	0.00000E+000	3.07160E-005	5.99601E-002	3.04978E-001	3.57670E+000	9	...........
	3	0.053333	3.25454E-001	1.00660E-004	0.00000E+000	3.27604E-005	5.99601E-002	3.25526E-001	3.57670E+000	9	...........
	4	0.066667	3.45226E-001	1.00483E-004	0.00000E+000	3.46894E-005	5.99601E-002	3.45294E-001	3.57670E+000	9	...........
	5	0.08	3.64345E-001	1.00747E-004	0.00000E+000	3.67066E-005	5.99601E-002	3.64432E-001	3.57670E+000	9	...........
	6	0.093333	3.82917E-001	1.01572E-004	0.00000E+000	3.88937E-005	5.99601E-002	3.82997E-001	3.57670E+000	9	...........
	7	0.106667	4.00985E-001	1.00483E-004	0.00000E+000	4.02923E-005	5.99601E-002	4.01072E-001	3.57670E+000	9	...........
	8	0.12	4.18594E-001	1.01080E-004	0.00000E+000	4.23116E-005	5.99601E-002	4.18690E-001	3.57670E+000	9	...........
	9	0.133333	4.35796E-001	1.01368E-004	0.00000E+000	4.41758E-005	5.99601E-002	4.35893E-001	3.57670E+000	9	...........
	10	0.146667	4.52595E-001	1.01825E-004	0.00000E+000	4.60856E-005	5.99601E-002	4.52698E-001	3.57670E+000	9	...........
	11	0.16	4.69020E-001	1.00385E-004	0.00000E+000	4.70828E-005	5.99601E-002	4.69125E-001	3.57670E+000	9	...........
	12	0.173333	4.85082E-001	1.00452E-004	0.00000E+000	4.87275E-005	5.99601E-002	4.85188E-001	3.57670E+000	9	...........
	13	0.186667	5.00803E-001	9.95123E-005	0.00000E+000	4.98360E-005	5.99601E-002	5.00919E-001	3.57670E+000	9	...........
	14	0.2	5.16192E-001	1.01708E-004	0.00000E+000	5.25007E-005	5.99601E-002	5.16314E-001	3.57670E+000	9	...........
	15	0.213333	5.31176E-001	1.00973E-004	0.00000E+000	5.36344E-005	5.99601E-002	5.31311E-001	3.57670E+000	9	...........
	16	0.226667	5.45703E-001	1.00703E-004	0.00000E+000	5.49540E-005	5.99601E-002	5.45902E-001	3.57670E+000	9	...........
	17	0.24	5.60130E-001	1.00308E-004	0.00000E+000	5.61857E-005	5.99601E-002	5.60310E-001	3.57670E+000	9	...........
	18	0.253333	5.74290E-001	1.01472E-004	0.00000E+000	5.82744E-005	5.99601E-002	5.74457E-001	3.57670E+000	9	...........
	19	0.266667	5.88105E-001	1.00679E-004	0.00000E+000	5.92100E-005	5.99601E-002	5.88307E-001	3.57670E+000	9	...........
	20	0.28	6.01641E-001	1.00892E-004	0.00000E+000	6.07007E-005	5.99601E-002	6.01868E-001	3.57670E+000	9	...........
	21	0.293333	6.14906E-001	1.01490E-004	0.00000E+000	6.24067E-005	5.99601E-002	6.15129E-001	3.57670E+000	9	...........
	22	0.306667	6.27875E-001	1.02405E-004	0.00000E+000	6.42973E-005	5.99601E-002	6.28106E-001	3.57670E+000	9	...........
	23	0.32	6.40571E-001	1.01844E-004	0.00000E+000	6.52383E-005	5.99601E-002	6.40804E-001	3.57670E+000	9	...........
	24	0.333333	6.52972E-001	1.02454E-004	0.00000E+000	6.68993E-005	5.99601E-002	6.53219E-001	3.57670E+000	9	...........
	25	0.346667	6.65087E-001	1.01078E-004	0.00000E+000	6.72259E-005	5.99601E-002	6.65352E-001	3.57670E+000	9	...........
	26	0.36	6.76940E-001	1.01415E-004	0.00000E+000	6.86518E-005	5.99601E-002	6.77194E-001	3.57670E+000	9	...........
	27	0.373333	6.88491E-001	1.00717E-004	0.00000E+000	6.93426E-005	5.99601E-002	6.88762E-001	3.57670E+000	9	...........
	28	0.386667	6.99778E-001	1.00691E-004	0.00000E+000	7.04611E-005	5.99601E-002	7.00053E-001	3.57670E+000	9	...........
	29	0.4	7.10815E-001	1.01191E-004	0.00000E+000	7.19280E-005	5.99601E-002	7.11089E-001	3.57670E+000	9	...........
	30	0.413333	7.21632E-001	1.01437E-004	0.00000E+000	7.31999E-005	5.99601E-002	7.21849E-001	3.57670E+000	9	...........
	31	0.426667	7.32066E-001	9.99749E-005	0.00000E+000	7.31882E-005	5.99601E-002	7.32343E-001	3.57670E+000	9	...........
	32	0.44	7.42322E-001	1.00309E-004	0.00000E+000	7.44619E-005	5.99601E-002	7.42583E-001	3.57670E+000	9	...........
	33	0.453333	7.52311E-001	1.00690E-004	0.00000E+000	7.57499E-005	5.99601E-002	7.52553E-001	3.57670E+000	9	...........
	34	0.466667	7.62003E-001	1.00133E-004	0.00000E+000	7.63019E-005	5.99601E-002	7.62249E-001	3.57670E+000	9	...........
	35	0.48	7.71467E-001	1.00337E-004	0.00000E+000	7.74070E-005	5.99601E-002	7.71741E-001	3.57670E+000	9	...........
	36	0.493333	7.80667E-001	1.01683E-004	0.00000E+000	7.93803E-005	5.99601E-002	7.80930E-001	3.57670E+000	9	...........
	37	0.506667	7.89625E-001	1.01919E-004	0.00000E+000	8.04778E-005	5.99601E-002	7.89891E-001	3.57670E+000	9	...........
	38	0.52	7.98374E-001	1.01074E-004	0.00000E+000	8.06949E-005	5.99601E-002	7.98629E-001	3.57670E+000	9	...........
	39	0.533333	8.06820E-001	1.00289E-004	0.00000E+000	8.09148E-005	5.99601E-002	8.07092E-001	3.57670E+000	9	...........
	40	0.546667	8.15020E-001	1.00677E-004	0.00000E+000	8.20539E-005	5.99601E-002	8.15302E-001	3.57670E+000	9	...........
	41	0.56	8.23031E-001	1.01483E-004	0.00000E+000	8.35232E-005	5.99601E-002	8.23313E-001	3.57670E+000	9	...........
	42	0.573333	8.30758E-001	1.01703E-004	0.00000E+000	8.44910E-005	5.99601E-002	8.31060E-001	3.57670E+000	9	...........
	43	0.586667	8.38269E-001	1.00837E-004	0.00000E+000	8.45281E-005	5.99601E-002	8.38562E-001	3.57670E+000	9	...........
	44	0.6	8.45558E-001	1.00853E-004	0.00000E+000	8.52772E-005	5.99601E-002	8.45885E-001	3.57670E+000	9	...........
	45	0.613333	8.52624E-001	1.00907E-004	0.00000E+000	8.60361E-005	5.99601E-002	8.52924E-001	3.57670E+000	9	...........
	46	0.626667	8.59467E-001	1.02128E-004	0.00000E+000	8.77760E-005	5.99601E-002	8.59787E-001	3.57670E+000	9	...........
	47	0.64	8.66105E-001	1.01296E-004	0.00000E+000	8.77330E-005	5.99601E-002	8.66398E-001	3.57670E+000	9	...........
	48	0.653333	8.72558E-001	1.00641E-004	0.00000E+000	8.78148E-005	5.99601E-002	8.72847E-001	3.57670E+000	9	...........
	49	0.666667	8.78797E-001	1.01206E-004	0.00000E+000	8.89400E-005	5.99601E-002	8.79087E-001	3.57670E+000	9	...........
	50	0.68	8.84822E-001	1.02347E-004	0.00000E+000	9.05592E-005	5.99601E-002	8.85149E-001	3.57670E+000	9	...........
	51	0.693333	8.90693E-001	1.01718E-004	0.00000E+000	9.05995E-005	5.99601E-002	8.90983E-001	3.57670E+000	9	...........
	52	0.706667	8.96386E-001	1.01842E-004	0.00000E+000	9.12898E-005	5.99601E-002	8.96713E-001	3.57670E+000	9	...........
	53	0.72	9.01936E-001	1.01433E-004	0.00000E+000	9.14856E-005	5.99601E-002	9.02264E-001	3.57670E+000	9	...........
	54	0.733333	9.07323E-001	1.01816E-004	0.00000E+000	9.23799E-005	5.99601E-002	9.07678E-001	3.57670E+000	9	...........
	55	0.746667	9.12592E-001	9.98332E-005	0.00000E+000	9.11071E-005	5.99601E-002	9.12943E-001	3.57670E+000	9	...........
	56	0.76	9.17736E-001	1.01067E-004	0.00000E+000	9.27526E-005	5.99601E-002	9.18094E-001	3.57670E+000	9	...........
	57	0.773333	9.22810E-001	1.01503E-004	0.00000E+000	9.36683E-005	5.99601E-002	9.23119E-001	3.57670E+000	9	...........
	58	0.786667	9.27739E-001	1.01238E-004	0.00000E+000	9.39222E-005	5.99601E-002	9.28060E-001	3.57670E+000	9	...........
	59	0.8	9.32559E-001	1.01073E-004	0.00000E+000	9.42566E-005	5.99601E-002	9.32869E-001	3.57670E+000	9	...........
	60	0.813333	9.37273E-001	1.01892E-004	0.00000E+000	9.55006E-005	5.99601E-002	9.37601E-001	3.57670E+000	9	...........
	61	0.826667	9.41896E-001	1.01720E-004	0.00000E+000	9.58097E-005	5.99601E-002	9.42225E-001	3.57670E+000	9	...........
	62	0.84	9.46466E-001	1.01290E-004	0.00000E+000	9.58674E-005	5.99601E-002	9.46790E-001	3.57670E+000	9	...........
	63	0.853333	9.50945E-001	1.01544E-004	0.00000E+000	9.65628E-005	5.99601E-002	9.51289E-001	3.57670E+000	9	...........
	64	0.866667	9.55353E-001	1.02366E-004	0.00000E+000	9.77957E-005	5.99601E-002	9.55651E-001	3.57670E+000	9	...........
	65	0.88	9.59630E-001	9.99583E-005	0.00000E+000	9.59229E-005	5.99601E-002	9.59965E-001	3.57810E+000	9	...........
	66	0.893333	9.63853E-001	1.02072E-004	0.00000E+000	9.83826E-005	5.99601E-002	9.64206E-001	3.57810E+000	9	...........
	67	0.906667	9.68028E-001	1.00080E-004	0.00000E+000	9.68804E-005	5.99601E-002	9.68338E-001	3.57810E+000	9	...........
	68	0.92	9.72107E-001	1.00597E-004	0.00000E+000	9.77910E-005	5.99601E-002	9.72449E-001	3.57810E+000	9	...........
	69	0.933333	9.76147E-001	1.00897E-004	0.00000E+000	9.84903E-005	5.99601E-002	9.76463E-001	3.57810E+000	9	...........
	70	0.946667	9.80064E-001	1.02256E-004	0.00000E+000	1.00217E-004	5.99601E-002	9.80398E-001	3.57810E+000	9	...........
	71	0.96	9.83921E-001	1.00660E-004	0.00000E+000	9.90420E-005	5.99601E-002	9.84252E-001	3.57810E+000	9	...........
	72	0.97333	9.87664E-001	1.01501E-004	0.00000E+000	1.00249E-004	5.99601E-002	9.88021E-001	3.57810E+000	9	...........
	73	0.98667	9.91347E-001	1.00934E-004	0.00000E+000	1.00061E-004	5.99601E-002	9.91711E-001	3.57810E+000	9	...........
	74	1	9.94934E-001	1.01536E-004	0.00000E+000	1.01021E-004	5.99601E-002	9.95316E-001	3.57810E+000	9	...........
	75	1.01333	9.98472E-001	1.01774E-004	0.00000E+000	1.01619E-004	5.99601E-002	9.98865E-001	3.57810E+000	9	...........
	76	1.015	1.00044E+000	1.02665E-004	0.00000E+000	1.02710E-004	5.99601E-002	1.00081E+000	3.57810E+000	9	...........
STARTTIMEOFFSET	QUANT	850.1655	Start Time Offset (s)
