EXPLAIN
TAG	PWR800_CHARGE
TITLE	LABEL	PWR Cyclic Charge Discharge (Cell) - Charge Step	Test &Identifier
DATE	LABEL	12-7-2017	Date
TIME	LABEL	16:31:46	Time
NOTES	NOTES	2	&Notes...
	supercap test cell
	6M KOH
PSTAT	PSTAT	IFC5000-01520	Potentiostat
CAPACITY	QUANT	1.00000E-003	Capacity (A-hr)
CELLTYPE	SELECTOR	1	&Cell Type
WORKINGCONNECTION	SELECTOR	0	&Working Lead
MAXCHARGETIME	VARIABLEANDUNITS	1.00000E+002	s	1.00000E+002	second(s)	Max &Charge Time
CHARGECURRENT	QUANT	1.00000E-004	&Charge Current (A) 
VOLTAGEFINISH	TWOPARAM	F	1.00000E-003	3.60000E+003	&Voltage Finish	 I (A) < 	Max Time(s)
SAMPLETIME	QUANT	1.00000E-002	Sa&mple Period (s)
CHARGESTOPAT1	MULTIPARAM	4	1.00000E+000	Charge Stop At &1	Voltage > Limit	V
CHARGESTOPAT2	MULTIPARAM	0	0.00000E+000	Charge Stop At &2	None	N/A
AESBHCSELECTOR	TOGGLE	F	Save Both Half Cells
IRCOMP	TOGGLE	F	IR &Measure
EOC	QUANT	0	Open Circuit (V)
SEQUENCER	TOGGLE	TRUE	Run as Sequence
PSTATMODEL	IQUANT	53	Pstat Model
PSTATSECTION	LABEL	IFC5000-01520	Pstat Section
PSTATSERIALNO	LABEL	01520	Pstat Serial Number
CTRLMODE	IQUANT	0	Control Mode
ELECTROMETER	IQUANT	1	RE=0 or CS=1
IESTAB	IQUANT	0	I/E Stability
CASPEED	IQUANT	4	Control Amp Speed
CONVENTION	IQUANT	1	Current Convention
ICHRANGE	IQUANT	2	Ich Range
ICHRANGEMODE	TOGGLE	T	Ich Auto Range
ICHOFFSETENABLE	TOGGLE	F	Ich Offset Enable
ICHOFFSET	QUANT	0	Ich Offset (V)
ICHFILTER	IQUANT	1	Ich Filter
VCHRANGE	IQUANT	2	Vch Range
VCHRANGEMODE	TOGGLE	T	Vch Auto Range
VCHOFFSETENABLE	TOGGLE	F	Vch Offset Enable
VCHOFFSET	QUANT	0	Vch Offset (V)
VCHFILTER	IQUANT	1	Vch Filter
IERANGELOWERLIMIT	IQUANT	9	I/E Range Lower Limit
IERANGEMODE	TOGGLE	F	I/E AutoRange
IERANGE	IQUANT	9	I/E Range
ACHSELECT	IQUANT	1	Ach Select
ACHRANGE	IQUANT	2	Ach Range
ACHOFFSETENABLE	TOGGLE	F	Ach Offset Enable
ACHOFFSET	QUANT	0	Ach Offset (V)
ACHFILTER	IQUANT	1	Ach Filter
CABLEID	IQUANT	14	Cable ID
DCCALDATE	LABEL	5-7-2017	DC Calibration Date
ACCALDATE	LABEL	12/3/2015	AC Calibration Date
FRAMEWORKVERSION	QUANT	7.01	Framework Version
INSTRUMENTVERSION	LABEL	4.00	Instrument Version
CURVE	TABLE	76
	Pt	T	Vf	Im	Vu	Pwr	Sig	Ach	Temp	IERange	Over
	#	s	V	A	V	W	V	V	deg C	#	bits
	0	0.013333	2.57961E-001	1.01350E-004	0.00000E+000	2.61444E-005	5.99601E-002	2.58042E-001	3.57820E+000	9	...........
	1	0.026667	2.80871E-001	1.00800E-004	0.00000E+000	2.83119E-005	5.99601E-002	2.80935E-001	3.57820E+000	9	...........
	2	0.04	3.02464E-001	1.01669E-004	0.00000E+000	3.07512E-005	5.99601E-002	3.02527E-001	3.57820E+000	9	...........
	3	0.053333	3.23102E-001	1.01403E-004	0.00000E+000	3.27636E-005	5.99601E-002	3.23167E-001	3.57820E+000	9	...........
	4	0.066667	3.42984E-001	1.01472E-004	0.00000E+000	3.48033E-005	5.99601E-002	3.43055E-001	3.57820E+000	9	...........
	5	0.08	3.62229E-001	1.01101E-004	0.00000E+000	3.66218E-005	5.99601E-002	3.62301E-001	3.57820E+000	9	...........
	6	0.093333	3.80923E-001	9.97540E-005	0.00000E+000	3.79986E-005	5.99601E-002	3.81001E-001	3.57820E+000	9	...........
	7	0.106667	3.99130E-001	1.00407E-004	0.00000E+000	4.00756E-005	5.99601E-002	3.99212E-001	3.57820E+000	9	...........
	8	0.12	4.16883E-001	1.01415E-004	0.00000E+000	4.22781E-005	5.99601E-002	4.16972E-001	3.57820E+000	9	...........
	9	0.133333	4.34220E-001	1.02247E-004	0.00000E+000	4.43978E-005	5.99601E-002	4.34317E-001	3.57820E+000	9	...........
	10	0.146667	4.51157E-001	1.01967E-004	0.00000E+000	4.60032E-005	5.99601E-002	4.51256E-001	3.57820E+000	9	...........
	11	0.16	4.67727E-001	1.00106E-004	0.00000E+000	4.68224E-005	5.99601E-002	4.67822E-001	3.57820E+000	9	...........
	12	0.173333	4.83927E-001	1.00768E-004	0.00000E+000	4.87643E-005	5.99601E-002	4.84032E-001	3.57820E+000	9	...........
	13	0.186667	4.99779E-001	1.01403E-004	0.00000E+000	5.06793E-005	5.99601E-002	4.99888E-001	3.57820E+000	9	...........
	14	0.2	5.15302E-001	1.01164E-004	0.00000E+000	5.21299E-005	5.99601E-002	5.15415E-001	3.57820E+000	9	...........
	15	0.213333	5.30406E-001	1.00131E-004	0.00000E+000	5.31102E-005	5.99601E-002	5.30552E-001	3.57820E+000	9	...........
	16	0.226667	5.45057E-001	9.94144E-005	0.00000E+000	5.41865E-005	5.99601E-002	5.45265E-001	3.57820E+000	9	...........
	17	0.24	5.59601E-001	1.00003E-004	0.00000E+000	5.59618E-005	5.99601E-002	5.59816E-001	3.57820E+000	9	...........
	18	0.253333	5.73871E-001	1.02254E-004	0.00000E+000	5.86803E-005	5.99601E-002	5.74086E-001	3.57820E+000	9	...........
	19	0.266667	5.87790E-001	1.01400E-004	0.00000E+000	5.96020E-005	5.99601E-002	5.88043E-001	3.57820E+000	9	...........
	20	0.28	6.01422E-001	1.00972E-004	0.00000E+000	6.07268E-005	5.99601E-002	6.01677E-001	3.57820E+000	9	...........
	21	0.293333	6.14780E-001	1.01788E-004	0.00000E+000	6.25771E-005	5.99601E-002	6.15012E-001	3.57820E+000	9	...........
	22	0.306667	6.27845E-001	1.01489E-004	0.00000E+000	6.37192E-005	5.99601E-002	6.28048E-001	3.57820E+000	9	...........
	23	0.32	6.40574E-001	1.00951E-004	0.00000E+000	6.46667E-005	5.99601E-002	6.40804E-001	3.57820E+000	9	...........
	24	0.333333	6.53055E-001	1.00185E-004	0.00000E+000	6.54266E-005	5.99601E-002	6.53301E-001	3.57820E+000	9	...........
	25	0.346667	6.65217E-001	1.01101E-004	0.00000E+000	6.72543E-005	5.99601E-002	6.65479E-001	3.57820E+000	9	...........
	26	0.36	6.77128E-001	1.00564E-004	0.00000E+000	6.80944E-005	5.99601E-002	6.77363E-001	3.57820E+000	9	...........
	27	0.373333	6.88726E-001	9.97968E-005	0.00000E+000	6.87326E-005	5.99601E-002	6.88974E-001	3.57820E+000	9	...........
	28	0.386667	7.00065E-001	1.01871E-004	0.00000E+000	7.13164E-005	5.99601E-002	7.00324E-001	3.57820E+000	9	...........
	29	0.4	7.11092E-001	1.00957E-004	0.00000E+000	7.17900E-005	5.99601E-002	7.11369E-001	3.57820E+000	9	...........
	30	0.413333	7.21906E-001	9.99447E-005	0.00000E+000	7.21507E-005	5.99601E-002	7.22160E-001	3.57820E+000	9	...........
	31	0.426667	7.32405E-001	1.00392E-004	0.00000E+000	7.35273E-005	5.99601E-002	7.32660E-001	3.57820E+000	9	...........
	32	0.44	7.42666E-001	1.00735E-004	0.00000E+000	7.48128E-005	5.99601E-002	7.42924E-001	3.57820E+000	9	...........
	33	0.453333	7.52646E-001	1.01307E-004	0.00000E+000	7.62487E-005	5.99601E-002	7.52911E-001	3.57820E+000	9	...........
	34	0.466667	7.62381E-001	1.01319E-004	0.00000E+000	7.72436E-005	5.99601E-002	7.62619E-001	3.57820E+000	9	...........
	35	0.48	7.71827E-001	1.00529E-004	0.00000E+000	7.75911E-005	5.99601E-002	7.72099E-001	3.57820E+000	9	...........
	36	0.493333	7.81019E-001	1.00921E-004	0.00000E+000	7.88212E-005	5.99601E-002	7.81291E-001	3.57820E+000	9	...........
	37	0.506667	7.89968E-001	1.00505E-004	0.00000E+000	7.93960E-005	5.99601E-002	7.90237E-001	3.57715E+000	9	...........
	38	0.52	7.98695E-001	1.01262E-004	0.00000E+000	8.08772E-005	5.99601E-002	7.98930E-001	3.57700E+000	9	...........
	39	0.533333	8.07098E-001	1.02148E-004	0.00000E+000	8.24437E-005	5.99601E-002	8.07385E-001	3.57700E+000	9	...........
	40	0.546667	8.15292E-001	1.01350E-004	0.00000E+000	8.26300E-005	5.99601E-002	8.15605E-001	3.57700E+000	9	...........
	41	0.56	8.23274E-001	1.02014E-004	0.00000E+000	8.39854E-005	5.99601E-002	8.23548E-001	3.57700E+000	9	...........
	42	0.573333	8.30969E-001	1.01937E-004	0.00000E+000	8.47063E-005	5.99601E-002	8.31278E-001	3.57700E+000	9	...........
	43	0.586667	8.38426E-001	1.00456E-004	0.00000E+000	8.42252E-005	5.99601E-002	8.38750E-001	3.57700E+000	9	...........
	44	0.6	8.45718E-001	1.01936E-004	0.00000E+000	8.62089E-005	5.99601E-002	8.46013E-001	3.57700E+000	9	...........
	45	0.613333	8.52742E-001	1.00459E-004	0.00000E+000	8.56659E-005	5.99601E-002	8.53044E-001	3.57700E+000	9	...........
	46	0.626667	8.59558E-001	1.02101E-004	0.00000E+000	8.77621E-005	5.99601E-002	8.59864E-001	3.57700E+000	9	...........
	47	0.64	8.66134E-001	1.01657E-004	0.00000E+000	8.80482E-005	5.99601E-002	8.66446E-001	3.57700E+000	9	...........
	48	0.653333	8.72550E-001	1.00715E-004	0.00000E+000	8.78786E-005	5.99601E-002	8.72844E-001	3.57700E+000	9	...........
	49	0.666667	8.78737E-001	1.00513E-004	0.00000E+000	8.83241E-005	5.99601E-002	8.79041E-001	3.57700E+000	9	...........
	50	0.68	8.84781E-001	1.02326E-004	0.00000E+000	9.05365E-005	5.99601E-002	8.85069E-001	3.57700E+000	9	...........
	51	0.693333	8.90604E-001	1.00185E-004	0.00000E+000	8.92255E-005	5.99601E-002	8.90902E-001	3.57700E+000	9	...........
	52	0.706667	8.96293E-001	1.01430E-004	0.00000E+000	9.09114E-005	5.99601E-002	8.96607E-001	3.57700E+000	9	...........
	53	0.72	9.01836E-001	1.01742E-004	0.00000E+000	9.17546E-005	5.99601E-002	9.02129E-001	3.57700E+000	9	...........
	54	0.733333	9.07242E-001	1.00502E-004	0.00000E+000	9.11797E-005	5.99601E-002	9.07524E-001	3.57700E+000	9	...........
	55	0.746667	9.12515E-001	1.02005E-004	0.00000E+000	9.30806E-005	5.99601E-002	9.12800E-001	3.57700E+000	9	...........
	56	0.76	9.17651E-001	1.00824E-004	0.00000E+000	9.25213E-005	5.99601E-002	9.17968E-001	3.57700E+000	9	...........
	57	0.773333	9.22742E-001	1.00648E-004	0.00000E+000	9.28722E-005	5.99601E-002	9.23005E-001	3.57700E+000	9	...........
	58	0.786667	9.27674E-001	1.00838E-004	0.00000E+000	9.35445E-005	5.99601E-002	9.27955E-001	3.57700E+000	9	...........
	59	0.8	9.32505E-001	1.01493E-004	0.00000E+000	9.46427E-005	5.99601E-002	9.32805E-001	3.57700E+000	9	...........
	60	0.813333	9.37237E-001	1.01727E-004	0.00000E+000	9.53426E-005	5.99601E-002	9.37562E-001	3.57700E+000	9	...........
	61	0.826667	9.41895E-001	1.01056E-004	0.00000E+000	9.51845E-005	5.99601E-002	9.42210E-001	3.57700E+000	9	...........
	62	0.84	9.46487E-001	1.01418E-004	0.00000E+000	9.59908E-005	5.99601E-002	9.46816E-001	3.57700E+000	9	...........
	63	0.853333	9.51000E-001	1.02830E-004	0.00000E+000	9.77911E-005	5.99601E-002	9.51320E-001	3.57700E+000	9	...........
	64	0.866667	9.55411E-001	1.00821E-004	0.00000E+000	9.63254E-005	5.99601E-002	9.55729E-001	3.57700E+000	9	...........
	65	0.88	9.59727E-001	1.00962E-004	0.00000E+000	9.68956E-005	5.99601E-002	9.60084E-001	3.57700E+000	9	...........
	66	0.893333	9.63985E-001	1.01828E-004	0.00000E+000	9.81611E-005	5.99601E-002	9.64341E-001	3.57700E+000	9	...........
	67	0.906667	9.68163E-001	1.00549E-004	0.00000E+000	9.73478E-005	5.99601E-002	9.68526E-001	3.57700E+000	9	...........
	68	0.92	9.72281E-001	1.00775E-004	0.00000E+000	9.79817E-005	5.99601E-002	9.72664E-001	3.57700E+000	9	...........
	69	0.933333	9.76342E-001	1.00845E-004	0.00000E+000	9.84591E-005	5.99601E-002	9.76700E-001	3.57700E+000	9	...........
	70	0.946667	9.80294E-001	1.01826E-004	0.00000E+000	9.98197E-005	5.99601E-002	9.80651E-001	3.57700E+000	9	...........
	71	0.96	9.84148E-001	1.01414E-004	0.00000E+000	9.98061E-005	5.99601E-002	9.84524E-001	3.57700E+000	9	...........
	72	0.97333	9.87950E-001	1.01728E-004	0.00000E+000	1.00503E-004	5.99601E-002	9.88317E-001	3.57700E+000	9	...........
	73	0.98667	9.91647E-001	1.01101E-004	0.00000E+000	1.00257E-004	5.99601E-002	9.92025E-001	3.57700E+000	9	...........
	74	1	9.95281E-001	1.00481E-004	0.00000E+000	1.00007E-004	5.99601E-002	9.95654E-001	3.57700E+000	9	...........
	75	1.01333	9.98827E-001	1.00873E-004	0.00000E+000	1.00755E-004	5.99601E-002	9.99207E-001	3.57700E+000	9	...........
STARTTIMEOFFSET	QUANT	928.3535	Start Time Offset (s)
