EXPLAIN
TAG	PWR800_CHARGE
TITLE	LABEL	PWR Cyclic Charge Discharge (Cell) - Charge Step	Test &Identifier
DATE	LABEL	12-7-2017	Date
TIME	LABEL	16:41:36	Time
NOTES	NOTES	2	&Notes...
	supercap test cell
	6M KOH
PSTAT	PSTAT	IFC5000-01520	Potentiostat
CAPACITY	QUANT	1.00000E-003	Capacity (A-hr)
CELLTYPE	SELECTOR	1	&Cell Type
WORKINGCONNECTION	SELECTOR	0	&Working Lead
MAXCHARGETIME	VARIABLEANDUNITS	1.00000E+002	s	1.00000E+002	second(s)	Max &Charge Time
CHARGECURRENT	QUANT	1.00000E-004	&Charge Current (A) 
VOLTAGEFINISH	TWOPARAM	F	1.00000E-003	3.60000E+003	&Voltage Finish	 I (A) < 	Max Time(s)
SAMPLETIME	QUANT	1.00000E-002	Sa&mple Period (s)
CHARGESTOPAT1	MULTIPARAM	4	1.00000E+000	Charge Stop At &1	Voltage > Limit	V
CHARGESTOPAT2	MULTIPARAM	0	0.00000E+000	Charge Stop At &2	None	N/A
AESBHCSELECTOR	TOGGLE	F	Save Both Half Cells
IRCOMP	TOGGLE	F	IR &Measure
EOC	QUANT	0	Open Circuit (V)
SEQUENCER	TOGGLE	TRUE	Run as Sequence
PSTATMODEL	IQUANT	53	Pstat Model
PSTATSECTION	LABEL	IFC5000-01520	Pstat Section
PSTATSERIALNO	LABEL	01520	Pstat Serial Number
CTRLMODE	IQUANT	0	Control Mode
ELECTROMETER	IQUANT	1	RE=0 or CS=1
IESTAB	IQUANT	0	I/E Stability
CASPEED	IQUANT	4	Control Amp Speed
CONVENTION	IQUANT	1	Current Convention
ICHRANGE	IQUANT	2	Ich Range
ICHRANGEMODE	TOGGLE	T	Ich Auto Range
ICHOFFSETENABLE	TOGGLE	F	Ich Offset Enable
ICHOFFSET	QUANT	0	Ich Offset (V)
ICHFILTER	IQUANT	1	Ich Filter
VCHRANGE	IQUANT	2	Vch Range
VCHRANGEMODE	TOGGLE	T	Vch Auto Range
VCHOFFSETENABLE	TOGGLE	F	Vch Offset Enable
VCHOFFSET	QUANT	0	Vch Offset (V)
VCHFILTER	IQUANT	1	Vch Filter
IERANGELOWERLIMIT	IQUANT	9	I/E Range Lower Limit
IERANGEMODE	TOGGLE	F	I/E AutoRange
IERANGE	IQUANT	9	I/E Range
ACHSELECT	IQUANT	1	Ach Select
ACHRANGE	IQUANT	2	Ach Range
ACHOFFSETENABLE	TOGGLE	F	Ach Offset Enable
ACHOFFSET	QUANT	0	Ach Offset (V)
ACHFILTER	IQUANT	1	Ach Filter
CABLEID	IQUANT	14	Cable ID
DCCALDATE	LABEL	5-7-2017	DC Calibration Date
ACCALDATE	LABEL	12/3/2015	AC Calibration Date
FRAMEWORKVERSION	QUANT	7.01	Framework Version
INSTRUMENTVERSION	LABEL	4.00	Instrument Version
CURVE	TABLE	75
	Pt	T	Vf	Im	Vu	Pwr	Sig	Ach	Temp	IERange	Over
	#	s	V	A	V	W	V	V	deg C	#	bits
	0	0.013333	2.60380E-001	1.01303E-004	0.00000E+000	2.63774E-005	5.99601E-002	2.60447E-001	3.57790E+000	9	...........
	1	0.026667	2.83354E-001	1.00965E-004	0.00000E+000	2.86088E-005	5.99601E-002	2.83413E-001	3.57790E+000	9	...........
	2	0.04	3.05062E-001	1.00289E-004	0.00000E+000	3.05942E-005	5.99601E-002	3.05127E-001	3.57790E+000	9	...........
	3	0.053333	3.25870E-001	9.97207E-005	0.00000E+000	3.24960E-005	5.99601E-002	3.25934E-001	3.57790E+000	9	...........
	4	0.066667	3.45950E-001	1.00149E-004	0.00000E+000	3.46465E-005	5.99601E-002	3.46013E-001	3.57790E+000	9	...........
	5	0.08	3.65419E-001	1.00535E-004	0.00000E+000	3.67375E-005	5.99601E-002	3.65495E-001	3.57790E+000	9	...........
	6	0.093333	3.84362E-001	1.00828E-004	0.00000E+000	3.87545E-005	5.99601E-002	3.84432E-001	3.57790E+000	9	...........
	7	0.106667	4.02827E-001	9.99718E-005	0.00000E+000	4.02713E-005	5.99601E-002	4.02906E-001	3.57790E+000	9	...........
	8	0.12	4.20845E-001	9.94248E-005	0.00000E+000	4.18424E-005	5.99601E-002	4.20930E-001	3.57790E+000	9	...........
	9	0.133333	4.38463E-001	9.98978E-005	0.00000E+000	4.38015E-005	5.99601E-002	4.38552E-001	3.57790E+000	9	...........
	10	0.146667	4.55667E-001	1.00959E-004	0.00000E+000	4.60039E-005	5.99601E-002	4.55761E-001	3.57790E+000	9	...........
	11	0.16	4.72506E-001	1.00792E-004	0.00000E+000	4.76247E-005	5.99601E-002	4.72602E-001	3.57790E+000	9	...........
	12	0.173333	4.88972E-001	1.01232E-004	0.00000E+000	4.94999E-005	5.99601E-002	4.89072E-001	3.57790E+000	9	...........
	13	0.186667	5.05088E-001	1.00399E-004	0.00000E+000	5.07103E-005	5.99601E-002	5.05190E-001	3.57790E+000	9	...........
	14	0.2	5.20848E-001	9.95946E-005	0.00000E+000	5.18737E-005	5.99601E-002	5.20959E-001	3.57790E+000	9	...........
	15	0.213333	5.36065E-001	1.01611E-004	0.00000E+000	5.44699E-005	5.99601E-002	5.36232E-001	3.57790E+000	9	...........
	16	0.226667	5.51021E-001	1.02025E-004	0.00000E+000	5.62181E-005	5.99601E-002	5.51260E-001	3.57790E+000	9	...........
	17	0.24	5.65791E-001	1.00983E-004	0.00000E+000	5.71355E-005	5.99601E-002	5.66042E-001	3.57790E+000	9	...........
	18	0.253333	5.80207E-001	9.99687E-005	0.00000E+000	5.80025E-005	5.99601E-002	5.80458E-001	3.57790E+000	9	...........
	19	0.266667	5.94332E-001	1.00253E-004	0.00000E+000	5.95837E-005	5.99601E-002	5.94582E-001	3.57790E+000	9	...........
	20	0.28	6.08087E-001	1.00405E-004	0.00000E+000	6.10552E-005	5.99601E-002	6.08352E-001	3.57790E+000	9	...........
	21	0.293333	6.21584E-001	1.00030E-004	0.00000E+000	6.21771E-005	5.99601E-002	6.21816E-001	3.57790E+000	9	...........
	22	0.306667	6.34719E-001	1.00495E-004	0.00000E+000	6.37859E-005	5.99601E-002	6.34958E-001	3.57790E+000	9	...........
	23	0.32	6.47560E-001	1.02052E-004	0.00000E+000	6.60850E-005	5.99601E-002	6.47786E-001	3.57790E+000	9	...........
	24	0.333333	6.60088E-001	1.00209E-004	0.00000E+000	6.61470E-005	5.99601E-002	6.60285E-001	3.57790E+000	9	...........
	25	0.346667	6.72297E-001	9.99051E-005	0.00000E+000	6.71660E-005	5.99601E-002	6.72490E-001	3.57790E+000	9	...........
	26	0.36	6.84207E-001	1.01017E-004	0.00000E+000	6.91164E-005	5.99601E-002	6.84398E-001	3.57790E+000	9	...........
	27	0.373333	6.95817E-001	1.00706E-004	0.00000E+000	7.00732E-005	5.99601E-002	6.96015E-001	3.57790E+000	9	...........
	28	0.386667	7.07121E-001	1.00831E-004	0.00000E+000	7.13000E-005	5.99601E-002	7.07350E-001	3.57790E+000	9	...........
	29	0.4	7.18141E-001	1.01653E-004	0.00000E+000	7.30014E-005	5.99601E-002	7.18373E-001	3.57790E+000	9	...........
	30	0.413333	7.28905E-001	1.01986E-004	0.00000E+000	7.43379E-005	5.99601E-002	7.29098E-001	3.57790E+000	9	...........
	31	0.426667	7.39318E-001	1.01014E-004	0.00000E+000	7.46813E-005	5.99601E-002	7.39546E-001	3.57790E+000	9	...........
	32	0.44	7.49506E-001	1.00541E-004	0.00000E+000	7.53558E-005	5.99601E-002	7.49727E-001	3.57790E+000	9	...........
	33	0.453333	7.59393E-001	1.00572E-004	0.00000E+000	7.63736E-005	5.99601E-002	7.59615E-001	3.57790E+000	9	...........
	34	0.466667	7.68993E-001	1.00538E-004	0.00000E+000	7.73127E-005	5.99601E-002	7.69245E-001	3.57790E+000	9	...........
	35	0.48	7.78345E-001	1.00074E-004	0.00000E+000	7.78921E-005	5.99601E-002	7.78574E-001	3.57790E+000	9	...........
	36	0.493333	7.87415E-001	1.00886E-004	0.00000E+000	7.94388E-005	5.99601E-002	7.87661E-001	3.57790E+000	9	...........
	37	0.506667	7.96233E-001	9.98687E-005	0.00000E+000	7.95187E-005	5.99601E-002	7.96500E-001	3.57790E+000	9	...........
	38	0.52	8.04780E-001	1.00211E-004	0.00000E+000	8.06482E-005	5.99601E-002	8.05026E-001	3.57790E+000	9	...........
	39	0.533333	8.13042E-001	1.01159E-004	0.00000E+000	8.22461E-005	5.99601E-002	8.13308E-001	3.57790E+000	9	...........
	40	0.546667	8.21106E-001	1.00828E-004	0.00000E+000	8.27907E-005	5.99601E-002	8.21376E-001	3.57790E+000	9	...........
	41	0.56	8.28888E-001	1.01760E-004	0.00000E+000	8.43473E-005	5.99601E-002	8.29145E-001	3.57790E+000	9	...........
	42	0.573333	8.36399E-001	1.01057E-004	0.00000E+000	8.45244E-005	5.99601E-002	8.36711E-001	3.57790E+000	9	...........
	43	0.586667	8.43733E-001	1.01774E-004	0.00000E+000	8.58703E-005	5.99601E-002	8.44033E-001	3.57790E+000	9	...........
	44	0.6	8.50816E-001	1.01784E-004	0.00000E+000	8.65991E-005	5.99601E-002	8.51106E-001	3.57805E+000	9	...........
	45	0.613333	8.57656E-001	9.99676E-005	0.00000E+000	8.57378E-005	5.99601E-002	8.57964E-001	3.57850E+000	9	...........
	46	0.626667	8.64300E-001	1.00821E-004	0.00000E+000	8.71395E-005	5.99601E-002	8.64606E-001	3.57850E+000	9	...........
	47	0.64	8.70741E-001	1.00614E-004	0.00000E+000	8.76084E-005	5.99601E-002	8.71066E-001	3.57850E+000	9	...........
	48	0.653333	8.76986E-001	1.01436E-004	0.00000E+000	8.89576E-005	5.99601E-002	8.77317E-001	3.57850E+000	9	...........
	49	0.666667	8.83087E-001	1.01103E-004	0.00000E+000	8.92829E-005	5.99601E-002	8.83384E-001	3.57850E+000	9	...........
	50	0.68	8.88976E-001	1.01878E-004	0.00000E+000	9.05675E-005	5.99601E-002	8.89306E-001	3.57850E+000	9	...........
	51	0.693333	8.94712E-001	1.01292E-004	0.00000E+000	9.06271E-005	5.99601E-002	8.95060E-001	3.57850E+000	9	...........
	52	0.706667	9.00312E-001	1.01623E-004	0.00000E+000	9.14925E-005	5.99601E-002	9.00662E-001	3.57850E+000	9	...........
	53	0.72	9.05770E-001	1.00768E-004	0.00000E+000	9.12724E-005	5.99601E-002	9.06114E-001	3.57850E+000	9	...........
	54	0.733333	9.11122E-001	1.01368E-004	0.00000E+000	9.23585E-005	5.99601E-002	9.11460E-001	3.57850E+000	9	...........
	55	0.746667	9.16336E-001	1.00153E-004	0.00000E+000	9.17739E-005	5.99601E-002	9.16705E-001	3.57850E+000	9	...........
	56	0.76	9.21502E-001	1.02297E-004	0.00000E+000	9.42671E-005	5.99601E-002	9.21828E-001	3.57850E+000	9	...........
	57	0.773333	9.26549E-001	1.01501E-004	0.00000E+000	9.40459E-005	5.99601E-002	9.26855E-001	3.57850E+000	9	...........
	58	0.786667	9.31468E-001	1.00012E-004	0.00000E+000	9.31584E-005	5.99601E-002	9.31797E-001	3.57850E+000	9	...........
	59	0.8	9.36299E-001	1.00149E-004	0.00000E+000	9.37693E-005	5.99601E-002	9.36624E-001	3.57850E+000	9	...........
	60	0.813333	9.41073E-001	1.00948E-004	0.00000E+000	9.49995E-005	5.99601E-002	9.41394E-001	3.57850E+000	9	...........
	61	0.826667	9.45745E-001	1.00629E-004	0.00000E+000	9.51696E-005	5.99601E-002	9.46065E-001	3.57850E+000	9	...........
	62	0.84	9.50373E-001	1.02148E-004	0.00000E+000	9.70789E-005	5.99601E-002	9.50671E-001	3.57850E+000	9	...........
	63	0.853333	9.54914E-001	1.01353E-004	0.00000E+000	9.67837E-005	5.99601E-002	9.55184E-001	3.57850E+000	9	...........
	64	0.866667	9.59347E-001	1.01203E-004	0.00000E+000	9.70891E-005	5.99601E-002	9.59630E-001	3.57850E+000	9	...........
	65	0.88	9.63716E-001	9.98999E-005	0.00000E+000	9.62752E-005	5.99601E-002	9.64039E-001	3.57850E+000	9	...........
	66	0.893333	9.68025E-001	1.00340E-004	0.00000E+000	9.71313E-005	5.99601E-002	9.68321E-001	3.57850E+000	9	...........
	67	0.906667	9.72275E-001	1.00614E-004	0.00000E+000	9.78240E-005	5.99601E-002	9.72588E-001	3.57850E+000	9	...........
	68	0.92	9.76432E-001	1.00250E-004	0.00000E+000	9.78873E-005	5.99601E-002	9.76746E-001	3.57850E+000	9	...........
	69	0.933333	9.80503E-001	1.00613E-004	0.00000E+000	9.86509E-005	5.99601E-002	9.80816E-001	3.57850E+000	9	...........
	70	0.946667	9.84475E-001	1.00887E-004	0.00000E+000	9.93203E-005	5.99601E-002	9.84809E-001	3.57850E+000	9	...........
	71	0.96	9.88384E-001	1.00314E-004	0.00000E+000	9.91483E-005	5.99601E-002	9.88736E-001	3.57850E+000	9	...........
	72	0.97333	9.92197E-001	1.00305E-004	0.00000E+000	9.95225E-005	5.99601E-002	9.92539E-001	3.57850E+000	9	...........
	73	0.98667	9.95951E-001	9.99249E-005	0.00000E+000	9.95203E-005	5.99601E-002	9.96289E-001	3.57850E+000	9	...........
	74	0.99667	9.99181E-001	9.99715E-005	0.00000E+000	9.98895E-005	5.99601E-002	9.99506E-001	3.57850E+000	9	...........
STARTTIMEOFFSET	QUANT	1346.17	Start Time Offset (s)
