EXPLAIN
TAG	PWR800_CHARGE
TITLE	LABEL	PWR Cyclic Charge Discharge (Cell) - Charge Step	Test &Identifier
DATE	LABEL	12-7-2017	Date
TIME	LABEL	16:37:07	Time
NOTES	NOTES	2	&Notes...
	supercap test cell
	6M KOH
PSTAT	PSTAT	IFC5000-01520	Potentiostat
CAPACITY	QUANT	1.00000E-003	Capacity (A-hr)
CELLTYPE	SELECTOR	1	&Cell Type
WORKINGCONNECTION	SELECTOR	0	&Working Lead
MAXCHARGETIME	VARIABLEANDUNITS	1.00000E+002	s	1.00000E+002	second(s)	Max &Charge Time
CHARGECURRENT	QUANT	1.00000E-004	&Charge Current (A) 
VOLTAGEFINISH	TWOPARAM	F	1.00000E-003	3.60000E+003	&Voltage Finish	 I (A) < 	Max Time(s)
SAMPLETIME	QUANT	1.00000E-002	Sa&mple Period (s)
CHARGESTOPAT1	MULTIPARAM	4	1.00000E+000	Charge Stop At &1	Voltage > Limit	V
CHARGESTOPAT2	MULTIPARAM	0	0.00000E+000	Charge Stop At &2	None	N/A
AESBHCSELECTOR	TOGGLE	F	Save Both Half Cells
IRCOMP	TOGGLE	F	IR &Measure
EOC	QUANT	0	Open Circuit (V)
SEQUENCER	TOGGLE	TRUE	Run as Sequence
PSTATMODEL	IQUANT	53	Pstat Model
PSTATSECTION	LABEL	IFC5000-01520	Pstat Section
PSTATSERIALNO	LABEL	01520	Pstat Serial Number
CTRLMODE	IQUANT	0	Control Mode
ELECTROMETER	IQUANT	1	RE=0 or CS=1
IESTAB	IQUANT	0	I/E Stability
CASPEED	IQUANT	4	Control Amp Speed
CONVENTION	IQUANT	1	Current Convention
ICHRANGE	IQUANT	2	Ich Range
ICHRANGEMODE	TOGGLE	T	Ich Auto Range
ICHOFFSETENABLE	TOGGLE	F	Ich Offset Enable
ICHOFFSET	QUANT	0	Ich Offset (V)
ICHFILTER	IQUANT	1	Ich Filter
VCHRANGE	IQUANT	2	Vch Range
VCHRANGEMODE	TOGGLE	T	Vch Auto Range
VCHOFFSETENABLE	TOGGLE	F	Vch Offset Enable
VCHOFFSET	QUANT	0	Vch Offset (V)
VCHFILTER	IQUANT	1	Vch Filter
IERANGELOWERLIMIT	IQUANT	9	I/E Range Lower Limit
IERANGEMODE	TOGGLE	F	I/E AutoRange
IERANGE	IQUANT	9	I/E Range
ACHSELECT	IQUANT	1	Ach Select
ACHRANGE	IQUANT	2	Ach Range
ACHOFFSETENABLE	TOGGLE	F	Ach Offset Enable
ACHOFFSET	QUANT	0	Ach Offset (V)
ACHFILTER	IQUANT	1	Ach Filter
CABLEID	IQUANT	14	Cable ID
DCCALDATE	LABEL	5-7-2017	DC Calibration Date
ACCALDATE	LABEL	12/3/2015	AC Calibration Date
FRAMEWORKVERSION	QUANT	7.01	Framework Version
INSTRUMENTVERSION	LABEL	4.00	Instrument Version
CURVE	TABLE	76
	Pt	T	Vf	Im	Vu	Pwr	Sig	Ach	Temp	IERange	Over
	#	s	V	A	V	W	V	V	deg C	#	bits
	0	0.013333	2.61148E-001	1.00749E-004	0.00000E+000	2.63104E-005	5.99601E-002	2.61215E-001	3.57800E+000	9	...........
	1	0.026667	2.84040E-001	1.00468E-004	0.00000E+000	2.85369E-005	5.99601E-002	2.84102E-001	3.57800E+000	9	...........
	2	0.04	3.05673E-001	1.00216E-004	0.00000E+000	3.06332E-005	5.99601E-002	3.05728E-001	3.57800E+000	9	...........
	3	0.053333	3.26370E-001	1.00889E-004	0.00000E+000	3.29270E-005	5.99601E-002	3.26434E-001	3.57800E+000	9	...........
	4	0.066667	3.46325E-001	1.00492E-004	0.00000E+000	3.48028E-005	5.99601E-002	3.46389E-001	3.57800E+000	9	...........
	5	0.08	3.65668E-001	1.00702E-004	0.00000E+000	3.68235E-005	5.99601E-002	3.65738E-001	3.57800E+000	9	...........
	6	0.093333	3.84456E-001	1.00454E-004	0.00000E+000	3.86202E-005	5.99601E-002	3.84531E-001	3.57800E+000	9	...........
	7	0.106667	4.02764E-001	9.90070E-005	0.00000E+000	3.98765E-005	5.99601E-002	4.02843E-001	3.57800E+000	9	...........
	8	0.12	4.20636E-001	1.02183E-004	0.00000E+000	4.29817E-005	5.99601E-002	4.20729E-001	3.57800E+000	9	...........
	9	0.133333	4.38093E-001	1.00042E-004	0.00000E+000	4.38275E-005	5.99601E-002	4.38190E-001	3.57800E+000	9	...........
	10	0.146667	4.55167E-001	1.00517E-004	0.00000E+000	4.57519E-005	5.99601E-002	4.55263E-001	3.57800E+000	9	...........
	11	0.16	4.71851E-001	1.01708E-004	0.00000E+000	4.79908E-005	5.99601E-002	4.71954E-001	3.57800E+000	9	...........
	12	0.173333	4.88174E-001	1.00691E-004	0.00000E+000	4.91545E-005	5.99601E-002	4.88283E-001	3.57800E+000	9	...........
	13	0.186667	5.04142E-001	1.00419E-004	0.00000E+000	5.06254E-005	5.99601E-002	5.04260E-001	3.57800E+000	9	...........
	14	0.2	5.19770E-001	1.00533E-004	0.00000E+000	5.22542E-005	5.99601E-002	5.19883E-001	3.57800E+000	9	...........
	15	0.213333	5.34905E-001	1.00662E-004	0.00000E+000	5.38444E-005	5.99601E-002	5.35086E-001	3.57800E+000	9	...........
	16	0.226667	5.49710E-001	1.00473E-004	0.00000E+000	5.52309E-005	5.99601E-002	5.49969E-001	3.57800E+000	9	...........
	17	0.24	5.64350E-001	1.00866E-004	0.00000E+000	5.69236E-005	5.99601E-002	5.64611E-001	3.57800E+000	9	...........
	18	0.253333	5.78688E-001	1.00769E-004	0.00000E+000	5.83137E-005	5.99601E-002	5.78918E-001	3.57800E+000	9	...........
	19	0.266667	5.92684E-001	1.01037E-004	0.00000E+000	5.98828E-005	5.99601E-002	5.92922E-001	3.57800E+000	9	...........
	20	0.28	6.06353E-001	1.01488E-004	0.00000E+000	6.15374E-005	5.99601E-002	6.06611E-001	3.57800E+000	9	...........
	21	0.293333	6.19775E-001	1.00541E-004	0.00000E+000	6.23126E-005	5.99601E-002	6.19993E-001	3.57800E+000	9	...........
	22	0.306667	6.32817E-001	1.00691E-004	0.00000E+000	6.37187E-005	5.99601E-002	6.33041E-001	3.57800E+000	9	...........
	23	0.32	6.45605E-001	1.01026E-004	0.00000E+000	6.52230E-005	5.99601E-002	6.45831E-001	3.57800E+000	9	...........
	24	0.333333	6.58056E-001	1.01717E-004	0.00000E+000	6.69354E-005	5.99601E-002	6.58277E-001	3.57800E+000	9	...........
	25	0.346667	6.70230E-001	1.00086E-004	0.00000E+000	6.70810E-005	5.99601E-002	6.70472E-001	3.57800E+000	9	...........
	26	0.36	6.82107E-001	1.02421E-004	0.00000E+000	6.98623E-005	5.99601E-002	6.82319E-001	3.57800E+000	9	...........
	27	0.373333	6.93664E-001	1.00069E-004	0.00000E+000	6.94141E-005	5.99601E-002	6.93919E-001	3.57800E+000	9	...........
	28	0.386667	7.04968E-001	1.02127E-004	0.00000E+000	7.19966E-005	5.99601E-002	7.05221E-001	3.57800E+000	9	...........
	29	0.4	7.15975E-001	1.01301E-004	0.00000E+000	7.25291E-005	5.99601E-002	7.16224E-001	3.57800E+000	9	...........
	30	0.413333	7.26723E-001	1.00477E-004	0.00000E+000	7.30190E-005	5.99601E-002	7.26950E-001	3.57740E+000	9	...........
	31	0.426667	7.37140E-001	1.00117E-004	0.00000E+000	7.38000E-005	5.99601E-002	7.37394E-001	3.57720E+000	9	...........
	32	0.44	7.47339E-001	1.01162E-004	0.00000E+000	7.56020E-005	5.99601E-002	7.47598E-001	3.57720E+000	9	...........
	33	0.453333	7.57233E-001	1.00560E-004	0.00000E+000	7.61476E-005	5.99601E-002	7.57487E-001	3.57720E+000	9	...........
	34	0.466667	7.66869E-001	1.02188E-004	0.00000E+000	7.83647E-005	5.99601E-002	7.67144E-001	3.57720E+000	9	...........
	35	0.48	7.76225E-001	1.00345E-004	0.00000E+000	7.78901E-005	5.99601E-002	7.76495E-001	3.57720E+000	9	...........
	36	0.493333	7.85332E-001	1.02746E-004	0.00000E+000	8.06900E-005	5.99601E-002	7.85596E-001	3.57720E+000	9	...........
	37	0.506667	7.94160E-001	1.01673E-004	0.00000E+000	8.07448E-005	5.99601E-002	7.94455E-001	3.57720E+000	9	...........
	38	0.52	8.02746E-001	1.02695E-004	0.00000E+000	8.24382E-005	5.99601E-002	8.03030E-001	3.57720E+000	9	...........
	39	0.533333	8.11060E-001	1.01270E-004	0.00000E+000	8.21360E-005	5.99601E-002	8.11365E-001	3.57720E+000	9	...........
	40	0.546667	8.19148E-001	1.00377E-004	0.00000E+000	8.22237E-005	5.99601E-002	8.19457E-001	3.57720E+000	9	...........
	41	0.56	8.26972E-001	1.00866E-004	0.00000E+000	8.34131E-005	5.99601E-002	8.27268E-001	3.57720E+000	9	...........
	42	0.573333	8.34551E-001	9.99791E-005	0.00000E+000	8.34377E-005	5.99601E-002	8.34835E-001	3.57720E+000	9	...........
	43	0.586667	8.41929E-001	1.00901E-004	0.00000E+000	8.49516E-005	5.99601E-002	8.42184E-001	3.57720E+000	9	...........
	44	0.6	8.49051E-001	1.01004E-004	0.00000E+000	8.57579E-005	5.99601E-002	8.49349E-001	3.57720E+000	9	...........
	45	0.613333	8.55947E-001	1.00975E-004	0.00000E+000	8.64293E-005	5.99601E-002	8.56242E-001	3.57720E+000	9	...........
	46	0.626667	8.62639E-001	1.01189E-004	0.00000E+000	8.72893E-005	5.99601E-002	8.62936E-001	3.57720E+000	9	...........
	47	0.64	8.69133E-001	1.00784E-004	0.00000E+000	8.75951E-005	5.99601E-002	8.69424E-001	3.57720E+000	9	...........
	48	0.653333	8.75405E-001	1.01396E-004	0.00000E+000	8.87626E-005	5.99601E-002	8.75733E-001	3.57720E+000	9	...........
	49	0.666667	8.81526E-001	1.02147E-004	0.00000E+000	9.00455E-005	5.99601E-002	8.81846E-001	3.57720E+000	9	...........
	50	0.68	8.87466E-001	1.00622E-004	0.00000E+000	8.92985E-005	5.99601E-002	8.87771E-001	3.57720E+000	9	...........
	51	0.693333	8.93223E-001	1.01324E-004	0.00000E+000	9.05051E-005	5.99601E-002	8.93529E-001	3.57720E+000	9	...........
	52	0.706667	8.98830E-001	1.00155E-004	0.00000E+000	9.00225E-005	5.99601E-002	8.99148E-001	3.57720E+000	9	...........
	53	0.72	9.04296E-001	1.01172E-004	0.00000E+000	9.14894E-005	5.99601E-002	9.04625E-001	3.57720E+000	9	...........
	54	0.733333	9.09649E-001	1.01320E-004	0.00000E+000	9.21656E-005	5.99601E-002	9.09980E-001	3.57720E+000	9	...........
	55	0.746667	9.14862E-001	1.01311E-004	0.00000E+000	9.26852E-005	5.99601E-002	9.15217E-001	3.57720E+000	9	...........
	56	0.76	9.19988E-001	1.00571E-004	0.00000E+000	9.25240E-005	5.99601E-002	9.20325E-001	3.57720E+000	9	...........
	57	0.773333	9.25043E-001	1.00761E-004	0.00000E+000	9.32078E-005	5.99601E-002	9.25345E-001	3.57720E+000	9	...........
	58	0.786667	9.29951E-001	1.01565E-004	0.00000E+000	9.44504E-005	5.99601E-002	9.30250E-001	3.57720E+000	9	...........
	59	0.8	9.34767E-001	1.01418E-004	0.00000E+000	9.48021E-005	5.99601E-002	9.35072E-001	3.57720E+000	9	...........
	60	0.813333	9.39514E-001	1.00668E-004	0.00000E+000	9.45788E-005	5.99601E-002	9.39799E-001	3.57720E+000	9	...........
	61	0.826667	9.44154E-001	1.00182E-004	0.00000E+000	9.45875E-005	5.99601E-002	9.44456E-001	3.57720E+000	9	...........
	62	0.84	9.48806E-001	1.00549E-004	0.00000E+000	9.54015E-005	5.99601E-002	9.49051E-001	3.57720E+000	9	...........
	63	0.853333	9.53281E-001	1.01356E-004	0.00000E+000	9.66212E-005	5.99601E-002	9.53561E-001	3.57720E+000	9	...........
	64	0.866667	9.57703E-001	1.00815E-004	0.00000E+000	9.65505E-005	5.99601E-002	9.57984E-001	3.57720E+000	9	...........
	65	0.88	9.62044E-001	1.01734E-004	0.00000E+000	9.78723E-005	5.99601E-002	9.62356E-001	3.57720E+000	9	...........
	66	0.893333	9.66317E-001	1.00999E-004	0.00000E+000	9.75972E-005	5.99601E-002	9.66613E-001	3.57720E+000	9	...........
	67	0.906667	9.70508E-001	1.00923E-004	0.00000E+000	9.79466E-005	5.99601E-002	9.70826E-001	3.57720E+000	9	...........
	68	0.92	9.74673E-001	1.02141E-004	0.00000E+000	9.95541E-005	5.99601E-002	9.74958E-001	3.57720E+000	9	...........
	69	0.933333	9.78708E-001	1.00937E-004	0.00000E+000	9.87875E-005	5.99601E-002	9.79024E-001	3.57720E+000	9	...........
	70	0.946667	9.82678E-001	1.00588E-004	0.00000E+000	9.88452E-005	5.99601E-002	9.82980E-001	3.57720E+000	9	...........
	71	0.96	9.86567E-001	1.00522E-004	0.00000E+000	9.91716E-005	5.99601E-002	9.86889E-001	3.57720E+000	9	...........
	72	0.97333	9.90346E-001	1.00960E-004	0.00000E+000	9.99849E-005	5.99601E-002	9.90676E-001	3.57720E+000	9	...........
	73	0.98667	9.94059E-001	1.00756E-004	0.00000E+000	1.00158E-004	5.99601E-002	9.94394E-001	3.57720E+000	9	...........
	74	1	9.97715E-001	1.00739E-004	0.00000E+000	1.00508E-004	5.99601E-002	9.98049E-001	3.57720E+000	9	...........
	75	1.00333	9.99936E-001	1.02265E-004	0.00000E+000	1.02258E-004	5.99601E-002	1.00028E+000	3.57720E+000	9	...........
STARTTIMEOFFSET	QUANT	1156.334	Start Time Offset (s)
