EXPLAIN
TAG	PWR800_CHARGE
TITLE	LABEL	PWR Cyclic Charge Discharge (Cell) - Charge Step	Test &Identifier
DATE	LABEL	12-7-2017	Date
TIME	LABEL	16:19:36	Time
NOTES	NOTES	2	&Notes...
	supercap test cell
	6M KOH
PSTAT	PSTAT	IFC5000-01520	Potentiostat
CAPACITY	QUANT	1.00000E-003	Capacity (A-hr)
CELLTYPE	SELECTOR	1	&Cell Type
WORKINGCONNECTION	SELECTOR	0	&Working Lead
MAXCHARGETIME	VARIABLEANDUNITS	1.00000E+002	s	1.00000E+002	second(s)	Max &Charge Time
CHARGECURRENT	QUANT	1.00000E-004	&Charge Current (A) 
VOLTAGEFINISH	TWOPARAM	F	1.00000E-003	3.60000E+003	&Voltage Finish	 I (A) < 	Max Time(s)
SAMPLETIME	QUANT	1.00000E-002	Sa&mple Period (s)
CHARGESTOPAT1	MULTIPARAM	4	1.00000E+000	Charge Stop At &1	Voltage > Limit	V
CHARGESTOPAT2	MULTIPARAM	0	0.00000E+000	Charge Stop At &2	None	N/A
AESBHCSELECTOR	TOGGLE	F	Save Both Half Cells
IRCOMP	TOGGLE	F	IR &Measure
EOC	QUANT	0	Open Circuit (V)
SEQUENCER	TOGGLE	TRUE	Run as Sequence
PSTATMODEL	IQUANT	53	Pstat Model
PSTATSECTION	LABEL	IFC5000-01520	Pstat Section
PSTATSERIALNO	LABEL	01520	Pstat Serial Number
CTRLMODE	IQUANT	0	Control Mode
ELECTROMETER	IQUANT	1	RE=0 or CS=1
IESTAB	IQUANT	0	I/E Stability
CASPEED	IQUANT	4	Control Amp Speed
CONVENTION	IQUANT	1	Current Convention
ICHRANGE	IQUANT	2	Ich Range
ICHRANGEMODE	TOGGLE	T	Ich Auto Range
ICHOFFSETENABLE	TOGGLE	F	Ich Offset Enable
ICHOFFSET	QUANT	0	Ich Offset (V)
ICHFILTER	IQUANT	1	Ich Filter
VCHRANGE	IQUANT	2	Vch Range
VCHRANGEMODE	TOGGLE	T	Vch Auto Range
VCHOFFSETENABLE	TOGGLE	F	Vch Offset Enable
VCHOFFSET	QUANT	0	Vch Offset (V)
VCHFILTER	IQUANT	1	Vch Filter
IERANGELOWERLIMIT	IQUANT	9	I/E Range Lower Limit
IERANGEMODE	TOGGLE	F	I/E AutoRange
IERANGE	IQUANT	9	I/E Range
ACHSELECT	IQUANT	1	Ach Select
ACHRANGE	IQUANT	2	Ach Range
ACHOFFSETENABLE	TOGGLE	F	Ach Offset Enable
ACHOFFSET	QUANT	0	Ach Offset (V)
ACHFILTER	IQUANT	1	Ach Filter
CABLEID	IQUANT	14	Cable ID
DCCALDATE	LABEL	5-7-2017	DC Calibration Date
ACCALDATE	LABEL	12/3/2015	AC Calibration Date
FRAMEWORKVERSION	QUANT	7.01	Framework Version
INSTRUMENTVERSION	LABEL	4.00	Instrument Version
CURVE	TABLE	78
	Pt	T	Vf	Im	Vu	Pwr	Sig	Ach	Temp	IERange	Over
	#	s	V	A	V	W	V	V	deg C	#	bits
	0	0.013333	2.61084E-001	1.00816E-004	0.00000E+000	2.63213E-005	5.99601E-002	2.61165E-001	3.57700E+000	9	...........
	1	0.026667	2.83822E-001	1.00816E-004	0.00000E+000	2.86138E-005	5.99601E-002	2.83879E-001	3.57700E+000	9	...........
	2	0.04	3.05062E-001	1.01266E-004	0.00000E+000	3.08923E-005	5.99601E-002	3.05121E-001	3.57700E+000	9	...........
	3	0.053333	3.25198E-001	1.00285E-004	0.00000E+000	3.26126E-005	5.99601E-002	3.25265E-001	3.57700E+000	9	...........
	4	0.066667	3.44446E-001	1.01114E-004	0.00000E+000	3.48282E-005	5.99601E-002	3.44522E-001	3.57700E+000	9	...........
	5	0.08	3.62959E-001	1.00111E-004	0.00000E+000	3.63363E-005	5.99601E-002	3.63035E-001	3.57700E+000	9	...........
	6	0.093333	3.80852E-001	1.00893E-004	0.00000E+000	3.84252E-005	5.99601E-002	3.80934E-001	3.57700E+000	9	...........
	7	0.106667	3.98195E-001	1.00640E-004	0.00000E+000	4.00742E-005	5.99601E-002	3.98272E-001	3.57700E+000	9	...........
	8	0.12	4.15045E-001	1.01188E-004	0.00000E+000	4.19974E-005	5.99601E-002	4.15136E-001	3.57700E+000	9	...........
	9	0.133333	4.31459E-001	1.00444E-004	0.00000E+000	4.33374E-005	5.99601E-002	4.31554E-001	3.57700E+000	9	...........
	10	0.146667	4.47475E-001	1.00408E-004	0.00000E+000	4.49303E-005	5.99601E-002	4.47575E-001	3.57700E+000	9	...........
	11	0.16	4.63116E-001	1.00928E-004	0.00000E+000	4.67415E-005	5.99601E-002	4.63216E-001	3.57700E+000	9	...........
	12	0.173333	4.78409E-001	1.00119E-004	0.00000E+000	4.78977E-005	5.99601E-002	4.78506E-001	3.57700E+000	9	...........
	13	0.186667	4.93363E-001	9.97582E-005	0.00000E+000	4.92170E-005	5.99601E-002	4.93467E-001	3.57700E+000	9	...........
	14	0.2	5.08004E-001	1.01087E-004	0.00000E+000	5.13524E-005	5.99601E-002	5.08114E-001	3.57700E+000	9	...........
	15	0.213333	5.22354E-001	1.01269E-004	0.00000E+000	5.28982E-005	5.99601E-002	5.22465E-001	3.57700E+000	9	...........
	16	0.226667	5.36230E-001	1.00848E-004	0.00000E+000	5.40778E-005	5.99601E-002	5.36403E-001	3.57700E+000	9	...........
	17	0.24	5.49891E-001	9.91414E-005	0.00000E+000	5.45170E-005	5.99601E-002	5.50110E-001	3.57700E+000	9	...........
	18	0.253333	5.63436E-001	1.01066E-004	0.00000E+000	5.69441E-005	5.99601E-002	5.63666E-001	3.57700E+000	9	...........
	19	0.266667	5.76707E-001	1.00709E-004	0.00000E+000	5.80799E-005	5.99601E-002	5.76951E-001	3.57700E+000	9	...........
	20	0.28	5.89709E-001	1.00699E-004	0.00000E+000	5.93832E-005	5.99601E-002	5.89982E-001	3.57700E+000	9	...........
	21	0.293333	6.02492E-001	1.00640E-004	0.00000E+000	6.06345E-005	5.99601E-002	6.02760E-001	3.57700E+000	9	...........
	22	0.306667	6.15038E-001	1.00928E-004	0.00000E+000	6.20747E-005	5.99601E-002	6.15307E-001	3.57700E+000	9	...........
	23	0.32	6.27336E-001	1.00721E-004	0.00000E+000	6.31858E-005	5.99601E-002	6.27601E-001	3.57700E+000	9	...........
	24	0.333333	6.39404E-001	1.00813E-004	0.00000E+000	6.44600E-005	5.99601E-002	6.39686E-001	3.57700E+000	9	...........
	25	0.346667	6.51263E-001	1.01257E-004	0.00000E+000	6.59453E-005	5.99601E-002	6.51532E-001	3.57700E+000	9	...........
	26	0.36	6.62860E-001	1.00595E-004	0.00000E+000	6.66803E-005	5.99601E-002	6.63167E-001	3.57700E+000	9	...........
	27	0.373333	6.74274E-001	1.00828E-004	0.00000E+000	6.79859E-005	5.99601E-002	6.74544E-001	3.57700E+000	9	...........
	28	0.386667	6.85432E-001	1.00519E-004	0.00000E+000	6.88988E-005	5.99601E-002	6.85698E-001	3.57700E+000	9	...........
	29	0.4	6.96370E-001	1.01530E-004	0.00000E+000	7.07028E-005	5.99601E-002	6.96638E-001	3.57700E+000	9	...........
	30	0.413333	7.07093E-001	9.98311E-005	0.00000E+000	7.05899E-005	5.99601E-002	7.07339E-001	3.57700E+000	9	...........
	31	0.426667	7.17585E-001	1.00184E-004	0.00000E+000	7.18908E-005	5.99601E-002	7.17844E-001	3.57700E+000	9	...........
	32	0.44	7.27877E-001	1.01300E-004	0.00000E+000	7.37341E-005	5.99601E-002	7.28124E-001	3.57700E+000	9	...........
	33	0.453333	7.37915E-001	1.00328E-004	0.00000E+000	7.40337E-005	5.99601E-002	7.38163E-001	3.57700E+000	9	...........
	34	0.466667	7.47758E-001	1.01327E-004	0.00000E+000	7.57683E-005	5.99601E-002	7.47999E-001	3.57700E+000	9	...........
	35	0.48	7.57376E-001	1.01553E-004	0.00000E+000	7.69141E-005	5.99601E-002	7.57625E-001	3.57700E+000	9	...........
	36	0.493333	7.66765E-001	1.02031E-004	0.00000E+000	7.82334E-005	5.99601E-002	7.67025E-001	3.57700E+000	9	...........
	37	0.506667	7.75952E-001	1.01235E-004	0.00000E+000	7.85532E-005	5.99601E-002	7.76196E-001	3.57700E+000	9	...........
	38	0.52	7.84909E-001	1.00957E-004	0.00000E+000	7.92424E-005	5.99601E-002	7.85150E-001	3.57700E+000	9	...........
	39	0.533333	7.93651E-001	1.01635E-004	0.00000E+000	8.06624E-005	5.99601E-002	7.93918E-001	3.57700E+000	9	...........
	40	0.546667	8.02177E-001	1.01815E-004	0.00000E+000	8.16735E-005	5.99601E-002	8.02453E-001	3.57700E+000	9	...........
	41	0.56	8.10441E-001	1.02024E-004	0.00000E+000	8.26847E-005	5.99601E-002	8.10733E-001	3.57700E+000	9	...........
	42	0.573333	8.18540E-001	1.02046E-004	0.00000E+000	8.35289E-005	5.99601E-002	8.18851E-001	3.57700E+000	9	...........
	43	0.586667	8.26416E-001	1.01112E-004	0.00000E+000	8.35602E-005	5.99601E-002	8.26731E-001	3.57700E+000	9	...........
	44	0.6	8.34098E-001	1.00186E-004	0.00000E+000	8.35653E-005	5.99601E-002	8.34391E-001	3.57700E+000	9	...........
	45	0.613333	8.41530E-001	1.00843E-004	0.00000E+000	8.48623E-005	5.99601E-002	8.41838E-001	3.57700E+000	9	...........
	46	0.626667	8.48828E-001	1.00455E-004	0.00000E+000	8.52692E-005	5.99601E-002	8.49118E-001	3.57700E+000	9	...........
	47	0.64	8.55858E-001	1.00827E-004	0.00000E+000	8.62937E-005	5.99601E-002	8.56167E-001	3.57700E+000	9	...........
	48	0.653333	8.62693E-001	1.00608E-004	0.00000E+000	8.67941E-005	5.99601E-002	8.63026E-001	3.57700E+000	9	...........
	49	0.666667	8.69376E-001	1.02002E-004	0.00000E+000	8.86785E-005	5.99601E-002	8.69696E-001	3.57700E+000	9	...........
	50	0.68	8.75868E-001	1.01531E-004	0.00000E+000	8.89281E-005	5.99601E-002	8.76172E-001	3.57700E+000	9	...........
	51	0.693333	8.82129E-001	1.00495E-004	0.00000E+000	8.86494E-005	5.99601E-002	8.82423E-001	3.57808E+000	9	...........
	52	0.706667	8.88211E-001	1.01901E-004	0.00000E+000	9.05099E-005	5.99601E-002	8.88512E-001	3.57840E+000	9	...........
	53	0.72	8.94116E-001	1.01090E-004	0.00000E+000	9.03859E-005	5.99601E-002	8.94412E-001	3.57840E+000	9	...........
	54	0.733333	8.99840E-001	1.00630E-004	0.00000E+000	9.05512E-005	5.99601E-002	9.00160E-001	3.57840E+000	9	...........
	55	0.746667	9.05405E-001	1.02865E-004	0.00000E+000	9.31346E-005	5.99601E-002	9.05737E-001	3.57840E+000	9	...........
	56	0.76	9.10812E-001	1.01023E-004	0.00000E+000	9.20130E-005	5.99601E-002	9.11130E-001	3.57840E+000	9	...........
	57	0.773333	9.16056E-001	1.00888E-004	0.00000E+000	9.24187E-005	5.99601E-002	9.16397E-001	3.57840E+000	9	...........
	58	0.786667	9.21184E-001	1.01339E-004	0.00000E+000	9.33517E-005	5.99601E-002	9.21518E-001	3.57840E+000	9	...........
	59	0.8	9.26181E-001	1.01346E-004	0.00000E+000	9.38648E-005	5.99601E-002	9.26490E-001	3.57840E+000	9	...........
	60	0.813333	9.31023E-001	1.01381E-004	0.00000E+000	9.43885E-005	5.99601E-002	9.31329E-001	3.57840E+000	9	...........
	61	0.826667	9.35735E-001	1.01298E-004	0.00000E+000	9.47882E-005	5.99601E-002	9.36069E-001	3.57840E+000	9	...........
	62	0.84	9.40340E-001	1.01015E-004	0.00000E+000	9.49882E-005	5.99601E-002	9.40688E-001	3.57840E+000	9	...........
	63	0.853333	9.44846E-001	1.01491E-004	0.00000E+000	9.58932E-005	5.99601E-002	9.45201E-001	3.57840E+000	9	...........
	64	0.866667	9.49301E-001	1.00433E-004	0.00000E+000	9.53415E-005	5.99601E-002	9.49618E-001	3.57840E+000	9	...........
	65	0.88	9.53596E-001	1.01402E-004	0.00000E+000	9.66969E-005	5.99601E-002	9.53940E-001	3.57840E+000	9	...........
	66	0.893333	9.57817E-001	1.00824E-004	0.00000E+000	9.65710E-005	5.99601E-002	9.58166E-001	3.57840E+000	9	...........
	67	0.906667	9.61938E-001	1.01444E-004	0.00000E+000	9.75828E-005	5.99601E-002	9.62301E-001	3.57840E+000	9	...........
	68	0.92	9.65991E-001	1.01082E-004	0.00000E+000	9.76447E-005	5.99601E-002	9.66369E-001	3.57840E+000	9	...........
	69	0.933333	9.69947E-001	1.01144E-004	0.00000E+000	9.81043E-005	5.99601E-002	9.70338E-001	3.57840E+000	9	...........
	70	0.946667	9.73896E-001	1.00933E-004	0.00000E+000	9.82987E-005	5.99601E-002	9.74270E-001	3.57840E+000	9	...........
	71	0.96	9.77705E-001	1.00432E-004	0.00000E+000	9.81932E-005	5.99601E-002	9.78080E-001	3.57840E+000	9	...........
	72	0.97333	9.81423E-001	1.02496E-004	0.00000E+000	1.00592E-004	5.99601E-002	9.81804E-001	3.57840E+000	9	...........
	73	0.98667	9.85069E-001	1.01707E-004	0.00000E+000	1.00188E-004	5.99601E-002	9.85456E-001	3.57840E+000	9	...........
	74	1	9.88634E-001	1.00184E-004	0.00000E+000	9.90457E-005	5.99601E-002	9.89001E-001	3.57840E+000	9	...........
	75	1.01333	9.92094E-001	1.01035E-004	0.00000E+000	1.00236E-004	5.99601E-002	9.92491E-001	3.57840E+000	9	...........
	76	1.02667	9.95504E-001	1.00453E-004	0.00000E+000	1.00002E-004	5.99601E-002	9.95886E-001	3.57840E+000	9	...........
	77	1.04	9.98841E-001	1.00945E-004	0.00000E+000	1.00828E-004	5.99601E-002	9.99205E-001	3.57840E+000	9	...........
STARTTIMEOFFSET	QUANT	408.6251	Start Time Offset (s)
