EXPLAIN
TAG	PWR800_CHARGE
TITLE	LABEL	PWR Cyclic Charge Discharge (Cell) - Charge Step	Test &Identifier
DATE	LABEL	12-7-2017	Date
TIME	LABEL	16:45:50	Time
NOTES	NOTES	2	&Notes...
	supercap test cell
	6M KOH
PSTAT	PSTAT	IFC5000-01520	Potentiostat
CAPACITY	QUANT	1.00000E-003	Capacity (A-hr)
CELLTYPE	SELECTOR	1	&Cell Type
WORKINGCONNECTION	SELECTOR	0	&Working Lead
MAXCHARGETIME	VARIABLEANDUNITS	1.00000E+002	s	1.00000E+002	second(s)	Max &Charge Time
CHARGECURRENT	QUANT	1.00000E-004	&Charge Current (A) 
VOLTAGEFINISH	TWOPARAM	F	1.00000E-003	3.60000E+003	&Voltage Finish	 I (A) < 	Max Time(s)
SAMPLETIME	QUANT	1.00000E-002	Sa&mple Period (s)
CHARGESTOPAT1	MULTIPARAM	4	1.00000E+000	Charge Stop At &1	Voltage > Limit	V
CHARGESTOPAT2	MULTIPARAM	0	0.00000E+000	Charge Stop At &2	None	N/A
AESBHCSELECTOR	TOGGLE	F	Save Both Half Cells
IRCOMP	TOGGLE	F	IR &Measure
EOC	QUANT	0	Open Circuit (V)
SEQUENCER	TOGGLE	TRUE	Run as Sequence
PSTATMODEL	IQUANT	53	Pstat Model
PSTATSECTION	LABEL	IFC5000-01520	Pstat Section
PSTATSERIALNO	LABEL	01520	Pstat Serial Number
CTRLMODE	IQUANT	0	Control Mode
ELECTROMETER	IQUANT	1	RE=0 or CS=1
IESTAB	IQUANT	0	I/E Stability
CASPEED	IQUANT	4	Control Amp Speed
CONVENTION	IQUANT	1	Current Convention
ICHRANGE	IQUANT	2	Ich Range
ICHRANGEMODE	TOGGLE	T	Ich Auto Range
ICHOFFSETENABLE	TOGGLE	F	Ich Offset Enable
ICHOFFSET	QUANT	0	Ich Offset (V)
ICHFILTER	IQUANT	1	Ich Filter
VCHRANGE	IQUANT	2	Vch Range
VCHRANGEMODE	TOGGLE	T	Vch Auto Range
VCHOFFSETENABLE	TOGGLE	F	Vch Offset Enable
VCHOFFSET	QUANT	0	Vch Offset (V)
VCHFILTER	IQUANT	1	Vch Filter
IERANGELOWERLIMIT	IQUANT	9	I/E Range Lower Limit
IERANGEMODE	TOGGLE	F	I/E AutoRange
IERANGE	IQUANT	9	I/E Range
ACHSELECT	IQUANT	1	Ach Select
ACHRANGE	IQUANT	2	Ach Range
ACHOFFSETENABLE	TOGGLE	F	Ach Offset Enable
ACHOFFSET	QUANT	0	Ach Offset (V)
ACHFILTER	IQUANT	1	Ach Filter
CABLEID	IQUANT	14	Cable ID
DCCALDATE	LABEL	5-7-2017	DC Calibration Date
ACCALDATE	LABEL	12/3/2015	AC Calibration Date
FRAMEWORKVERSION	QUANT	7.01	Framework Version
INSTRUMENTVERSION	LABEL	4.00	Instrument Version
CURVE	TABLE	75
	Pt	T	Vf	Im	Vu	Pwr	Sig	Ach	Temp	IERange	Over
	#	s	V	A	V	W	V	V	deg C	#	bits
	0	0.013333	2.56678E-001	1.01272E-004	0.00000E+000	2.59943E-005	5.99601E-002	2.56757E-001	3.57790E+000	9	...........
	1	0.026667	2.79783E-001	1.01471E-004	0.00000E+000	2.83899E-005	5.99601E-002	2.79842E-001	3.57790E+000	9	...........
	2	0.04	3.01627E-001	1.01861E-004	0.00000E+000	3.07239E-005	5.99601E-002	3.01685E-001	3.57790E+000	9	...........
	3	0.053333	3.22554E-001	1.01379E-004	0.00000E+000	3.27003E-005	5.99601E-002	3.22615E-001	3.57790E+000	9	...........
	4	0.066667	3.42751E-001	1.01784E-004	0.00000E+000	3.48864E-005	5.99601E-002	3.42820E-001	3.57790E+000	9	...........
	5	0.08	3.62362E-001	1.00425E-004	0.00000E+000	3.63902E-005	5.99601E-002	3.62432E-001	3.57790E+000	9	...........
	6	0.093333	3.81446E-001	1.01526E-004	0.00000E+000	3.87268E-005	5.99601E-002	3.81516E-001	3.57790E+000	9	...........
	7	0.106667	4.00053E-001	1.00715E-004	0.00000E+000	4.02912E-005	5.99601E-002	4.00132E-001	3.57790E+000	9	...........
	8	0.12	4.18213E-001	9.98853E-005	0.00000E+000	4.17734E-005	5.99601E-002	4.18301E-001	3.57790E+000	9	...........
	9	0.133333	4.35972E-001	1.00028E-004	0.00000E+000	4.36094E-005	5.99601E-002	4.36066E-001	3.57790E+000	9	...........
	10	0.146667	4.53337E-001	1.01235E-004	0.00000E+000	4.58934E-005	5.99601E-002	4.53435E-001	3.57790E+000	9	...........
	11	0.16	4.70325E-001	1.01352E-004	0.00000E+000	4.76685E-005	5.99601E-002	4.70427E-001	3.57790E+000	9	...........
	12	0.173333	4.86943E-001	9.98676E-005	0.00000E+000	4.86298E-005	5.99601E-002	4.87053E-001	3.57790E+000	9	...........
	13	0.186667	5.03209E-001	1.00181E-004	0.00000E+000	5.04121E-005	5.99601E-002	5.03316E-001	3.57790E+000	9	...........
	14	0.2	5.19118E-001	1.01845E-004	0.00000E+000	5.28696E-005	5.99601E-002	5.19233E-001	3.57790E+000	9	...........
	15	0.213333	5.34529E-001	1.00924E-004	0.00000E+000	5.39469E-005	5.99601E-002	5.34692E-001	3.57790E+000	9	...........
	16	0.226667	5.49598E-001	1.00200E-004	0.00000E+000	5.50697E-005	5.99601E-002	5.49827E-001	3.57790E+000	9	...........
	17	0.24	5.64489E-001	1.00628E-004	0.00000E+000	5.68035E-005	5.99601E-002	5.64725E-001	3.57790E+000	9	...........
	18	0.253333	5.79044E-001	1.01151E-004	0.00000E+000	5.85710E-005	5.99601E-002	5.79258E-001	3.57790E+000	9	...........
	19	0.266667	5.93247E-001	1.00279E-004	0.00000E+000	5.94903E-005	5.99601E-002	5.93471E-001	3.57790E+000	9	...........
	20	0.28	6.07090E-001	1.01264E-004	0.00000E+000	6.14762E-005	5.99601E-002	6.07331E-001	3.57790E+000	9	...........
	21	0.293333	6.20710E-001	1.00659E-004	0.00000E+000	6.24803E-005	5.99601E-002	6.20906E-001	3.57790E+000	9	...........
	22	0.306667	6.33904E-001	1.00328E-004	0.00000E+000	6.35984E-005	5.99601E-002	6.34118E-001	3.57790E+000	9	...........
	23	0.32	6.46833E-001	1.00248E-004	0.00000E+000	6.48436E-005	5.99601E-002	6.47048E-001	3.57790E+000	9	...........
	24	0.333333	6.59435E-001	1.01123E-004	0.00000E+000	6.66841E-005	5.99601E-002	6.59655E-001	3.57790E+000	9	...........
	25	0.346667	6.71727E-001	1.00117E-004	0.00000E+000	6.72511E-005	5.99601E-002	6.71974E-001	3.57790E+000	9	...........
	26	0.36	6.83685E-001	1.01063E-004	0.00000E+000	6.90950E-005	5.99601E-002	6.83934E-001	3.57790E+000	9	...........
	27	0.373333	6.95346E-001	1.01702E-004	0.00000E+000	7.07183E-005	5.99601E-002	6.95609E-001	3.57790E+000	9	...........
	28	0.386667	7.06703E-001	1.00933E-004	0.00000E+000	7.13299E-005	5.99601E-002	7.06969E-001	3.57790E+000	9	...........
	29	0.4	7.17762E-001	1.01247E-004	0.00000E+000	7.26713E-005	5.99601E-002	7.18039E-001	3.57790E+000	9	...........
	30	0.413333	7.28568E-001	1.02389E-004	0.00000E+000	7.45973E-005	5.99601E-002	7.28816E-001	3.57790E+000	9	...........
	31	0.426667	7.39030E-001	1.00578E-004	0.00000E+000	7.43302E-005	5.99601E-002	7.39298E-001	3.57790E+000	9	...........
	32	0.44	7.49247E-001	1.00871E-004	0.00000E+000	7.55773E-005	5.99601E-002	7.49511E-001	3.57790E+000	9	...........
	33	0.453333	7.59162E-001	1.00667E-004	0.00000E+000	7.64224E-005	5.99601E-002	7.59417E-001	3.57790E+000	9	...........
	34	0.466667	7.68792E-001	1.02019E-004	0.00000E+000	7.84314E-005	5.99601E-002	7.69072E-001	3.57790E+000	9	...........
	35	0.48	7.78155E-001	1.00556E-004	0.00000E+000	7.82484E-005	5.99601E-002	7.78449E-001	3.57790E+000	9	...........
	36	0.493333	7.87256E-001	1.01124E-004	0.00000E+000	7.96106E-005	5.99601E-002	7.87525E-001	3.57790E+000	9	...........
	37	0.506667	7.96101E-001	1.01365E-004	0.00000E+000	8.06966E-005	5.99601E-002	7.96370E-001	3.57790E+000	9	...........
	38	0.52	8.04644E-001	1.01295E-004	0.00000E+000	8.15064E-005	5.99601E-002	8.04940E-001	3.57790E+000	9	...........
	39	0.533333	8.12942E-001	1.00985E-004	0.00000E+000	8.20945E-005	5.99601E-002	8.13205E-001	3.57790E+000	9	...........
	40	0.546667	8.20989E-001	1.01891E-004	0.00000E+000	8.36513E-005	5.99601E-002	8.21278E-001	3.57790E+000	9	...........
	41	0.56	8.28764E-001	9.95884E-005	0.00000E+000	8.25353E-005	5.99601E-002	8.29067E-001	3.57790E+000	9	...........
	42	0.573333	8.36298E-001	1.00482E-004	0.00000E+000	8.40332E-005	5.99601E-002	8.36597E-001	3.57790E+000	9	...........
	43	0.586667	8.43607E-001	1.01693E-004	0.00000E+000	8.57889E-005	5.99601E-002	8.43943E-001	3.57790E+000	9	...........
	44	0.6	8.50701E-001	9.99718E-005	0.00000E+000	8.50461E-005	5.99601E-002	8.51028E-001	3.57790E+000	9	...........
	45	0.613333	8.57562E-001	1.00619E-004	0.00000E+000	8.62869E-005	5.99601E-002	8.57887E-001	3.57790E+000	9	...........
	46	0.626667	8.64203E-001	1.01923E-004	0.00000E+000	8.80824E-005	5.99601E-002	8.64529E-001	3.57790E+000	9	...........
	47	0.64	8.70653E-001	1.01249E-004	0.00000E+000	8.81529E-005	5.99601E-002	8.71007E-001	3.57790E+000	9	...........
	48	0.653333	8.76933E-001	1.01305E-004	0.00000E+000	8.88381E-005	5.99601E-002	8.77248E-001	3.57790E+000	9	...........
	49	0.666667	8.82996E-001	1.01713E-004	0.00000E+000	8.98120E-005	5.99601E-002	8.83331E-001	3.57790E+000	9	...........
	50	0.68	8.88915E-001	1.00852E-004	0.00000E+000	8.96490E-005	5.99601E-002	8.89231E-001	3.57790E+000	9	...........
	51	0.693333	8.94670E-001	1.02421E-004	0.00000E+000	9.16332E-005	5.99601E-002	8.94993E-001	3.57790E+000	9	...........
	52	0.706667	9.00305E-001	1.00960E-004	0.00000E+000	9.08944E-005	5.99601E-002	9.00622E-001	3.57790E+000	9	...........
	53	0.72	9.05767E-001	1.00898E-004	0.00000E+000	9.13902E-005	5.99601E-002	9.06114E-001	3.57790E+000	9	...........
	54	0.733333	9.11164E-001	1.01633E-004	0.00000E+000	9.26040E-005	5.99601E-002	9.11475E-001	3.57790E+000	9	...........
	55	0.746667	9.16415E-001	9.98509E-005	0.00000E+000	9.15049E-005	5.99601E-002	9.16734E-001	3.57790E+000	9	...........
	56	0.76	9.21593E-001	1.00194E-004	0.00000E+000	9.23379E-005	5.99601E-002	9.21897E-001	3.57790E+000	9	...........
	57	0.773333	9.26650E-001	1.01440E-004	0.00000E+000	9.39992E-005	5.99601E-002	9.26963E-001	3.57790E+000	9	...........
	58	0.786667	9.31599E-001	9.98624E-005	0.00000E+000	9.30318E-005	5.99601E-002	9.31900E-001	3.57790E+000	9	...........
	59	0.8	9.36503E-001	1.02147E-004	0.00000E+000	9.56612E-005	5.99601E-002	9.36796E-001	3.57790E+000	9	...........
	60	0.813333	9.41283E-001	1.01016E-004	0.00000E+000	9.50844E-005	5.99601E-002	9.41594E-001	3.57790E+000	9	...........
	61	0.826667	9.46017E-001	1.00672E-004	0.00000E+000	9.52374E-005	5.99601E-002	9.46321E-001	3.57790E+000	9	...........
	62	0.84	9.50652E-001	9.96978E-005	0.00000E+000	9.47778E-005	5.99601E-002	9.50968E-001	3.57790E+000	9	...........
	63	0.853333	9.55242E-001	1.00124E-004	0.00000E+000	9.56426E-005	5.99601E-002	9.55536E-001	3.57790E+000	9	...........
	64	0.866667	9.59715E-001	1.00298E-004	0.00000E+000	9.62574E-005	5.99601E-002	9.60028E-001	3.57790E+000	9	...........
	65	0.88	9.64122E-001	1.01362E-004	0.00000E+000	9.77250E-005	5.99601E-002	9.64459E-001	3.57790E+000	9	...........
	66	0.893333	9.68441E-001	1.01573E-004	0.00000E+000	9.83676E-005	5.99601E-002	9.68794E-001	3.57790E+000	9	...........
	67	0.906667	9.72737E-001	1.00185E-004	0.00000E+000	9.74540E-005	5.99601E-002	9.73076E-001	3.57790E+000	9	...........
	68	0.92	9.76950E-001	1.01987E-004	0.00000E+000	9.96360E-005	5.99601E-002	9.77278E-001	3.57790E+000	9	...........
	69	0.933333	9.81039E-001	1.01633E-004	0.00000E+000	9.97055E-005	5.99601E-002	9.81356E-001	3.57790E+000	9	...........
	70	0.946667	9.85076E-001	1.00798E-004	0.00000E+000	9.92937E-005	5.99601E-002	9.85386E-001	3.57790E+000	9	...........
	71	0.96	9.89004E-001	1.00518E-004	0.00000E+000	9.94125E-005	5.99601E-002	9.89329E-001	3.57790E+000	9	...........
	72	0.97333	9.92851E-001	1.00776E-004	0.00000E+000	1.00056E-004	5.99601E-002	9.93186E-001	3.57790E+000	9	...........
	73	0.98667	9.96650E-001	1.00813E-004	0.00000E+000	1.00475E-004	5.99601E-002	9.96984E-001	3.57790E+000	9	...........
	74	0.99333	9.99466E-001	1.00852E-004	0.00000E+000	1.00798E-004	5.99601E-002	9.99762E-001	3.57790E+000	9	...........
STARTTIMEOFFSET	QUANT	1525.612	Start Time Offset (s)
