EXPLAIN
TAG	PWR800_CHARGE
TITLE	LABEL	PWR Cyclic Charge Discharge (Cell) - Charge Step	Test &Identifier
DATE	LABEL	12-7-2017	Date
TIME	LABEL	16:13:34	Time
NOTES	NOTES	2	&Notes...
	supercap test cell
	6M KOH
PSTAT	PSTAT	IFC5000-01520	Potentiostat
CAPACITY	QUANT	1.00000E-003	Capacity (A-hr)
CELLTYPE	SELECTOR	1	&Cell Type
WORKINGCONNECTION	SELECTOR	0	&Working Lead
MAXCHARGETIME	VARIABLEANDUNITS	1.00000E+002	s	1.00000E+002	second(s)	Max &Charge Time
CHARGECURRENT	QUANT	1.00000E-004	&Charge Current (A) 
VOLTAGEFINISH	TWOPARAM	F	1.00000E-003	3.60000E+003	&Voltage Finish	 I (A) < 	Max Time(s)
SAMPLETIME	QUANT	1.00000E-002	Sa&mple Period (s)
CHARGESTOPAT1	MULTIPARAM	4	1.00000E+000	Charge Stop At &1	Voltage > Limit	V
CHARGESTOPAT2	MULTIPARAM	0	0.00000E+000	Charge Stop At &2	None	N/A
AESBHCSELECTOR	TOGGLE	F	Save Both Half Cells
IRCOMP	TOGGLE	F	IR &Measure
EOC	QUANT	0	Open Circuit (V)
SEQUENCER	TOGGLE	TRUE	Run as Sequence
PSTATMODEL	IQUANT	53	Pstat Model
PSTATSECTION	LABEL	IFC5000-01520	Pstat Section
PSTATSERIALNO	LABEL	01520	Pstat Serial Number
CTRLMODE	IQUANT	0	Control Mode
ELECTROMETER	IQUANT	1	RE=0 or CS=1
IESTAB	IQUANT	0	I/E Stability
CASPEED	IQUANT	4	Control Amp Speed
CONVENTION	IQUANT	1	Current Convention
ICHRANGE	IQUANT	2	Ich Range
ICHRANGEMODE	TOGGLE	T	Ich Auto Range
ICHOFFSETENABLE	TOGGLE	F	Ich Offset Enable
ICHOFFSET	QUANT	0	Ich Offset (V)
ICHFILTER	IQUANT	1	Ich Filter
VCHRANGE	IQUANT	2	Vch Range
VCHRANGEMODE	TOGGLE	T	Vch Auto Range
VCHOFFSETENABLE	TOGGLE	F	Vch Offset Enable
VCHOFFSET	QUANT	0	Vch Offset (V)
VCHFILTER	IQUANT	1	Vch Filter
IERANGELOWERLIMIT	IQUANT	9	I/E Range Lower Limit
IERANGEMODE	TOGGLE	F	I/E AutoRange
IERANGE	IQUANT	9	I/E Range
ACHSELECT	IQUANT	1	Ach Select
ACHRANGE	IQUANT	2	Ach Range
ACHOFFSETENABLE	TOGGLE	F	Ach Offset Enable
ACHOFFSET	QUANT	0	Ach Offset (V)
ACHFILTER	IQUANT	1	Ach Filter
CABLEID	IQUANT	14	Cable ID
DCCALDATE	LABEL	5-7-2017	DC Calibration Date
ACCALDATE	LABEL	12/3/2015	AC Calibration Date
FRAMEWORKVERSION	QUANT	7.01	Framework Version
INSTRUMENTVERSION	LABEL	4.00	Instrument Version
CURVE	TABLE	81
	Pt	T	Vf	Im	Vu	Pwr	Sig	Ach	Temp	IERange	Over
	#	s	V	A	V	W	V	V	deg C	#	bits
	0	0.013333	2.59531E-001	1.00967E-004	0.00000E+000	2.62040E-005	5.99601E-002	2.59606E-001	3.57740E+000	9	...........
	1	0.026667	2.82252E-001	1.01356E-004	0.00000E+000	2.86080E-005	5.99601E-002	2.82311E-001	3.57740E+000	9	...........
	2	0.04	3.03356E-001	1.01391E-004	0.00000E+000	3.07576E-005	5.99601E-002	3.03425E-001	3.57740E+000	9	...........
	3	0.053333	3.23245E-001	1.00749E-004	0.00000E+000	3.25666E-005	5.99601E-002	3.23313E-001	3.57740E+000	9	...........
	4	0.066667	3.42108E-001	1.00551E-004	0.00000E+000	3.43993E-005	5.99601E-002	3.42180E-001	3.57740E+000	9	...........
	5	0.08	3.60119E-001	1.01200E-004	0.00000E+000	3.64441E-005	5.99601E-002	3.60193E-001	3.57740E+000	9	...........
	6	0.093333	3.77384E-001	1.01359E-004	0.00000E+000	3.82510E-005	5.99601E-002	3.77454E-001	3.57740E+000	9	...........
	7	0.106667	3.93988E-001	1.01343E-004	0.00000E+000	3.99279E-005	5.99601E-002	3.94066E-001	3.57740E+000	9	...........
	8	0.12	4.10028E-001	1.00688E-004	0.00000E+000	4.12847E-005	5.99601E-002	4.10114E-001	3.57740E+000	9	...........
	9	0.133333	4.25571E-001	1.01020E-004	0.00000E+000	4.29911E-005	5.99601E-002	4.25656E-001	3.57740E+000	9	...........
	10	0.146667	4.40664E-001	1.00533E-004	0.00000E+000	4.43014E-005	5.99601E-002	4.40755E-001	3.57740E+000	9	...........
	11	0.16	4.55349E-001	1.01178E-004	0.00000E+000	4.60715E-005	5.99601E-002	4.55443E-001	3.57740E+000	9	...........
	12	0.173333	4.69664E-001	1.00460E-004	0.00000E+000	4.71826E-005	5.99601E-002	4.69763E-001	3.57740E+000	9	...........
	13	0.186667	4.83651E-001	1.00780E-004	0.00000E+000	4.87425E-005	5.99601E-002	4.83752E-001	3.57740E+000	9	...........
	14	0.2	4.97323E-001	1.01255E-004	0.00000E+000	5.03566E-005	5.99601E-002	4.97433E-001	3.57740E+000	9	...........
	15	0.213333	5.10716E-001	1.00899E-004	0.00000E+000	5.15308E-005	5.99601E-002	5.10824E-001	3.57740E+000	9	...........
	16	0.226667	5.23836E-001	1.01334E-004	0.00000E+000	5.30822E-005	5.99601E-002	5.23954E-001	3.57740E+000	9	...........
	17	0.24	5.36500E-001	1.00858E-004	0.00000E+000	5.41106E-005	5.99601E-002	5.36680E-001	3.57740E+000	9	...........
	18	0.253333	5.49018E-001	1.01166E-004	0.00000E+000	5.55419E-005	5.99601E-002	5.49286E-001	3.57740E+000	9	...........
	19	0.266667	5.61440E-001	1.00416E-004	0.00000E+000	5.63774E-005	5.99601E-002	5.61704E-001	3.57740E+000	9	...........
	20	0.28	5.73658E-001	1.00421E-004	0.00000E+000	5.76073E-005	5.99601E-002	5.73915E-001	3.57740E+000	9	...........
	21	0.293333	5.85643E-001	1.01232E-004	0.00000E+000	5.92861E-005	5.99601E-002	5.85915E-001	3.57740E+000	9	...........
	22	0.306667	5.97436E-001	1.01242E-004	0.00000E+000	6.04855E-005	5.99601E-002	5.97701E-001	3.57740E+000	9	...........
	23	0.32	6.09025E-001	1.00731E-004	0.00000E+000	6.13479E-005	5.99601E-002	6.09302E-001	3.57740E+000	9	...........
	24	0.333333	6.20483E-001	1.01103E-004	0.00000E+000	6.27329E-005	5.99601E-002	6.20731E-001	3.57740E+000	9	...........
	25	0.346667	6.31705E-001	1.01253E-004	0.00000E+000	6.39622E-005	5.99601E-002	6.31952E-001	3.57740E+000	9	...........
	26	0.36	6.42799E-001	1.00425E-004	0.00000E+000	6.45531E-005	5.99601E-002	6.43013E-001	3.57740E+000	9	...........
	27	0.373333	6.53661E-001	1.01560E-004	0.00000E+000	6.63855E-005	5.99601E-002	6.53893E-001	3.57740E+000	9	...........
	28	0.386667	6.64378E-001	1.01455E-004	0.00000E+000	6.74048E-005	5.99601E-002	6.64585E-001	3.57740E+000	9	...........
	29	0.4	6.74938E-001	1.02002E-004	0.00000E+000	6.88454E-005	5.99601E-002	6.75140E-001	3.57740E+000	9	...........
	30	0.413333	6.85296E-001	1.00799E-004	0.00000E+000	6.90772E-005	5.99601E-002	6.85478E-001	3.57740E+000	9	...........
	31	0.426667	6.95496E-001	1.01177E-004	0.00000E+000	7.03684E-005	5.99601E-002	6.95705E-001	3.57740E+000	9	...........
	32	0.44	7.05521E-001	1.01340E-004	0.00000E+000	7.14973E-005	5.99601E-002	7.05732E-001	3.57740E+000	9	...........
	33	0.453333	7.15397E-001	1.01671E-004	0.00000E+000	7.27352E-005	5.99601E-002	7.15600E-001	3.57740E+000	9	...........
	34	0.466667	7.25082E-001	1.01025E-004	0.00000E+000	7.32515E-005	5.99601E-002	7.25321E-001	3.57740E+000	9	...........
	35	0.48	7.34612E-001	1.01080E-004	0.00000E+000	7.42548E-005	5.99601E-002	7.34869E-001	3.57740E+000	9	...........
	36	0.493333	7.43969E-001	1.01066E-004	0.00000E+000	7.51898E-005	5.99601E-002	7.44254E-001	3.57740E+000	9	...........
	37	0.506667	7.53166E-001	1.01618E-004	0.00000E+000	7.65352E-005	5.99601E-002	7.53434E-001	3.57740E+000	9	...........
	38	0.52	7.62173E-001	1.01243E-004	0.00000E+000	7.71646E-005	5.99601E-002	7.62471E-001	3.57740E+000	9	...........
	39	0.533333	7.71045E-001	1.00757E-004	0.00000E+000	7.76885E-005	5.99601E-002	7.71354E-001	3.57740E+000	9	...........
	40	0.546667	7.79721E-001	1.01343E-004	0.00000E+000	7.90192E-005	5.99601E-002	7.80031E-001	3.57740E+000	9	...........
	41	0.56	7.88225E-001	1.01177E-004	0.00000E+000	7.97505E-005	5.99601E-002	7.88525E-001	3.57740E+000	9	...........
	42	0.573333	7.96575E-001	1.01236E-004	0.00000E+000	8.06417E-005	5.99601E-002	7.96877E-001	3.57740E+000	9	...........
	43	0.586667	8.04725E-001	1.01286E-004	0.00000E+000	8.15071E-005	5.99601E-002	8.05037E-001	3.57740E+000	9	...........
	44	0.6	8.12688E-001	1.00968E-004	0.00000E+000	8.20554E-005	5.99601E-002	8.13012E-001	3.57740E+000	9	...........
	45	0.613333	8.20523E-001	1.00386E-004	0.00000E+000	8.23694E-005	5.99601E-002	8.20845E-001	3.57740E+000	9	...........
	46	0.626667	8.28141E-001	1.00726E-004	0.00000E+000	8.34155E-005	5.99601E-002	8.28476E-001	3.57740E+000	9	...........
	47	0.64	8.35605E-001	1.01318E-004	0.00000E+000	8.46618E-005	5.99601E-002	8.35950E-001	3.57740E+000	9	...........
	48	0.653333	8.42904E-001	1.01364E-004	0.00000E+000	8.54399E-005	5.99601E-002	8.43267E-001	3.57740E+000	9	...........
	49	0.666667	8.50044E-001	1.01655E-004	0.00000E+000	8.64117E-005	5.99601E-002	8.50401E-001	3.57740E+000	9	...........
	50	0.68	8.56987E-001	1.01310E-004	0.00000E+000	8.68210E-005	5.99601E-002	8.57346E-001	3.57740E+000	9	...........
	51	0.693333	8.63752E-001	1.01412E-004	0.00000E+000	8.75945E-005	5.99601E-002	8.64126E-001	3.57740E+000	9	...........
	52	0.706667	8.70424E-001	1.01344E-004	0.00000E+000	8.82122E-005	5.99601E-002	8.70759E-001	3.57740E+000	9	...........
	53	0.72	8.76876E-001	1.01177E-004	0.00000E+000	8.87199E-005	5.99601E-002	8.77209E-001	3.57740E+000	9	...........
	54	0.733333	8.83180E-001	1.01129E-004	0.00000E+000	8.93154E-005	5.99601E-002	8.83498E-001	3.57740E+000	9	...........
	55	0.746667	8.89280E-001	1.00628E-004	0.00000E+000	8.94866E-005	5.99601E-002	8.89617E-001	3.57740E+000	9	...........
	56	0.76	8.95237E-001	1.01093E-004	0.00000E+000	9.05021E-005	5.99601E-002	8.95594E-001	3.57740E+000	9	...........
	57	0.773333	9.01043E-001	1.01931E-004	0.00000E+000	9.18438E-005	5.99601E-002	9.01380E-001	3.57740E+000	9	...........
	58	0.786667	9.06685E-001	1.01015E-004	0.00000E+000	9.15886E-005	5.99601E-002	9.07047E-001	3.57740E+000	9	...........
	59	0.8	9.12186E-001	1.00674E-004	0.00000E+000	9.18334E-005	5.99601E-002	9.12510E-001	3.57740E+000	9	...........
	60	0.813333	9.17511E-001	1.00428E-004	0.00000E+000	9.21439E-005	5.99601E-002	9.17873E-001	3.57740E+000	9	...........
	61	0.826667	9.22751E-001	1.01120E-004	0.00000E+000	9.33086E-005	5.99601E-002	9.23078E-001	3.57740E+000	9	...........
	62	0.84	9.27809E-001	1.00556E-004	0.00000E+000	9.32971E-005	5.99601E-002	9.28130E-001	3.57740E+000	9	...........
	63	0.853333	9.32715E-001	1.01355E-004	0.00000E+000	9.45357E-005	5.99601E-002	9.33053E-001	3.57740E+000	9	...........
	64	0.866667	9.37462E-001	1.01071E-004	0.00000E+000	9.47502E-005	5.99601E-002	9.37825E-001	3.57740E+000	9	...........
	65	0.88	9.42111E-001	1.01311E-004	0.00000E+000	9.54458E-005	5.99601E-002	9.42475E-001	3.57740E+000	9	...........
	66	0.893333	9.46658E-001	1.01273E-004	0.00000E+000	9.58709E-005	5.99601E-002	9.47018E-001	3.57740E+000	9	...........
	67	0.906667	9.51078E-001	1.00709E-004	0.00000E+000	9.57825E-005	5.99601E-002	9.51426E-001	3.57740E+000	9	...........
	68	0.92	9.55363E-001	1.00545E-004	0.00000E+000	9.60568E-005	5.99601E-002	9.55686E-001	3.57740E+000	9	...........
	69	0.933333	9.59539E-001	1.00708E-004	0.00000E+000	9.66336E-005	5.99601E-002	9.59876E-001	3.57740E+000	9	...........
	70	0.946667	9.63615E-001	1.01143E-004	0.00000E+000	9.74628E-005	5.99601E-002	9.63969E-001	3.57740E+000	9	...........
	71	0.96	9.67577E-001	1.00621E-004	0.00000E+000	9.73584E-005	5.99601E-002	9.67945E-001	3.57740E+000	9	...........
	72	0.97333	9.71480E-001	1.00434E-004	0.00000E+000	9.75701E-005	5.99601E-002	9.71856E-001	3.57740E+000	9	...........
	73	0.98667	9.75334E-001	1.01317E-004	0.00000E+000	9.88178E-005	5.99601E-002	9.75660E-001	3.57739E+000	9	...........
	74	1	9.79032E-001	1.00507E-004	0.00000E+000	9.83999E-005	5.99601E-002	9.79380E-001	3.57730E+000	9	...........
	75	1.01333	9.82620E-001	1.01386E-004	0.00000E+000	9.96235E-005	5.99601E-002	9.82983E-001	3.57730E+000	9	...........
	76	1.02667	9.86160E-001	1.00079E-004	0.00000E+000	9.86940E-005	5.99601E-002	9.86537E-001	3.57730E+000	9	...........
	77	1.04	9.89583E-001	1.00725E-004	0.00000E+000	9.96759E-005	5.99601E-002	9.89980E-001	3.57730E+000	9	...........
	78	1.05333	9.92945E-001	1.01319E-004	0.00000E+000	1.00604E-004	5.99601E-002	9.93341E-001	3.57730E+000	9	...........
	79	1.06667	9.96226E-001	1.00773E-004	0.00000E+000	1.00393E-004	5.99601E-002	9.96604E-001	3.57730E+000	9	...........
	80	1.07833	9.99214E-001	1.00613E-004	0.00000E+000	1.00534E-004	5.99601E-002	9.99602E-001	3.57730E+000	9	...........
STARTTIMEOFFSET	QUANT	149.5417	Start Time Offset (s)
