EXPLAIN
TAG	PWR800_CHARGE
TITLE	LABEL	PWR Cyclic Charge Discharge (Cell) - Charge Step	Test &Identifier
DATE	LABEL	12-7-2017	Date
TIME	LABEL	16:26:21	Time
NOTES	NOTES	2	&Notes...
	supercap test cell
	6M KOH
PSTAT	PSTAT	IFC5000-01520	Potentiostat
CAPACITY	QUANT	1.00000E-003	Capacity (A-hr)
CELLTYPE	SELECTOR	1	&Cell Type
WORKINGCONNECTION	SELECTOR	0	&Working Lead
MAXCHARGETIME	VARIABLEANDUNITS	1.00000E+002	s	1.00000E+002	second(s)	Max &Charge Time
CHARGECURRENT	QUANT	1.00000E-004	&Charge Current (A) 
VOLTAGEFINISH	TWOPARAM	F	1.00000E-003	3.60000E+003	&Voltage Finish	 I (A) < 	Max Time(s)
SAMPLETIME	QUANT	1.00000E-002	Sa&mple Period (s)
CHARGESTOPAT1	MULTIPARAM	4	1.00000E+000	Charge Stop At &1	Voltage > Limit	V
CHARGESTOPAT2	MULTIPARAM	0	0.00000E+000	Charge Stop At &2	None	N/A
AESBHCSELECTOR	TOGGLE	F	Save Both Half Cells
IRCOMP	TOGGLE	F	IR &Measure
EOC	QUANT	0	Open Circuit (V)
SEQUENCER	TOGGLE	TRUE	Run as Sequence
PSTATMODEL	IQUANT	53	Pstat Model
PSTATSECTION	LABEL	IFC5000-01520	Pstat Section
PSTATSERIALNO	LABEL	01520	Pstat Serial Number
CTRLMODE	IQUANT	0	Control Mode
ELECTROMETER	IQUANT	1	RE=0 or CS=1
IESTAB	IQUANT	0	I/E Stability
CASPEED	IQUANT	4	Control Amp Speed
CONVENTION	IQUANT	1	Current Convention
ICHRANGE	IQUANT	2	Ich Range
ICHRANGEMODE	TOGGLE	T	Ich Auto Range
ICHOFFSETENABLE	TOGGLE	F	Ich Offset Enable
ICHOFFSET	QUANT	0	Ich Offset (V)
ICHFILTER	IQUANT	1	Ich Filter
VCHRANGE	IQUANT	2	Vch Range
VCHRANGEMODE	TOGGLE	T	Vch Auto Range
VCHOFFSETENABLE	TOGGLE	F	Vch Offset Enable
VCHOFFSET	QUANT	0	Vch Offset (V)
VCHFILTER	IQUANT	1	Vch Filter
IERANGELOWERLIMIT	IQUANT	9	I/E Range Lower Limit
IERANGEMODE	TOGGLE	F	I/E AutoRange
IERANGE	IQUANT	9	I/E Range
ACHSELECT	IQUANT	1	Ach Select
ACHRANGE	IQUANT	2	Ach Range
ACHOFFSETENABLE	TOGGLE	F	Ach Offset Enable
ACHOFFSET	QUANT	0	Ach Offset (V)
ACHFILTER	IQUANT	1	Ach Filter
CABLEID	IQUANT	14	Cable ID
DCCALDATE	LABEL	5-7-2017	DC Calibration Date
ACCALDATE	LABEL	12/3/2015	AC Calibration Date
FRAMEWORKVERSION	QUANT	7.01	Framework Version
INSTRUMENTVERSION	LABEL	4.00	Instrument Version
CURVE	TABLE	77
	Pt	T	Vf	Im	Vu	Pwr	Sig	Ach	Temp	IERange	Over
	#	s	V	A	V	W	V	V	deg C	#	bits
	0	0.013333	2.60271E-001	1.00480E-004	0.00000E+000	2.61521E-005	5.99601E-002	2.60337E-001	3.57680E+000	9	...........
	1	0.026667	2.83074E-001	1.00301E-004	0.00000E+000	2.83926E-005	5.99601E-002	2.83135E-001	3.57680E+000	9	...........
	2	0.04	3.04504E-001	1.01659E-004	0.00000E+000	3.09555E-005	5.99601E-002	3.04570E-001	3.57680E+000	9	...........
	3	0.053333	3.24934E-001	1.01391E-004	0.00000E+000	3.29453E-005	5.99601E-002	3.25003E-001	3.57680E+000	9	...........
	4	0.066667	3.44561E-001	1.01920E-004	0.00000E+000	3.51177E-005	5.99601E-002	3.44634E-001	3.57680E+000	9	...........
	5	0.08	3.63529E-001	1.00907E-004	0.00000E+000	3.66828E-005	5.99601E-002	3.63602E-001	3.57680E+000	9	...........
	6	0.093333	3.81926E-001	1.01360E-004	0.00000E+000	3.87118E-005	5.99601E-002	3.82000E-001	3.57680E+000	9	...........
	7	0.106667	3.99807E-001	1.01161E-004	0.00000E+000	4.04447E-005	5.99601E-002	3.99890E-001	3.57680E+000	9	...........
	8	0.12	4.17229E-001	1.01664E-004	0.00000E+000	4.24171E-005	5.99601E-002	4.17319E-001	3.57680E+000	9	...........
	9	0.133333	4.34235E-001	1.01460E-004	0.00000E+000	4.40573E-005	5.99601E-002	4.34328E-001	3.57680E+000	9	...........
	10	0.146667	4.50843E-001	1.00702E-004	0.00000E+000	4.54009E-005	5.99601E-002	4.50936E-001	3.57680E+000	9	...........
	11	0.16	4.67071E-001	1.00092E-004	0.00000E+000	4.67499E-005	5.99601E-002	4.67164E-001	3.57680E+000	9	...........
	12	0.173333	4.82947E-001	1.01452E-004	0.00000E+000	4.89961E-005	5.99601E-002	4.83055E-001	3.57680E+000	9	...........
	13	0.186667	4.98489E-001	1.00184E-004	0.00000E+000	4.99408E-005	5.99601E-002	4.98594E-001	3.57680E+000	9	...........
	14	0.2	5.13698E-001	1.01032E-004	0.00000E+000	5.19002E-005	5.99601E-002	5.13812E-001	3.57680E+000	9	...........
	15	0.213333	5.28556E-001	1.00285E-004	0.00000E+000	5.30065E-005	5.99601E-002	5.28678E-001	3.57680E+000	9	...........
	16	0.226667	5.42883E-001	1.00453E-004	0.00000E+000	5.45343E-005	5.99601E-002	5.43099E-001	3.57680E+000	9	...........
	17	0.24	5.57149E-001	1.00841E-004	0.00000E+000	5.61833E-005	5.99601E-002	5.57395E-001	3.57680E+000	9	...........
	18	0.253333	5.71137E-001	1.00316E-004	0.00000E+000	5.72940E-005	5.99601E-002	5.71398E-001	3.57680E+000	9	...........
	19	0.266667	5.84850E-001	1.00129E-004	0.00000E+000	5.85605E-005	5.99601E-002	5.85108E-001	3.57680E+000	9	...........
	20	0.28	5.98276E-001	1.00265E-004	0.00000E+000	5.99859E-005	5.99601E-002	5.98542E-001	3.57680E+000	9	...........
	21	0.293333	6.11415E-001	1.01966E-004	0.00000E+000	6.23435E-005	5.99601E-002	6.11698E-001	3.57680E+000	9	...........
	22	0.306667	6.24318E-001	1.00436E-004	0.00000E+000	6.27043E-005	5.99601E-002	6.24574E-001	3.57680E+000	9	...........
	23	0.32	6.36917E-001	1.00952E-004	0.00000E+000	6.42982E-005	5.99601E-002	6.37154E-001	3.57680E+000	9	...........
	24	0.333333	6.49263E-001	1.00015E-004	0.00000E+000	6.49357E-005	5.99601E-002	6.49491E-001	3.57680E+000	9	...........
	25	0.346667	6.61332E-001	1.01299E-004	0.00000E+000	6.69924E-005	5.99601E-002	6.61545E-001	3.57680E+000	9	...........
	26	0.36	6.73144E-001	1.00492E-004	0.00000E+000	6.76454E-005	5.99601E-002	6.73359E-001	3.57680E+000	9	...........
	27	0.373333	6.84677E-001	1.00914E-004	0.00000E+000	6.90933E-005	5.99601E-002	6.84893E-001	3.57680E+000	9	...........
	28	0.386667	6.95954E-001	1.01108E-004	0.00000E+000	7.03668E-005	5.99601E-002	6.96187E-001	3.57680E+000	9	...........
	29	0.4	7.06971E-001	1.00944E-004	0.00000E+000	7.13644E-005	5.99601E-002	7.07217E-001	3.57680E+000	9	...........
	30	0.413333	7.17737E-001	1.00863E-004	0.00000E+000	7.23928E-005	5.99601E-002	7.18015E-001	3.57680E+000	9	...........
	31	0.426667	7.28268E-001	1.01530E-004	0.00000E+000	7.39414E-005	5.99601E-002	7.28531E-001	3.57680E+000	9	...........
	32	0.44	7.38534E-001	1.00878E-004	0.00000E+000	7.45021E-005	5.99601E-002	7.38774E-001	3.57680E+000	9	...........
	33	0.453333	7.48568E-001	1.01402E-004	0.00000E+000	7.59065E-005	5.99601E-002	7.48779E-001	3.57680E+000	9	...........
	34	0.466667	7.58310E-001	1.01352E-004	0.00000E+000	7.68565E-005	5.99601E-002	7.58549E-001	3.57680E+000	9	...........
	35	0.48	7.67831E-001	1.01073E-004	0.00000E+000	7.76071E-005	5.99601E-002	7.68071E-001	3.57680E+000	9	...........
	36	0.493333	7.77107E-001	9.99166E-005	0.00000E+000	7.76459E-005	5.99601E-002	7.77351E-001	3.57680E+000	9	...........
	37	0.506667	7.86143E-001	1.01116E-004	0.00000E+000	7.94915E-005	5.99601E-002	7.86377E-001	3.57680E+000	9	...........
	38	0.52	7.94923E-001	1.00961E-004	0.00000E+000	8.02558E-005	5.99601E-002	7.95204E-001	3.57680E+000	9	...........
	39	0.533333	8.03465E-001	1.01697E-004	0.00000E+000	8.17101E-005	5.99601E-002	8.03730E-001	3.57680E+000	9	...........
	40	0.546667	8.11770E-001	1.01175E-004	0.00000E+000	8.21310E-005	5.99601E-002	8.12033E-001	3.57680E+000	9	...........
	41	0.56	8.19857E-001	1.01174E-004	0.00000E+000	8.29483E-005	5.99601E-002	8.20142E-001	3.57680E+000	9	...........
	42	0.573333	8.27674E-001	1.00539E-004	0.00000E+000	8.32131E-005	5.99601E-002	8.27985E-001	3.57680E+000	9	...........
	43	0.586667	8.35289E-001	1.01293E-004	0.00000E+000	8.46088E-005	5.99601E-002	8.35613E-001	3.57680E+000	9	...........
	44	0.6	8.42682E-001	1.01284E-004	0.00000E+000	8.53498E-005	5.99601E-002	8.43019E-001	3.57680E+000	9	...........
	45	0.613333	8.49871E-001	1.00865E-004	0.00000E+000	8.57219E-005	5.99601E-002	8.50208E-001	3.57680E+000	9	...........
	46	0.626667	8.56807E-001	1.00767E-004	0.00000E+000	8.63376E-005	5.99601E-002	8.57171E-001	3.57680E+000	9	...........
	47	0.64	8.63544E-001	1.01684E-004	0.00000E+000	8.78083E-005	5.99601E-002	8.63909E-001	3.57680E+000	9	...........
	48	0.653333	8.70123E-001	1.00813E-004	0.00000E+000	8.77194E-005	5.99601E-002	8.70478E-001	3.57680E+000	9	...........
	49	0.666667	8.76457E-001	1.00423E-004	0.00000E+000	8.80163E-005	5.99601E-002	8.76801E-001	3.57680E+000	9	...........
	50	0.68	8.82603E-001	9.99833E-005	0.00000E+000	8.82455E-005	5.99601E-002	8.82932E-001	3.57680E+000	9	...........
	51	0.693333	8.88587E-001	1.01753E-004	0.00000E+000	9.04168E-005	5.99601E-002	8.88902E-001	3.57680E+000	9	...........
	52	0.706667	8.94343E-001	1.01203E-004	0.00000E+000	9.05105E-005	5.99601E-002	8.94685E-001	3.57680E+000	9	...........
	53	0.72	8.99970E-001	1.00457E-004	0.00000E+000	9.04086E-005	5.99601E-002	9.00308E-001	3.57680E+000	9	...........
	54	0.733333	9.05434E-001	1.00832E-004	0.00000E+000	9.12970E-005	5.99601E-002	9.05775E-001	3.57680E+000	9	...........
	55	0.746667	9.10754E-001	1.00887E-004	0.00000E+000	9.18829E-005	5.99601E-002	9.11117E-001	3.57680E+000	9	...........
	56	0.76	9.15961E-001	1.00619E-004	0.00000E+000	9.21629E-005	5.99601E-002	9.16303E-001	3.57680E+000	9	...........
	57	0.773333	9.21053E-001	1.01301E-004	0.00000E+000	9.33038E-005	5.99601E-002	9.21385E-001	3.57680E+000	9	...........
	58	0.786667	9.26021E-001	1.01819E-004	0.00000E+000	9.42866E-005	5.99601E-002	9.26329E-001	3.57680E+000	9	...........
	59	0.8	9.30847E-001	1.00347E-004	0.00000E+000	9.34076E-005	5.99601E-002	9.31147E-001	3.57680E+000	9	...........
	60	0.813333	9.35557E-001	1.00754E-004	0.00000E+000	9.42614E-005	5.99601E-002	9.35897E-001	3.57680E+000	9	...........
	61	0.826667	9.40188E-001	1.01700E-004	0.00000E+000	9.56174E-005	5.99601E-002	9.40540E-001	3.57680E+000	9	...........
	62	0.84	9.44742E-001	1.00067E-004	0.00000E+000	9.45371E-005	5.99601E-002	9.45083E-001	3.57680E+000	9	...........
	63	0.853333	9.49239E-001	1.00689E-004	0.00000E+000	9.55775E-005	5.99601E-002	9.49561E-001	3.57680E+000	9	...........
	64	0.866667	9.53611E-001	1.01428E-004	0.00000E+000	9.67232E-005	5.99601E-002	9.53940E-001	3.57680E+000	9	...........
	65	0.88	9.57899E-001	1.00694E-004	0.00000E+000	9.64545E-005	5.99601E-002	9.58239E-001	3.57797E+000	9	...........
	66	0.893333	9.62133E-001	1.00812E-004	0.00000E+000	9.69942E-005	5.99601E-002	9.62484E-001	3.57820E+000	9	...........
	67	0.906667	9.66250E-001	1.00548E-004	0.00000E+000	9.71545E-005	5.99601E-002	9.66621E-001	3.57820E+000	9	...........
	68	0.92	9.70324E-001	1.01716E-004	0.00000E+000	9.86974E-005	5.99601E-002	9.70715E-001	3.57820E+000	9	...........
	69	0.933333	9.74365E-001	1.00993E-004	0.00000E+000	9.84039E-005	5.99601E-002	9.74719E-001	3.57820E+000	9	...........
	70	0.946667	9.78256E-001	1.00344E-004	0.00000E+000	9.81618E-005	5.99601E-002	9.78609E-001	3.57820E+000	9	...........
	71	0.96	9.82083E-001	1.01249E-004	0.00000E+000	9.94351E-005	5.99601E-002	9.82441E-001	3.57820E+000	9	...........
	72	0.97333	9.85821E-001	1.00746E-004	0.00000E+000	9.93174E-005	5.99601E-002	9.86206E-001	3.57820E+000	9	...........
	73	0.98667	9.89468E-001	1.00283E-004	0.00000E+000	9.92272E-005	5.99601E-002	9.89861E-001	3.57820E+000	9	...........
	74	1	9.93071E-001	1.01679E-004	0.00000E+000	1.00975E-004	5.99601E-002	9.93440E-001	3.57820E+000	9	...........
	75	1.01333	9.96570E-001	1.01093E-004	0.00000E+000	1.00746E-004	5.99601E-002	9.96964E-001	3.57820E+000	9	...........
	76	1.02167	9.99386E-001	1.00556E-004	0.00000E+000	1.00495E-004	5.99601E-002	9.99741E-001	3.57820E+000	9	...........
STARTTIMEOFFSET	QUANT	697.1163	Start Time Offset (s)
