EXPLAIN
TAG	PWR800_CHARGE
TITLE	LABEL	PWR Cyclic Charge Discharge (Cell) - Charge Step	Test &Identifier
DATE	LABEL	12-7-2017	Date
TIME	LABEL	16:32:21	Time
NOTES	NOTES	2	&Notes...
	supercap test cell
	6M KOH
PSTAT	PSTAT	IFC5000-01520	Potentiostat
CAPACITY	QUANT	1.00000E-003	Capacity (A-hr)
CELLTYPE	SELECTOR	1	&Cell Type
WORKINGCONNECTION	SELECTOR	0	&Working Lead
MAXCHARGETIME	VARIABLEANDUNITS	1.00000E+002	s	1.00000E+002	second(s)	Max &Charge Time
CHARGECURRENT	QUANT	1.00000E-004	&Charge Current (A) 
VOLTAGEFINISH	TWOPARAM	F	1.00000E-003	3.60000E+003	&Voltage Finish	 I (A) < 	Max Time(s)
SAMPLETIME	QUANT	1.00000E-002	Sa&mple Period (s)
CHARGESTOPAT1	MULTIPARAM	4	1.00000E+000	Charge Stop At &1	Voltage > Limit	V
CHARGESTOPAT2	MULTIPARAM	0	0.00000E+000	Charge Stop At &2	None	N/A
AESBHCSELECTOR	TOGGLE	F	Save Both Half Cells
IRCOMP	TOGGLE	F	IR &Measure
EOC	QUANT	0	Open Circuit (V)
SEQUENCER	TOGGLE	TRUE	Run as Sequence
PSTATMODEL	IQUANT	53	Pstat Model
PSTATSECTION	LABEL	IFC5000-01520	Pstat Section
PSTATSERIALNO	LABEL	01520	Pstat Serial Number
CTRLMODE	IQUANT	0	Control Mode
ELECTROMETER	IQUANT	1	RE=0 or CS=1
IESTAB	IQUANT	0	I/E Stability
CASPEED	IQUANT	4	Control Amp Speed
CONVENTION	IQUANT	1	Current Convention
ICHRANGE	IQUANT	2	Ich Range
ICHRANGEMODE	TOGGLE	T	Ich Auto Range
ICHOFFSETENABLE	TOGGLE	F	Ich Offset Enable
ICHOFFSET	QUANT	0	Ich Offset (V)
ICHFILTER	IQUANT	1	Ich Filter
VCHRANGE	IQUANT	2	Vch Range
VCHRANGEMODE	TOGGLE	T	Vch Auto Range
VCHOFFSETENABLE	TOGGLE	F	Vch Offset Enable
VCHOFFSET	QUANT	0	Vch Offset (V)
VCHFILTER	IQUANT	1	Vch Filter
IERANGELOWERLIMIT	IQUANT	9	I/E Range Lower Limit
IERANGEMODE	TOGGLE	F	I/E AutoRange
IERANGE	IQUANT	9	I/E Range
ACHSELECT	IQUANT	1	Ach Select
ACHRANGE	IQUANT	2	Ach Range
ACHOFFSETENABLE	TOGGLE	F	Ach Offset Enable
ACHOFFSET	QUANT	0	Ach Offset (V)
ACHFILTER	IQUANT	1	Ach Filter
CABLEID	IQUANT	14	Cable ID
DCCALDATE	LABEL	5-7-2017	DC Calibration Date
ACCALDATE	LABEL	12/3/2015	AC Calibration Date
FRAMEWORKVERSION	QUANT	7.01	Framework Version
INSTRUMENTVERSION	LABEL	4.00	Instrument Version
CURVE	TABLE	76
	Pt	T	Vf	Im	Vu	Pwr	Sig	Ach	Temp	IERange	Over
	#	s	V	A	V	W	V	V	deg C	#	bits
	0	0.013333	2.59793E-001	1.00583E-004	0.00000E+000	2.61309E-005	5.99601E-002	2.59884E-001	3.57670E+000	9	...........
	1	0.026667	2.82683E-001	1.00721E-004	0.00000E+000	2.84721E-005	5.99601E-002	2.82749E-001	3.57670E+000	9	...........
	2	0.04	3.04244E-001	1.01133E-004	0.00000E+000	3.07692E-005	5.99601E-002	3.04313E-001	3.57670E+000	9	...........
	3	0.053333	3.24851E-001	1.01362E-004	0.00000E+000	3.29275E-005	5.99601E-002	3.24921E-001	3.57670E+000	9	...........
	4	0.066667	3.44692E-001	1.00564E-004	0.00000E+000	3.46634E-005	5.99601E-002	3.44767E-001	3.57670E+000	9	...........
	5	0.08	3.63898E-001	1.00827E-004	0.00000E+000	3.66908E-005	5.99601E-002	3.63982E-001	3.57670E+000	9	...........
	6	0.093333	3.82569E-001	1.01726E-004	0.00000E+000	3.89174E-005	5.99601E-002	3.82652E-001	3.57670E+000	9	...........
	7	0.106667	4.00746E-001	1.00619E-004	0.00000E+000	4.03226E-005	5.99601E-002	4.00825E-001	3.57670E+000	9	...........
	8	0.12	4.18461E-001	1.00247E-004	0.00000E+000	4.19494E-005	5.99601E-002	4.18551E-001	3.57670E+000	9	...........
	9	0.133333	4.35768E-001	1.01317E-004	0.00000E+000	4.41506E-005	5.99601E-002	4.35862E-001	3.57670E+000	9	...........
	10	0.146667	4.52675E-001	1.01229E-004	0.00000E+000	4.58240E-005	5.99601E-002	4.52772E-001	3.57670E+000	9	...........
	11	0.16	4.69210E-001	1.00995E-004	0.00000E+000	4.73878E-005	5.99601E-002	4.69306E-001	3.57670E+000	9	...........
	12	0.173333	4.85390E-001	1.01540E-004	0.00000E+000	4.92864E-005	5.99601E-002	4.85486E-001	3.57670E+000	9	...........
	13	0.186667	5.01207E-001	1.00651E-004	0.00000E+000	5.04471E-005	5.99601E-002	5.01318E-001	3.57670E+000	9	...........
	14	0.2	5.16694E-001	1.01816E-004	0.00000E+000	5.26077E-005	5.99601E-002	5.16807E-001	3.57670E+000	9	...........
	15	0.213333	5.31780E-001	1.00667E-004	0.00000E+000	5.35325E-005	5.99601E-002	5.31891E-001	3.57670E+000	9	...........
	16	0.226667	5.46413E-001	1.01982E-004	0.00000E+000	5.57241E-005	5.99601E-002	5.46606E-001	3.57670E+000	9	...........
	17	0.24	5.60945E-001	1.00305E-004	0.00000E+000	5.62657E-005	5.99601E-002	5.61126E-001	3.57670E+000	9	...........
	18	0.253333	5.75150E-001	1.00331E-004	0.00000E+000	5.77055E-005	5.99601E-002	5.75352E-001	3.57670E+000	9	...........
	19	0.266667	5.89067E-001	1.01004E-004	0.00000E+000	5.94983E-005	5.99601E-002	5.89291E-001	3.57670E+000	9	...........
	20	0.28	6.02655E-001	1.01938E-004	0.00000E+000	6.14334E-005	5.99601E-002	6.02898E-001	3.57670E+000	9	...........
	21	0.293333	6.15978E-001	1.01044E-004	0.00000E+000	6.22408E-005	5.99601E-002	6.16232E-001	3.57670E+000	9	...........
	22	0.306667	6.29006E-001	9.96551E-005	0.00000E+000	6.26837E-005	5.99601E-002	6.29228E-001	3.57670E+000	9	...........
	23	0.32	6.41742E-001	1.00870E-004	0.00000E+000	6.47325E-005	5.99601E-002	6.41972E-001	3.57670E+000	9	...........
	24	0.333333	6.54167E-001	1.00578E-004	0.00000E+000	6.57949E-005	5.99601E-002	6.54413E-001	3.57670E+000	9	...........
	25	0.346667	6.66328E-001	1.00655E-004	0.00000E+000	6.70694E-005	5.99601E-002	6.66564E-001	3.57670E+000	9	...........
	26	0.36	6.78183E-001	1.00831E-004	0.00000E+000	6.83821E-005	5.99601E-002	6.78428E-001	3.57670E+000	9	...........
	27	0.373333	6.89763E-001	1.00519E-004	0.00000E+000	6.93341E-005	5.99601E-002	6.90012E-001	3.57670E+000	9	...........
	28	0.386667	7.01062E-001	1.00828E-004	0.00000E+000	7.06868E-005	5.99601E-002	7.01293E-001	3.57670E+000	9	...........
	29	0.4	7.12077E-001	1.01359E-004	0.00000E+000	7.21751E-005	5.99601E-002	7.12335E-001	3.57670E+000	9	...........
	30	0.413333	7.22901E-001	1.00864E-004	0.00000E+000	7.29144E-005	5.99601E-002	7.23118E-001	3.57670E+000	9	...........
	31	0.426667	7.33364E-001	1.01831E-004	0.00000E+000	7.46788E-005	5.99601E-002	7.33596E-001	3.57670E+000	9	...........
	32	0.44	7.43595E-001	1.02799E-004	0.00000E+000	7.64412E-005	5.99601E-002	7.43828E-001	3.57670E+000	9	...........
	33	0.453333	7.53554E-001	1.01273E-004	0.00000E+000	7.63147E-005	5.99601E-002	7.53774E-001	3.57670E+000	9	...........
	34	0.466667	7.63236E-001	1.00722E-004	0.00000E+000	7.68746E-005	5.99601E-002	7.63491E-001	3.57670E+000	9	...........
	35	0.48	7.72673E-001	1.01092E-004	0.00000E+000	7.81109E-005	5.99601E-002	7.72935E-001	3.57670E+000	9	...........
	36	0.493333	7.81859E-001	1.00738E-004	0.00000E+000	7.87626E-005	5.99601E-002	7.82126E-001	3.57670E+000	9	...........
	37	0.506667	7.90759E-001	1.01288E-004	0.00000E+000	8.00941E-005	5.99601E-002	7.91047E-001	3.57670E+000	9	...........
	38	0.52	7.99469E-001	1.00556E-004	0.00000E+000	8.03917E-005	5.99601E-002	7.99751E-001	3.57670E+000	9	...........
	39	0.533333	8.07871E-001	1.01071E-004	0.00000E+000	8.16523E-005	5.99601E-002	8.08166E-001	3.57670E+000	9	...........
	40	0.546667	8.16031E-001	1.00865E-004	0.00000E+000	8.23087E-005	5.99601E-002	8.16366E-001	3.57670E+000	9	...........
	41	0.56	8.24003E-001	1.01055E-004	0.00000E+000	8.32700E-005	5.99601E-002	8.24286E-001	3.57670E+000	9	...........
	42	0.573333	8.31674E-001	1.01753E-004	0.00000E+000	8.46257E-005	5.99601E-002	8.31981E-001	3.57670E+000	9	...........
	43	0.586667	8.39120E-001	1.00774E-004	0.00000E+000	8.45616E-005	5.99601E-002	8.39414E-001	3.57670E+000	9	...........
	44	0.6	8.46400E-001	1.00759E-004	0.00000E+000	8.52829E-005	5.99601E-002	8.46666E-001	3.57670E+000	9	...........
	45	0.613333	8.53367E-001	1.00825E-004	0.00000E+000	8.60408E-005	5.99601E-002	8.53659E-001	3.57670E+000	9	...........
	46	0.626667	8.60204E-001	1.01853E-004	0.00000E+000	8.76148E-005	5.99601E-002	8.60472E-001	3.57670E+000	9	...........
	47	0.64	8.66753E-001	1.01948E-004	0.00000E+000	8.83640E-005	5.99601E-002	8.67068E-001	3.57670E+000	9	...........
	48	0.653333	8.73155E-001	1.01234E-004	0.00000E+000	8.83926E-005	5.99601E-002	8.73461E-001	3.57670E+000	9	...........
	49	0.666667	8.79331E-001	1.00311E-004	0.00000E+000	8.82070E-005	5.99601E-002	8.79652E-001	3.57670E+000	9	...........
	50	0.68	8.85332E-001	1.01524E-004	0.00000E+000	8.98827E-005	5.99601E-002	8.85639E-001	3.57670E+000	9	...........
	51	0.693333	8.91156E-001	1.01919E-004	0.00000E+000	9.08258E-005	5.99601E-002	8.91466E-001	3.57670E+000	9	...........
	52	0.706667	8.96823E-001	1.00963E-004	0.00000E+000	9.05456E-005	5.99601E-002	8.97177E-001	3.57670E+000	9	...........
	53	0.72	9.02340E-001	1.01669E-004	0.00000E+000	9.17400E-005	5.99601E-002	9.02697E-001	3.57670E+000	9	...........
	54	0.733333	9.07733E-001	1.01619E-004	0.00000E+000	9.22429E-005	5.99601E-002	9.08083E-001	3.57670E+000	9	...........
	55	0.746667	9.12995E-001	1.00480E-004	0.00000E+000	9.17380E-005	5.99601E-002	9.13340E-001	3.57670E+000	9	...........
	56	0.76	9.18105E-001	1.01671E-004	0.00000E+000	9.33447E-005	5.99601E-002	9.18478E-001	3.57764E+000	9	...........
	57	0.773333	9.23204E-001	9.98937E-005	0.00000E+000	9.22222E-005	5.99601E-002	9.23528E-001	3.57810E+000	9	...........
	58	0.786667	9.28097E-001	1.00786E-004	0.00000E+000	9.35387E-005	5.99601E-002	9.28443E-001	3.57810E+000	9	...........
	59	0.8	9.32924E-001	1.00839E-004	0.00000E+000	9.40748E-005	5.99601E-002	9.33246E-001	3.57810E+000	9	...........
	60	0.813333	9.37625E-001	1.00351E-004	0.00000E+000	9.40917E-005	5.99601E-002	9.37975E-001	3.57810E+000	9	...........
	61	0.826667	9.42280E-001	1.00578E-004	0.00000E+000	9.47728E-005	5.99601E-002	9.42610E-001	3.57810E+000	9	...........
	62	0.84	9.46871E-001	1.01133E-004	0.00000E+000	9.57604E-005	5.99601E-002	9.47203E-001	3.57810E+000	9	...........
	63	0.853333	9.51356E-001	1.00399E-004	0.00000E+000	9.55151E-005	5.99601E-002	9.51695E-001	3.57810E+000	9	...........
	64	0.866667	9.55767E-001	1.02098E-004	0.00000E+000	9.75822E-005	5.99601E-002	9.56056E-001	3.57810E+000	9	...........
	65	0.88	9.60089E-001	1.01129E-004	0.00000E+000	9.70931E-005	5.99601E-002	9.60414E-001	3.57810E+000	9	...........
	66	0.893333	9.64333E-001	1.01641E-004	0.00000E+000	9.80156E-005	5.99601E-002	9.64659E-001	3.57810E+000	9	...........
	67	0.906667	9.68522E-001	1.01227E-004	0.00000E+000	9.80408E-005	5.99601E-002	9.68864E-001	3.57810E+000	9	...........
	68	0.92	9.72645E-001	9.95259E-005	0.00000E+000	9.68033E-005	5.99601E-002	9.72985E-001	3.57810E+000	9	...........
	69	0.933333	9.76682E-001	1.01576E-004	0.00000E+000	9.92078E-005	5.99601E-002	9.76994E-001	3.57810E+000	9	...........
	70	0.946667	9.80618E-001	1.01812E-004	0.00000E+000	9.98384E-005	5.99601E-002	9.80918E-001	3.57810E+000	9	...........
	71	0.96	9.84485E-001	1.01783E-004	0.00000E+000	1.00203E-004	5.99601E-002	9.84804E-001	3.57810E+000	9	...........
	72	0.97333	9.88258E-001	1.01018E-004	0.00000E+000	9.98317E-005	5.99601E-002	9.88592E-001	3.57810E+000	9	...........
	73	0.98667	9.91958E-001	1.00941E-004	0.00000E+000	1.00129E-004	5.99601E-002	9.92284E-001	3.57810E+000	9	...........
	74	1	9.95586E-001	1.01551E-004	0.00000E+000	1.01103E-004	5.99601E-002	9.95920E-001	3.57810E+000	9	...........
	75	1.01167	9.98914E-001	1.00718E-004	0.00000E+000	1.00609E-004	5.99601E-002	9.99263E-001	3.57810E+000	9	...........
STARTTIMEOFFSET	QUANT	953.77	Start Time Offset (s)
