EXPLAIN
TAG	PWR800_CHARGE
TITLE	LABEL	PWR Cyclic Charge Discharge (Cell) - Charge Step	Test &Identifier
DATE	LABEL	12-7-2017	Date
TIME	LABEL	16:36:04	Time
NOTES	NOTES	2	&Notes...
	supercap test cell
	6M KOH
PSTAT	PSTAT	IFC5000-01520	Potentiostat
CAPACITY	QUANT	1.00000E-003	Capacity (A-hr)
CELLTYPE	SELECTOR	1	&Cell Type
WORKINGCONNECTION	SELECTOR	0	&Working Lead
MAXCHARGETIME	VARIABLEANDUNITS	1.00000E+002	s	1.00000E+002	second(s)	Max &Charge Time
CHARGECURRENT	QUANT	1.00000E-004	&Charge Current (A) 
VOLTAGEFINISH	TWOPARAM	F	1.00000E-003	3.60000E+003	&Voltage Finish	 I (A) < 	Max Time(s)
SAMPLETIME	QUANT	1.00000E-002	Sa&mple Period (s)
CHARGESTOPAT1	MULTIPARAM	4	1.00000E+000	Charge Stop At &1	Voltage > Limit	V
CHARGESTOPAT2	MULTIPARAM	0	0.00000E+000	Charge Stop At &2	None	N/A
AESBHCSELECTOR	TOGGLE	F	Save Both Half Cells
IRCOMP	TOGGLE	F	IR &Measure
EOC	QUANT	0	Open Circuit (V)
SEQUENCER	TOGGLE	TRUE	Run as Sequence
PSTATMODEL	IQUANT	53	Pstat Model
PSTATSECTION	LABEL	IFC5000-01520	Pstat Section
PSTATSERIALNO	LABEL	01520	Pstat Serial Number
CTRLMODE	IQUANT	0	Control Mode
ELECTROMETER	IQUANT	1	RE=0 or CS=1
IESTAB	IQUANT	0	I/E Stability
CASPEED	IQUANT	4	Control Amp Speed
CONVENTION	IQUANT	1	Current Convention
ICHRANGE	IQUANT	2	Ich Range
ICHRANGEMODE	TOGGLE	T	Ich Auto Range
ICHOFFSETENABLE	TOGGLE	F	Ich Offset Enable
ICHOFFSET	QUANT	0	Ich Offset (V)
ICHFILTER	IQUANT	1	Ich Filter
VCHRANGE	IQUANT	2	Vch Range
VCHRANGEMODE	TOGGLE	T	Vch Auto Range
VCHOFFSETENABLE	TOGGLE	F	Vch Offset Enable
VCHOFFSET	QUANT	0	Vch Offset (V)
VCHFILTER	IQUANT	1	Vch Filter
IERANGELOWERLIMIT	IQUANT	9	I/E Range Lower Limit
IERANGEMODE	TOGGLE	F	I/E AutoRange
IERANGE	IQUANT	9	I/E Range
ACHSELECT	IQUANT	1	Ach Select
ACHRANGE	IQUANT	2	Ach Range
ACHOFFSETENABLE	TOGGLE	F	Ach Offset Enable
ACHOFFSET	QUANT	0	Ach Offset (V)
ACHFILTER	IQUANT	1	Ach Filter
CABLEID	IQUANT	14	Cable ID
DCCALDATE	LABEL	5-7-2017	DC Calibration Date
ACCALDATE	LABEL	12/3/2015	AC Calibration Date
FRAMEWORKVERSION	QUANT	7.01	Framework Version
INSTRUMENTVERSION	LABEL	4.00	Instrument Version
CURVE	TABLE	76
	Pt	T	Vf	Im	Vu	Pwr	Sig	Ach	Temp	IERange	Over
	#	s	V	A	V	W	V	V	deg C	#	bits
	0	0.013333	2.60875E-001	1.00846E-004	0.00000E+000	2.63082E-005	5.99601E-002	2.60961E-001	3.57810E+000	9	...........
	1	0.026667	2.83799E-001	1.00709E-004	0.00000E+000	2.85812E-005	5.99601E-002	2.83859E-001	3.57810E+000	9	...........
	2	0.04	3.05424E-001	1.00685E-004	0.00000E+000	3.07518E-005	5.99601E-002	3.05482E-001	3.57810E+000	9	...........
	3	0.053333	3.26115E-001	1.00531E-004	0.00000E+000	3.27847E-005	5.99601E-002	3.26172E-001	3.57810E+000	9	...........
	4	0.066667	3.46054E-001	1.00540E-004	0.00000E+000	3.47922E-005	5.99601E-002	3.46129E-001	3.57810E+000	9	...........
	5	0.08	3.65378E-001	1.00349E-004	0.00000E+000	3.66653E-005	5.99601E-002	3.65454E-001	3.57810E+000	9	...........
	6	0.093333	3.84171E-001	1.00793E-004	0.00000E+000	3.87216E-005	5.99601E-002	3.84248E-001	3.57810E+000	9	...........
	7	0.106667	4.02475E-001	1.01908E-004	0.00000E+000	4.10152E-005	5.99601E-002	4.02554E-001	3.57810E+000	9	...........
	8	0.12	4.20325E-001	1.00709E-004	0.00000E+000	4.23307E-005	5.99601E-002	4.20410E-001	3.57810E+000	9	...........
	9	0.133333	4.37762E-001	1.00874E-004	0.00000E+000	4.41589E-005	5.99601E-002	4.37856E-001	3.57810E+000	9	...........
	10	0.146667	4.54814E-001	1.01793E-004	0.00000E+000	4.62969E-005	5.99601E-002	4.54906E-001	3.57810E+000	9	...........
	11	0.16	4.71471E-001	1.00676E-004	0.00000E+000	4.74658E-005	5.99601E-002	4.71564E-001	3.57810E+000	9	...........
	12	0.173333	4.87774E-001	1.01384E-004	0.00000E+000	4.94522E-005	5.99601E-002	4.87872E-001	3.57810E+000	9	...........
	13	0.186667	5.03713E-001	1.01052E-004	0.00000E+000	5.09014E-005	5.99601E-002	5.03824E-001	3.57810E+000	9	...........
	14	0.2	5.19321E-001	1.01082E-004	0.00000E+000	5.24942E-005	5.99601E-002	5.19436E-001	3.57810E+000	9	...........
	15	0.213333	5.34462E-001	1.00819E-004	0.00000E+000	5.38839E-005	5.99601E-002	5.34613E-001	3.57810E+000	9	...........
	16	0.226667	5.49233E-001	1.00660E-004	0.00000E+000	5.52861E-005	5.99601E-002	5.49491E-001	3.57810E+000	9	...........
	17	0.24	5.63877E-001	1.00333E-004	0.00000E+000	5.65757E-005	5.99601E-002	5.64117E-001	3.57810E+000	9	...........
	18	0.253333	5.78148E-001	1.01057E-004	0.00000E+000	5.84261E-005	5.99601E-002	5.78410E-001	3.57810E+000	9	...........
	19	0.266667	5.92158E-001	1.01477E-004	0.00000E+000	6.00906E-005	5.99601E-002	5.92390E-001	3.57810E+000	9	...........
	20	0.28	6.05793E-001	1.00890E-004	0.00000E+000	6.11183E-005	5.99601E-002	6.06072E-001	3.57810E+000	9	...........
	21	0.293333	6.19209E-001	1.01677E-004	0.00000E+000	6.29595E-005	5.99601E-002	6.19436E-001	3.57810E+000	9	...........
	22	0.306667	6.32255E-001	1.01837E-004	0.00000E+000	6.43868E-005	5.99601E-002	6.32504E-001	3.57810E+000	9	...........
	23	0.32	6.45064E-001	1.02160E-004	0.00000E+000	6.58995E-005	5.99601E-002	6.45292E-001	3.57810E+000	9	...........
	24	0.333333	6.57513E-001	1.00825E-004	0.00000E+000	6.62938E-005	5.99601E-002	6.57761E-001	3.57810E+000	9	...........
	25	0.346667	6.69698E-001	1.01611E-004	0.00000E+000	6.80484E-005	5.99601E-002	6.69939E-001	3.57784E+000	9	...........
	26	0.36	6.81581E-001	1.02130E-004	0.00000E+000	6.96095E-005	5.99601E-002	6.81822E-001	3.57780E+000	9	...........
	27	0.373333	6.93164E-001	1.00811E-004	0.00000E+000	6.98782E-005	5.99601E-002	6.93408E-001	3.57780E+000	9	...........
	28	0.386667	7.04437E-001	1.00646E-004	0.00000E+000	7.08987E-005	5.99601E-002	7.04701E-001	3.57780E+000	9	...........
	29	0.4	7.15451E-001	1.00451E-004	0.00000E+000	7.18678E-005	5.99601E-002	7.15704E-001	3.57780E+000	9	...........
	30	0.413333	7.26200E-001	1.01460E-004	0.00000E+000	7.36799E-005	5.99601E-002	7.26450E-001	3.57780E+000	9	...........
	31	0.426667	7.36630E-001	1.00322E-004	0.00000E+000	7.39001E-005	5.99601E-002	7.36883E-001	3.57780E+000	9	...........
	32	0.44	7.46855E-001	1.01067E-004	0.00000E+000	7.54823E-005	5.99601E-002	7.47083E-001	3.57780E+000	9	...........
	33	0.453333	7.56750E-001	1.01541E-004	0.00000E+000	7.68410E-005	5.99601E-002	7.57001E-001	3.57780E+000	9	...........
	34	0.466667	7.66382E-001	1.01828E-004	0.00000E+000	7.80395E-005	5.99601E-002	7.66635E-001	3.57780E+000	9	...........
	35	0.48	7.75751E-001	1.01033E-004	0.00000E+000	7.83768E-005	5.99601E-002	7.76006E-001	3.57780E+000	9	...........
	36	0.493333	7.84899E-001	1.01166E-004	0.00000E+000	7.94049E-005	5.99601E-002	7.85120E-001	3.57780E+000	9	...........
	37	0.506667	7.93750E-001	1.00552E-004	0.00000E+000	7.98132E-005	5.99601E-002	7.93979E-001	3.57780E+000	9	...........
	38	0.52	8.02358E-001	9.99207E-005	0.00000E+000	8.01722E-005	5.99601E-002	8.02581E-001	3.57780E+000	9	...........
	39	0.533333	8.10690E-001	1.00267E-004	0.00000E+000	8.12852E-005	5.99601E-002	8.10926E-001	3.57780E+000	9	...........
	40	0.546667	8.18769E-001	1.00646E-004	0.00000E+000	8.24057E-005	5.99601E-002	8.19045E-001	3.57780E+000	9	...........
	41	0.56	8.26611E-001	1.01176E-004	0.00000E+000	8.36333E-005	5.99601E-002	8.26896E-001	3.57780E+000	9	...........
	42	0.573333	8.34222E-001	1.01572E-004	0.00000E+000	8.47337E-005	5.99601E-002	8.34516E-001	3.57780E+000	9	...........
	43	0.586667	8.41579E-001	1.02061E-004	0.00000E+000	8.58922E-005	5.99601E-002	8.41900E-001	3.57780E+000	9	...........
	44	0.6	8.48729E-001	1.01745E-004	0.00000E+000	8.63540E-005	5.99601E-002	8.49056E-001	3.57780E+000	9	...........
	45	0.613333	8.55658E-001	1.01685E-004	0.00000E+000	8.70073E-005	5.99601E-002	8.55969E-001	3.57780E+000	9	...........
	46	0.626667	8.62363E-001	1.01392E-004	0.00000E+000	8.74366E-005	5.99601E-002	8.62678E-001	3.57780E+000	9	...........
	47	0.64	8.68859E-001	1.00109E-004	0.00000E+000	8.69809E-005	5.99601E-002	8.69178E-001	3.57780E+000	9	...........
	48	0.653333	8.75164E-001	1.00734E-004	0.00000E+000	8.81591E-005	5.99601E-002	8.75483E-001	3.57780E+000	9	...........
	49	0.666667	8.81267E-001	1.01930E-004	0.00000E+000	8.98271E-005	5.99601E-002	8.81599E-001	3.57780E+000	9	...........
	50	0.68	8.87217E-001	1.01754E-004	0.00000E+000	9.02783E-005	5.99601E-002	8.87534E-001	3.57780E+000	9	...........
	51	0.693333	8.92986E-001	1.02120E-004	0.00000E+000	9.11919E-005	5.99601E-002	8.93312E-001	3.57780E+000	9	...........
	52	0.706667	8.98605E-001	9.97468E-005	0.00000E+000	8.96329E-005	5.99601E-002	8.98942E-001	3.57780E+000	9	...........
	53	0.72	9.04084E-001	1.01617E-004	0.00000E+000	9.18703E-005	5.99601E-002	9.04419E-001	3.57780E+000	9	...........
	54	0.733333	9.09454E-001	1.01274E-004	0.00000E+000	9.21042E-005	5.99601E-002	9.09778E-001	3.57780E+000	9	...........
	55	0.746667	9.14669E-001	1.00494E-004	0.00000E+000	9.19186E-005	5.99601E-002	9.14997E-001	3.57780E+000	9	...........
	56	0.76	9.19814E-001	1.01321E-004	0.00000E+000	9.31965E-005	5.99601E-002	9.20138E-001	3.57780E+000	9	...........
	57	0.773333	9.24860E-001	1.01367E-004	0.00000E+000	9.37501E-005	5.99601E-002	9.25154E-001	3.57780E+000	9	...........
	58	0.786667	9.29766E-001	1.01988E-004	0.00000E+000	9.48249E-005	5.99601E-002	9.30060E-001	3.57780E+000	9	...........
	59	0.8	9.34578E-001	1.00227E-004	0.00000E+000	9.36700E-005	5.99601E-002	9.34883E-001	3.57780E+000	9	...........
	60	0.813333	9.39320E-001	1.00447E-004	0.00000E+000	9.43518E-005	5.99601E-002	9.39625E-001	3.57780E+000	9	...........
	61	0.826667	9.43954E-001	1.00192E-004	0.00000E+000	9.45763E-005	5.99601E-002	9.44293E-001	3.57780E+000	9	...........
	62	0.84	9.48576E-001	1.01232E-004	0.00000E+000	9.60267E-005	5.99601E-002	9.48893E-001	3.57780E+000	9	...........
	63	0.853333	9.53060E-001	1.01371E-004	0.00000E+000	9.66127E-005	5.99601E-002	9.53391E-001	3.57780E+000	9	...........
	64	0.866667	9.57473E-001	1.01428E-004	0.00000E+000	9.71149E-005	5.99601E-002	9.57795E-001	3.57780E+000	9	...........
	65	0.88	9.61798E-001	1.01720E-004	0.00000E+000	9.78342E-005	5.99601E-002	9.62171E-001	3.57780E+000	9	...........
	66	0.893333	9.66070E-001	1.01547E-004	0.00000E+000	9.81016E-005	5.99601E-002	9.66430E-001	3.57780E+000	9	...........
	67	0.906667	9.70263E-001	1.00813E-004	0.00000E+000	9.78147E-005	5.99601E-002	9.70623E-001	3.57780E+000	9	...........
	68	0.92	9.74453E-001	1.01203E-004	0.00000E+000	9.86178E-005	5.99601E-002	9.74757E-001	3.57780E+000	9	...........
	69	0.933333	9.78482E-001	1.01395E-004	0.00000E+000	9.92132E-005	5.99601E-002	9.78784E-001	3.57780E+000	9	...........
	70	0.946667	9.82440E-001	1.00295E-004	0.00000E+000	9.85336E-005	5.99601E-002	9.82745E-001	3.57780E+000	9	...........
	71	0.96	9.86307E-001	1.01045E-004	0.00000E+000	9.96613E-005	5.99601E-002	9.86639E-001	3.57780E+000	9	...........
	72	0.97333	9.90114E-001	1.01294E-004	0.00000E+000	1.00293E-004	5.99601E-002	9.90449E-001	3.57780E+000	9	...........
	73	0.98667	9.93820E-001	1.00930E-004	0.00000E+000	1.00307E-004	5.99601E-002	9.94161E-001	3.57780E+000	9	...........
	74	1	9.97471E-001	1.01063E-004	0.00000E+000	1.00807E-004	5.99601E-002	9.97814E-001	3.57780E+000	9	...........
	75	1.005	9.99956E-001	1.00434E-004	0.00000E+000	1.00430E-004	5.99601E-002	1.00023E+000	3.57780E+000	9	...........
STARTTIMEOFFSET	QUANT	1111.6	Start Time Offset (s)
