EXPLAIN
TAG	PWR800_CHARGE
TITLE	LABEL	PWR Cyclic Charge Discharge (Cell) - Charge Step	Test &Identifier
DATE	LABEL	12-7-2017	Date
TIME	LABEL	16:45:39	Time
NOTES	NOTES	2	&Notes...
	supercap test cell
	6M KOH
PSTAT	PSTAT	IFC5000-01520	Potentiostat
CAPACITY	QUANT	1.00000E-003	Capacity (A-hr)
CELLTYPE	SELECTOR	1	&Cell Type
WORKINGCONNECTION	SELECTOR	0	&Working Lead
MAXCHARGETIME	VARIABLEANDUNITS	1.00000E+002	s	1.00000E+002	second(s)	Max &Charge Time
CHARGECURRENT	QUANT	1.00000E-004	&Charge Current (A) 
VOLTAGEFINISH	TWOPARAM	F	1.00000E-003	3.60000E+003	&Voltage Finish	 I (A) < 	Max Time(s)
SAMPLETIME	QUANT	1.00000E-002	Sa&mple Period (s)
CHARGESTOPAT1	MULTIPARAM	4	1.00000E+000	Charge Stop At &1	Voltage > Limit	V
CHARGESTOPAT2	MULTIPARAM	0	0.00000E+000	Charge Stop At &2	None	N/A
AESBHCSELECTOR	TOGGLE	F	Save Both Half Cells
IRCOMP	TOGGLE	F	IR &Measure
EOC	QUANT	0	Open Circuit (V)
SEQUENCER	TOGGLE	TRUE	Run as Sequence
PSTATMODEL	IQUANT	53	Pstat Model
PSTATSECTION	LABEL	IFC5000-01520	Pstat Section
PSTATSERIALNO	LABEL	01520	Pstat Serial Number
CTRLMODE	IQUANT	0	Control Mode
ELECTROMETER	IQUANT	1	RE=0 or CS=1
IESTAB	IQUANT	0	I/E Stability
CASPEED	IQUANT	4	Control Amp Speed
CONVENTION	IQUANT	1	Current Convention
ICHRANGE	IQUANT	2	Ich Range
ICHRANGEMODE	TOGGLE	T	Ich Auto Range
ICHOFFSETENABLE	TOGGLE	F	Ich Offset Enable
ICHOFFSET	QUANT	0	Ich Offset (V)
ICHFILTER	IQUANT	1	Ich Filter
VCHRANGE	IQUANT	2	Vch Range
VCHRANGEMODE	TOGGLE	T	Vch Auto Range
VCHOFFSETENABLE	TOGGLE	F	Vch Offset Enable
VCHOFFSET	QUANT	0	Vch Offset (V)
VCHFILTER	IQUANT	1	Vch Filter
IERANGELOWERLIMIT	IQUANT	9	I/E Range Lower Limit
IERANGEMODE	TOGGLE	F	I/E AutoRange
IERANGE	IQUANT	9	I/E Range
ACHSELECT	IQUANT	1	Ach Select
ACHRANGE	IQUANT	2	Ach Range
ACHOFFSETENABLE	TOGGLE	F	Ach Offset Enable
ACHOFFSET	QUANT	0	Ach Offset (V)
ACHFILTER	IQUANT	1	Ach Filter
CABLEID	IQUANT	14	Cable ID
DCCALDATE	LABEL	5-7-2017	DC Calibration Date
ACCALDATE	LABEL	12/3/2015	AC Calibration Date
FRAMEWORKVERSION	QUANT	7.01	Framework Version
INSTRUMENTVERSION	LABEL	4.00	Instrument Version
CURVE	TABLE	75
	Pt	T	Vf	Im	Vu	Pwr	Sig	Ach	Temp	IERange	Over
	#	s	V	A	V	W	V	V	deg C	#	bits
	0	0.013333	2.60500E-001	1.00301E-004	0.00000E+000	2.61284E-005	5.99601E-002	2.60574E-001	3.57790E+000	9	...........
	1	0.026667	2.83494E-001	1.00129E-004	0.00000E+000	2.83860E-005	5.99601E-002	2.83555E-001	3.57790E+000	9	...........
	2	0.04	3.05249E-001	1.00291E-004	0.00000E+000	3.06136E-005	5.99601E-002	3.05310E-001	3.57790E+000	9	...........
	3	0.053333	3.26092E-001	1.00729E-004	0.00000E+000	3.28470E-005	5.99601E-002	3.26163E-001	3.57790E+000	9	...........
	4	0.066667	3.46219E-001	1.00891E-004	0.00000E+000	3.49303E-005	5.99601E-002	3.46290E-001	3.57790E+000	9	...........
	5	0.08	3.65755E-001	1.02481E-004	0.00000E+000	3.74828E-005	5.99601E-002	3.65829E-001	3.57790E+000	9	...........
	6	0.093333	3.84754E-001	9.99530E-005	0.00000E+000	3.84574E-005	5.99601E-002	3.84833E-001	3.57790E+000	9	...........
	7	0.106667	4.03286E-001	1.00319E-004	0.00000E+000	4.04571E-005	5.99601E-002	4.03367E-001	3.57790E+000	9	...........
	8	0.12	4.21380E-001	1.01956E-004	0.00000E+000	4.29620E-005	5.99601E-002	4.21468E-001	3.57790E+000	9	...........
	9	0.133333	4.39059E-001	1.00330E-004	0.00000E+000	4.40509E-005	5.99601E-002	4.39151E-001	3.57790E+000	9	...........
	10	0.146667	4.56344E-001	1.01668E-004	0.00000E+000	4.63956E-005	5.99601E-002	4.56443E-001	3.57790E+000	9	...........
	11	0.16	4.73260E-001	1.01857E-004	0.00000E+000	4.82047E-005	5.99601E-002	4.73358E-001	3.57790E+000	9	...........
	12	0.173333	4.89803E-001	1.00533E-004	0.00000E+000	4.92416E-005	5.99601E-002	4.89911E-001	3.57790E+000	9	...........
	13	0.186667	5.05983E-001	9.98030E-005	0.00000E+000	5.04986E-005	5.99601E-002	5.06097E-001	3.57790E+000	9	...........
	14	0.2	5.21816E-001	1.01250E-004	0.00000E+000	5.28340E-005	5.99601E-002	5.21928E-001	3.57790E+000	9	...........
	15	0.213333	5.37094E-001	1.01115E-004	0.00000E+000	5.43081E-005	5.99601E-002	5.37277E-001	3.57790E+000	9	...........
	16	0.226667	5.52118E-001	9.99364E-005	0.00000E+000	5.51767E-005	5.99601E-002	5.52370E-001	3.57790E+000	9	...........
	17	0.24	5.66975E-001	1.02074E-004	0.00000E+000	5.78736E-005	5.99601E-002	5.67183E-001	3.57790E+000	9	...........
	18	0.253333	5.81430E-001	1.02483E-004	0.00000E+000	5.95865E-005	5.99601E-002	5.81681E-001	3.57790E+000	9	...........
	19	0.266667	5.95593E-001	1.01324E-004	0.00000E+000	6.03479E-005	5.99601E-002	5.95821E-001	3.57790E+000	9	...........
	20	0.28	6.09375E-001	1.01753E-004	0.00000E+000	6.20060E-005	5.99601E-002	6.09651E-001	3.57790E+000	9	...........
	21	0.293333	6.22929E-001	1.01500E-004	0.00000E+000	6.32275E-005	5.99601E-002	6.23147E-001	3.57790E+000	9	...........
	22	0.306667	6.36053E-001	1.00684E-004	0.00000E+000	6.40406E-005	5.99601E-002	6.36306E-001	3.57790E+000	9	...........
	23	0.32	6.48926E-001	1.00335E-004	0.00000E+000	6.51103E-005	5.99601E-002	6.49158E-001	3.57790E+000	9	...........
	24	0.333333	6.61461E-001	9.98999E-005	0.00000E+000	6.60799E-005	5.99601E-002	6.61702E-001	3.57790E+000	9	...........
	25	0.346667	6.73695E-001	1.00578E-004	0.00000E+000	6.77591E-005	5.99601E-002	6.73932E-001	3.57790E+000	9	...........
	26	0.36	6.85589E-001	1.00993E-004	0.00000E+000	6.92395E-005	5.99601E-002	6.85858E-001	3.57790E+000	9	...........
	27	0.373333	6.97192E-001	1.00436E-004	0.00000E+000	7.00235E-005	5.99601E-002	6.97447E-001	3.57790E+000	9	...........
	28	0.386667	7.08495E-001	1.01514E-004	0.00000E+000	7.19220E-005	5.99601E-002	7.08770E-001	3.57790E+000	9	...........
	29	0.4	7.19542E-001	1.00733E-004	0.00000E+000	7.24820E-005	5.99601E-002	7.19799E-001	3.57790E+000	9	...........
	30	0.413333	7.30238E-001	1.00576E-004	0.00000E+000	7.34444E-005	5.99601E-002	7.30510E-001	3.57773E+000	9	...........
	31	0.426667	7.40649E-001	1.01878E-004	0.00000E+000	7.54562E-005	5.99601E-002	7.40944E-001	3.57680E+000	9	...........
	32	0.44	7.50798E-001	1.00728E-004	0.00000E+000	7.56265E-005	5.99601E-002	7.51077E-001	3.57680E+000	9	...........
	33	0.453333	7.60674E-001	1.00200E-004	0.00000E+000	7.62195E-005	5.99601E-002	7.60930E-001	3.57680E+000	9	...........
	34	0.466667	7.70240E-001	1.01238E-004	0.00000E+000	7.79773E-005	5.99601E-002	7.70535E-001	3.57680E+000	9	...........
	35	0.48	7.79568E-001	1.00384E-004	0.00000E+000	7.82565E-005	5.99601E-002	7.79829E-001	3.57680E+000	9	...........
	36	0.493333	7.88619E-001	1.02148E-004	0.00000E+000	8.05561E-005	5.99601E-002	7.88861E-001	3.57680E+000	9	...........
	37	0.506667	7.97421E-001	1.02041E-004	0.00000E+000	8.13696E-005	5.99601E-002	7.97647E-001	3.57680E+000	9	...........
	38	0.52	8.05908E-001	1.01600E-004	0.00000E+000	8.18805E-005	5.99601E-002	8.06175E-001	3.57680E+000	9	...........
	39	0.533333	8.14146E-001	1.00916E-004	0.00000E+000	8.21602E-005	5.99601E-002	8.14413E-001	3.57680E+000	9	...........
	40	0.546667	8.22168E-001	1.01459E-004	0.00000E+000	8.34160E-005	5.99601E-002	8.22443E-001	3.57680E+000	9	...........
	41	0.56	8.29909E-001	1.01635E-004	0.00000E+000	8.43475E-005	5.99601E-002	8.30151E-001	3.57680E+000	9	...........
	42	0.573333	8.37390E-001	1.01476E-004	0.00000E+000	8.49752E-005	5.99601E-002	8.37663E-001	3.57680E+000	9	...........
	43	0.586667	8.44679E-001	9.95884E-005	0.00000E+000	8.41202E-005	5.99601E-002	8.44942E-001	3.57680E+000	9	...........
	44	0.6	8.51712E-001	1.00558E-004	0.00000E+000	8.56468E-005	5.99601E-002	8.52002E-001	3.57680E+000	9	...........
	45	0.613333	8.58519E-001	1.01176E-004	0.00000E+000	8.68617E-005	5.99601E-002	8.58832E-001	3.57680E+000	9	...........
	46	0.626667	8.65142E-001	1.01775E-004	0.00000E+000	8.80501E-005	5.99601E-002	8.65432E-001	3.57680E+000	9	...........
	47	0.64	8.71559E-001	1.01326E-004	0.00000E+000	8.83118E-005	5.99601E-002	8.71888E-001	3.57680E+000	9	...........
	48	0.653333	8.77777E-001	1.00521E-004	0.00000E+000	8.82349E-005	5.99601E-002	8.78091E-001	3.57680E+000	9	...........
	49	0.666667	8.83867E-001	1.01732E-004	0.00000E+000	8.99171E-005	5.99601E-002	8.84164E-001	3.57680E+000	9	...........
	50	0.68	8.89732E-001	1.00471E-004	0.00000E+000	8.93921E-005	5.99601E-002	8.90028E-001	3.57680E+000	9	...........
	51	0.693333	8.95435E-001	9.99301E-005	0.00000E+000	8.94809E-005	5.99601E-002	8.95764E-001	3.57680E+000	9	...........
	52	0.706667	9.01046E-001	9.94915E-005	0.00000E+000	8.96464E-005	5.99601E-002	9.01375E-001	3.57680E+000	9	...........
	53	0.72	9.06499E-001	1.00012E-004	0.00000E+000	9.06612E-005	5.99601E-002	9.06822E-001	3.57680E+000	9	...........
	54	0.733333	9.11833E-001	1.01590E-004	0.00000E+000	9.26330E-005	5.99601E-002	9.12175E-001	3.57680E+000	9	...........
	55	0.746667	9.17067E-001	1.00979E-004	0.00000E+000	9.26047E-005	5.99601E-002	9.17379E-001	3.57680E+000	9	...........
	56	0.76	9.22244E-001	1.00928E-004	0.00000E+000	9.30804E-005	5.99601E-002	9.22530E-001	3.57680E+000	9	...........
	57	0.773333	9.27277E-001	1.01144E-004	0.00000E+000	9.37884E-005	5.99601E-002	9.27560E-001	3.57680E+000	9	...........
	58	0.786667	9.32226E-001	1.01440E-004	0.00000E+000	9.45648E-005	5.99601E-002	9.32491E-001	3.57680E+000	9	...........
	59	0.8	9.37080E-001	1.01231E-004	0.00000E+000	9.48620E-005	5.99601E-002	9.37376E-001	3.57680E+000	9	...........
	60	0.813333	9.41842E-001	1.01307E-004	0.00000E+000	9.54157E-005	5.99601E-002	9.42149E-001	3.57680E+000	9	...........
	61	0.826667	9.46561E-001	1.00575E-004	0.00000E+000	9.52004E-005	5.99601E-002	9.46869E-001	3.57680E+000	9	...........
	62	0.84	9.51217E-001	1.01143E-004	0.00000E+000	9.62088E-005	5.99601E-002	9.51514E-001	3.57680E+000	9	...........
	63	0.853333	9.55777E-001	1.00394E-004	0.00000E+000	9.59541E-005	5.99601E-002	9.56053E-001	3.57680E+000	9	...........
	64	0.866667	9.60226E-001	1.01076E-004	0.00000E+000	9.70560E-005	5.99601E-002	9.60556E-001	3.57680E+000	9	...........
	65	0.88	9.64620E-001	1.00940E-004	0.00000E+000	9.73685E-005	5.99601E-002	9.64986E-001	3.57680E+000	9	...........
	66	0.893333	9.68947E-001	1.01797E-004	0.00000E+000	9.86361E-005	5.99601E-002	9.69291E-001	3.57680E+000	9	...........
	67	0.906667	9.73221E-001	1.00746E-004	0.00000E+000	9.80481E-005	5.99601E-002	9.73576E-001	3.57680E+000	9	...........
	68	0.92	9.77421E-001	1.00775E-004	0.00000E+000	9.84997E-005	5.99601E-002	9.77730E-001	3.57680E+000	9	...........
	69	0.933333	9.81497E-001	1.00782E-004	0.00000E+000	9.89176E-005	5.99601E-002	9.81806E-001	3.57680E+000	9	...........
	70	0.946667	9.85502E-001	1.00651E-004	0.00000E+000	9.91919E-005	5.99601E-002	9.85825E-001	3.57680E+000	9	...........
	71	0.96	9.89437E-001	9.90893E-005	0.00000E+000	9.80427E-005	5.99601E-002	9.89759E-001	3.57680E+000	9	...........
	72	0.97333	9.93251E-001	1.01589E-004	0.00000E+000	1.00903E-004	5.99601E-002	9.93586E-001	3.57680E+000	9	...........
	73	0.98667	9.97025E-001	1.01095E-004	0.00000E+000	1.00794E-004	5.99601E-002	9.97364E-001	3.57680E+000	9	...........
	74	0.99167	9.99586E-001	1.03454E-004	0.00000E+000	1.03411E-004	5.99601E-002	9.99914E-001	3.57680E+000	9	...........
STARTTIMEOFFSET	QUANT	1517.917	Start Time Offset (s)
