EXPLAIN
TAG	PWR800_CHARGE
TITLE	LABEL	PWR Cyclic Charge Discharge (Cell) - Charge Step	Test &Identifier
DATE	LABEL	12-7-2017	Date
TIME	LABEL	16:22:13	Time
NOTES	NOTES	2	&Notes...
	supercap test cell
	6M KOH
PSTAT	PSTAT	IFC5000-01520	Potentiostat
CAPACITY	QUANT	1.00000E-003	Capacity (A-hr)
CELLTYPE	SELECTOR	1	&Cell Type
WORKINGCONNECTION	SELECTOR	0	&Working Lead
MAXCHARGETIME	VARIABLEANDUNITS	1.00000E+002	s	1.00000E+002	second(s)	Max &Charge Time
CHARGECURRENT	QUANT	1.00000E-004	&Charge Current (A) 
VOLTAGEFINISH	TWOPARAM	F	1.00000E-003	3.60000E+003	&Voltage Finish	 I (A) < 	Max Time(s)
SAMPLETIME	QUANT	1.00000E-002	Sa&mple Period (s)
CHARGESTOPAT1	MULTIPARAM	4	1.00000E+000	Charge Stop At &1	Voltage > Limit	V
CHARGESTOPAT2	MULTIPARAM	0	0.00000E+000	Charge Stop At &2	None	N/A
AESBHCSELECTOR	TOGGLE	F	Save Both Half Cells
IRCOMP	TOGGLE	F	IR &Measure
EOC	QUANT	0	Open Circuit (V)
SEQUENCER	TOGGLE	TRUE	Run as Sequence
PSTATMODEL	IQUANT	53	Pstat Model
PSTATSECTION	LABEL	IFC5000-01520	Pstat Section
PSTATSERIALNO	LABEL	01520	Pstat Serial Number
CTRLMODE	IQUANT	0	Control Mode
ELECTROMETER	IQUANT	1	RE=0 or CS=1
IESTAB	IQUANT	0	I/E Stability
CASPEED	IQUANT	4	Control Amp Speed
CONVENTION	IQUANT	1	Current Convention
ICHRANGE	IQUANT	2	Ich Range
ICHRANGEMODE	TOGGLE	T	Ich Auto Range
ICHOFFSETENABLE	TOGGLE	F	Ich Offset Enable
ICHOFFSET	QUANT	0	Ich Offset (V)
ICHFILTER	IQUANT	1	Ich Filter
VCHRANGE	IQUANT	2	Vch Range
VCHRANGEMODE	TOGGLE	T	Vch Auto Range
VCHOFFSETENABLE	TOGGLE	F	Vch Offset Enable
VCHOFFSET	QUANT	0	Vch Offset (V)
VCHFILTER	IQUANT	1	Vch Filter
IERANGELOWERLIMIT	IQUANT	9	I/E Range Lower Limit
IERANGEMODE	TOGGLE	F	I/E AutoRange
IERANGE	IQUANT	9	I/E Range
ACHSELECT	IQUANT	1	Ach Select
ACHRANGE	IQUANT	2	Ach Range
ACHOFFSETENABLE	TOGGLE	F	Ach Offset Enable
ACHOFFSET	QUANT	0	Ach Offset (V)
ACHFILTER	IQUANT	1	Ach Filter
CABLEID	IQUANT	14	Cable ID
DCCALDATE	LABEL	5-7-2017	DC Calibration Date
ACCALDATE	LABEL	12/3/2015	AC Calibration Date
FRAMEWORKVERSION	QUANT	7.01	Framework Version
INSTRUMENTVERSION	LABEL	4.00	Instrument Version
CURVE	TABLE	78
	Pt	T	Vf	Im	Vu	Pwr	Sig	Ach	Temp	IERange	Over
	#	s	V	A	V	W	V	V	deg C	#	bits
	0	0.013333	2.63243E-001	1.01146E-004	0.00000E+000	2.66260E-005	5.99601E-002	2.63325E-001	3.57830E+000	9	...........
	1	0.026667	2.85973E-001	1.00056E-004	0.00000E+000	2.86134E-005	5.99601E-002	2.86035E-001	3.57830E+000	9	...........
	2	0.04	3.07239E-001	1.01367E-004	0.00000E+000	3.11439E-005	5.99601E-002	3.07309E-001	3.57830E+000	9	...........
	3	0.053333	3.27452E-001	1.00864E-004	0.00000E+000	3.30280E-005	5.99601E-002	3.27515E-001	3.57830E+000	9	...........
	4	0.066667	3.46803E-001	1.00635E-004	0.00000E+000	3.49007E-005	5.99601E-002	3.46882E-001	3.57830E+000	9	...........
	5	0.08	3.65469E-001	1.01499E-004	0.00000E+000	3.70948E-005	5.99601E-002	3.65541E-001	3.57830E+000	9	...........
	6	0.093333	3.83532E-001	1.00131E-004	0.00000E+000	3.84036E-005	5.99601E-002	3.83611E-001	3.57830E+000	9	...........
	7	0.106667	4.01060E-001	1.01989E-004	0.00000E+000	4.09036E-005	5.99601E-002	4.01141E-001	3.57830E+000	9	...........
	8	0.12	4.18112E-001	1.01926E-004	0.00000E+000	4.26166E-005	5.99601E-002	4.18200E-001	3.57830E+000	9	...........
	9	0.133333	4.34733E-001	1.00863E-004	0.00000E+000	4.38483E-005	5.99601E-002	4.34823E-001	3.57830E+000	9	...........
	10	0.146667	4.50959E-001	1.01890E-004	0.00000E+000	4.59482E-005	5.99601E-002	4.51059E-001	3.57830E+000	9	...........
	11	0.16	4.66812E-001	1.00294E-004	0.00000E+000	4.68184E-005	5.99601E-002	4.66912E-001	3.57830E+000	9	...........
	12	0.173333	4.82317E-001	1.00531E-004	0.00000E+000	4.84879E-005	5.99601E-002	4.82419E-001	3.57830E+000	9	...........
	13	0.186667	4.97495E-001	1.01410E-004	0.00000E+000	5.04508E-005	5.99601E-002	4.97598E-001	3.57830E+000	9	...........
	14	0.2	5.12349E-001	1.01256E-004	0.00000E+000	5.18786E-005	5.99601E-002	5.12454E-001	3.57830E+000	9	...........
	15	0.213333	5.26906E-001	1.01050E-004	0.00000E+000	5.32440E-005	5.99601E-002	5.27017E-001	3.57830E+000	9	...........
	16	0.226667	5.40869E-001	1.01279E-004	0.00000E+000	5.47789E-005	5.99601E-002	5.41074E-001	3.57830E+000	9	...........
	17	0.24	5.54813E-001	1.01395E-004	0.00000E+000	5.62552E-005	5.99601E-002	5.55051E-001	3.57830E+000	9	...........
	18	0.253333	5.68519E-001	1.00859E-004	0.00000E+000	5.73405E-005	5.99601E-002	5.68791E-001	3.57830E+000	9	...........
	19	0.266667	5.81934E-001	1.00668E-004	0.00000E+000	5.85820E-005	5.99601E-002	5.82215E-001	3.57830E+000	9	...........
	20	0.28	5.95126E-001	1.00500E-004	0.00000E+000	5.98102E-005	5.99601E-002	5.95387E-001	3.57830E+000	9	...........
	21	0.293333	6.08000E-001	1.00855E-004	0.00000E+000	6.13200E-005	5.99601E-002	6.08287E-001	3.57830E+000	9	...........
	22	0.306667	6.20705E-001	1.01197E-004	0.00000E+000	6.28135E-005	5.99601E-002	6.20963E-001	3.57830E+000	9	...........
	23	0.32	6.33102E-001	1.00955E-004	0.00000E+000	6.39150E-005	5.99601E-002	6.33388E-001	3.57830E+000	9	...........
	24	0.333333	6.45291E-001	1.00866E-004	0.00000E+000	6.50878E-005	5.99601E-002	6.45559E-001	3.57830E+000	9	...........
	25	0.346667	6.57192E-001	1.00689E-004	0.00000E+000	6.61717E-005	5.99601E-002	6.57469E-001	3.57830E+000	9	...........
	26	0.36	6.68902E-001	1.01344E-004	0.00000E+000	6.77892E-005	5.99601E-002	6.69145E-001	3.57830E+000	9	...........
	27	0.373333	6.80339E-001	1.01342E-004	0.00000E+000	6.89468E-005	5.99601E-002	6.80589E-001	3.57830E+000	9	...........
	28	0.386667	6.91531E-001	1.00633E-004	0.00000E+000	6.95911E-005	5.99601E-002	6.91770E-001	3.57830E+000	9	...........
	29	0.4	7.02487E-001	1.02052E-004	0.00000E+000	7.16905E-005	5.99601E-002	7.02726E-001	3.57830E+000	9	...........
	30	0.413333	7.13200E-001	1.00979E-004	0.00000E+000	7.20184E-005	5.99601E-002	7.13455E-001	3.57830E+000	9	...........
	31	0.426667	7.23733E-001	1.00989E-004	0.00000E+000	7.30888E-005	5.99601E-002	7.23949E-001	3.57830E+000	9	...........
	32	0.44	7.33941E-001	1.01403E-004	0.00000E+000	7.44241E-005	5.99601E-002	7.34211E-001	3.57830E+000	9	...........
	33	0.453333	7.43953E-001	9.97363E-005	0.00000E+000	7.41991E-005	5.99601E-002	7.44229E-001	3.57830E+000	9	...........
	34	0.466667	7.53746E-001	1.01323E-004	0.00000E+000	7.63719E-005	5.99601E-002	7.54015E-001	3.57830E+000	9	...........
	35	0.48	7.63295E-001	1.00937E-004	0.00000E+000	7.70444E-005	5.99601E-002	7.63556E-001	3.57830E+000	9	...........
	36	0.493333	7.72604E-001	1.01325E-004	0.00000E+000	7.82843E-005	5.99601E-002	7.72911E-001	3.57830E+000	9	...........
	37	0.506667	7.81680E-001	1.01150E-004	0.00000E+000	7.90671E-005	5.99601E-002	7.81982E-001	3.57815E+000	9	...........
	38	0.52	7.90552E-001	1.00817E-004	0.00000E+000	7.97009E-005	5.99601E-002	7.90842E-001	3.57710E+000	9	...........
	39	0.533333	7.99202E-001	1.01850E-004	0.00000E+000	8.13990E-005	5.99601E-002	7.99480E-001	3.57710E+000	9	...........
	40	0.546667	8.07580E-001	1.00826E-004	0.00000E+000	8.14252E-005	5.99601E-002	8.07896E-001	3.57710E+000	9	...........
	41	0.56	8.15770E-001	1.00841E-004	0.00000E+000	8.22629E-005	5.99601E-002	8.16102E-001	3.57710E+000	9	...........
	42	0.573333	8.23727E-001	1.01453E-004	0.00000E+000	8.35699E-005	5.99601E-002	8.24057E-001	3.57710E+000	9	...........
	43	0.586667	8.31456E-001	1.00828E-004	0.00000E+000	8.38343E-005	5.99601E-002	8.31801E-001	3.57710E+000	9	...........
	44	0.6	8.38990E-001	1.01219E-004	0.00000E+000	8.49217E-005	5.99601E-002	8.39315E-001	3.57710E+000	9	...........
	45	0.613333	8.46325E-001	1.01104E-004	0.00000E+000	8.55672E-005	5.99601E-002	8.46676E-001	3.57710E+000	9	...........
	46	0.626667	8.53446E-001	1.01207E-004	0.00000E+000	8.63751E-005	5.99601E-002	8.53754E-001	3.57710E+000	9	...........
	47	0.64	8.60319E-001	1.01206E-004	0.00000E+000	8.70699E-005	5.99601E-002	8.60681E-001	3.57710E+000	9	...........
	48	0.653333	8.66999E-001	1.01529E-004	0.00000E+000	8.80259E-005	5.99601E-002	8.67362E-001	3.57710E+000	9	...........
	49	0.666667	8.73522E-001	1.00478E-004	0.00000E+000	8.77699E-005	5.99601E-002	8.73874E-001	3.57710E+000	9	...........
	50	0.68	8.79785E-001	1.01025E-004	0.00000E+000	8.88804E-005	5.99601E-002	8.80151E-001	3.57710E+000	9	...........
	51	0.693333	8.85898E-001	1.01093E-004	0.00000E+000	8.95579E-005	5.99601E-002	8.86259E-001	3.57710E+000	9	...........
	52	0.706667	8.91809E-001	1.00776E-004	0.00000E+000	8.98730E-005	5.99601E-002	8.92153E-001	3.57710E+000	9	...........
	53	0.72	8.97552E-001	1.01921E-004	0.00000E+000	9.14795E-005	5.99601E-002	8.97928E-001	3.57710E+000	9	...........
	54	0.733333	9.03120E-001	1.01920E-004	0.00000E+000	9.20461E-005	5.99601E-002	9.03507E-001	3.57710E+000	9	...........
	55	0.746667	9.08531E-001	1.00440E-004	0.00000E+000	9.12525E-005	5.99601E-002	9.08909E-001	3.57710E+000	9	...........
	56	0.76	9.13792E-001	1.01713E-004	0.00000E+000	9.29443E-005	5.99601E-002	9.14193E-001	3.57710E+000	9	...........
	57	0.773333	9.18945E-001	1.00483E-004	0.00000E+000	9.23387E-005	5.99601E-002	9.19333E-001	3.57710E+000	9	...........
	58	0.786667	9.24007E-001	1.01011E-004	0.00000E+000	9.33344E-005	5.99601E-002	9.24340E-001	3.57710E+000	9	...........
	59	0.8	9.28853E-001	1.00423E-004	0.00000E+000	9.32782E-005	5.99601E-002	9.29199E-001	3.57710E+000	9	...........
	60	0.813333	9.33617E-001	1.00861E-004	0.00000E+000	9.41650E-005	5.99601E-002	9.33959E-001	3.57710E+000	9	...........
	61	0.826667	9.38251E-001	1.01255E-004	0.00000E+000	9.50029E-005	5.99601E-002	9.38628E-001	3.57710E+000	9	...........
	62	0.84	9.42831E-001	1.00526E-004	0.00000E+000	9.47791E-005	5.99601E-002	9.43156E-001	3.57710E+000	9	...........
	63	0.853333	9.47305E-001	1.01465E-004	0.00000E+000	9.61182E-005	5.99601E-002	9.47655E-001	3.57710E+000	9	...........
	64	0.866667	9.51684E-001	1.01075E-004	0.00000E+000	9.61916E-005	5.99601E-002	9.52028E-001	3.57710E+000	9	...........
	65	0.88	9.55965E-001	1.00397E-004	0.00000E+000	9.59759E-005	5.99601E-002	9.56304E-001	3.57710E+000	9	...........
	66	0.893333	9.60155E-001	1.00617E-004	0.00000E+000	9.66077E-005	5.99601E-002	9.60504E-001	3.57710E+000	9	...........
	67	0.906667	9.64255E-001	1.00796E-004	0.00000E+000	9.71930E-005	5.99601E-002	9.64643E-001	3.57710E+000	9	...........
	68	0.92	9.68301E-001	9.99478E-005	0.00000E+000	9.67795E-005	5.99601E-002	9.68659E-001	3.57710E+000	9	...........
	69	0.933333	9.72292E-001	1.00801E-004	0.00000E+000	9.80081E-005	5.99601E-002	9.72643E-001	3.57710E+000	9	...........
	70	0.946667	9.76197E-001	1.01100E-004	0.00000E+000	9.86937E-005	5.99601E-002	9.76556E-001	3.57710E+000	9	...........
	71	0.96	9.79996E-001	1.00484E-004	0.00000E+000	9.84743E-005	5.99601E-002	9.80331E-001	3.57710E+000	9	...........
	72	0.97333	9.83718E-001	1.01446E-004	0.00000E+000	9.97943E-005	5.99601E-002	9.84051E-001	3.57710E+000	9	...........
	73	0.98667	9.87346E-001	1.00253E-004	0.00000E+000	9.89845E-005	5.99601E-002	9.87712E-001	3.57710E+000	9	...........
	74	1	9.90914E-001	1.01864E-004	0.00000E+000	1.00938E-004	5.99601E-002	9.91252E-001	3.57710E+000	9	...........
	75	1.01333	9.94380E-001	1.01557E-004	0.00000E+000	1.00986E-004	5.99601E-002	9.94712E-001	3.57710E+000	9	...........
	76	1.02667	9.97795E-001	1.00944E-004	0.00000E+000	1.00721E-004	5.99601E-002	9.98110E-001	3.57710E+000	9	...........
	77	1.03	9.99876E-001	1.02007E-004	0.00000E+000	1.01994E-004	5.99601E-002	1.00022E+000	3.57710E+000	9	...........
STARTTIMEOFFSET	QUANT	519.6601	Start Time Offset (s)
