EXPLAIN
TAG	PWR800_CHARGE
TITLE	LABEL	PWR Cyclic Charge Discharge (Cell) - Charge Step	Test &Identifier
DATE	LABEL	12-7-2017	Date
TIME	LABEL	16:11:57	Time
NOTES	NOTES	2	&Notes...
	supercap test cell
	6M KOH
PSTAT	PSTAT	IFC5000-01520	Potentiostat
CAPACITY	QUANT	1.00000E-003	Capacity (A-hr)
CELLTYPE	SELECTOR	1	&Cell Type
WORKINGCONNECTION	SELECTOR	0	&Working Lead
MAXCHARGETIME	VARIABLEANDUNITS	1.00000E+002	s	1.00000E+002	second(s)	Max &Charge Time
CHARGECURRENT	QUANT	1.00000E-004	&Charge Current (A) 
VOLTAGEFINISH	TWOPARAM	F	1.00000E-003	3.60000E+003	&Voltage Finish	 I (A) < 	Max Time(s)
SAMPLETIME	QUANT	1.00000E-002	Sa&mple Period (s)
CHARGESTOPAT1	MULTIPARAM	4	1.00000E+000	Charge Stop At &1	Voltage > Limit	V
CHARGESTOPAT2	MULTIPARAM	0	0.00000E+000	Charge Stop At &2	None	N/A
AESBHCSELECTOR	TOGGLE	F	Save Both Half Cells
IRCOMP	TOGGLE	F	IR &Measure
EOC	QUANT	0	Open Circuit (V)
SEQUENCER	TOGGLE	TRUE	Run as Sequence
PSTATMODEL	IQUANT	53	Pstat Model
PSTATSECTION	LABEL	IFC5000-01520	Pstat Section
PSTATSERIALNO	LABEL	01520	Pstat Serial Number
CTRLMODE	IQUANT	0	Control Mode
ELECTROMETER	IQUANT	1	RE=0 or CS=1
IESTAB	IQUANT	0	I/E Stability
CASPEED	IQUANT	4	Control Amp Speed
CONVENTION	IQUANT	1	Current Convention
ICHRANGE	IQUANT	2	Ich Range
ICHRANGEMODE	TOGGLE	T	Ich Auto Range
ICHOFFSETENABLE	TOGGLE	F	Ich Offset Enable
ICHOFFSET	QUANT	0	Ich Offset (V)
ICHFILTER	IQUANT	1	Ich Filter
VCHRANGE	IQUANT	2	Vch Range
VCHRANGEMODE	TOGGLE	T	Vch Auto Range
VCHOFFSETENABLE	TOGGLE	F	Vch Offset Enable
VCHOFFSET	QUANT	0	Vch Offset (V)
VCHFILTER	IQUANT	1	Vch Filter
IERANGELOWERLIMIT	IQUANT	9	I/E Range Lower Limit
IERANGEMODE	TOGGLE	F	I/E AutoRange
IERANGE	IQUANT	9	I/E Range
ACHSELECT	IQUANT	1	Ach Select
ACHRANGE	IQUANT	2	Ach Range
ACHOFFSETENABLE	TOGGLE	F	Ach Offset Enable
ACHOFFSET	QUANT	0	Ach Offset (V)
ACHFILTER	IQUANT	1	Ach Filter
CABLEID	IQUANT	14	Cable ID
DCCALDATE	LABEL	5-7-2017	DC Calibration Date
ACCALDATE	LABEL	12/3/2015	AC Calibration Date
FRAMEWORKVERSION	QUANT	7.01	Framework Version
INSTRUMENTVERSION	LABEL	4.00	Instrument Version
CURVE	TABLE	83
	Pt	T	Vf	Im	Vu	Pwr	Sig	Ach	Temp	IERange	Over
	#	s	V	A	V	W	V	V	deg C	#	bits
	0	0.013333	2.60452E-001	1.01264E-004	0.00000E+000	2.63743E-005	5.99601E-002	2.60520E-001	3.57870E+000	9	...........
	1	0.026667	2.83026E-001	1.01173E-004	0.00000E+000	2.86346E-005	5.99601E-002	2.83086E-001	3.57870E+000	9	...........
	2	0.04	3.03975E-001	1.01097E-004	0.00000E+000	3.07310E-005	5.99601E-002	3.04038E-001	3.57870E+000	9	...........
	3	0.053333	3.23662E-001	1.00778E-004	0.00000E+000	3.26180E-005	5.99601E-002	3.23729E-001	3.57870E+000	9	...........
	4	0.066667	3.42307E-001	1.00740E-004	0.00000E+000	3.44839E-005	5.99601E-002	3.42381E-001	3.57870E+000	9	...........
	5	0.08	3.60079E-001	1.00896E-004	0.00000E+000	3.63305E-005	5.99601E-002	3.60149E-001	3.57870E+000	9	...........
	6	0.093333	3.77077E-001	1.01657E-004	0.00000E+000	3.83323E-005	5.99601E-002	3.77151E-001	3.57870E+000	9	...........
	7	0.106667	3.93397E-001	1.01502E-004	0.00000E+000	3.99307E-005	5.99601E-002	3.93471E-001	3.57870E+000	9	...........
	8	0.12	4.09106E-001	1.01029E-004	0.00000E+000	4.13317E-005	5.99601E-002	4.09183E-001	3.57870E+000	9	...........
	9	0.133333	4.24271E-001	1.00996E-004	0.00000E+000	4.28496E-005	5.99601E-002	4.24358E-001	3.57870E+000	9	...........
	10	0.146667	4.38959E-001	1.00525E-004	0.00000E+000	4.41263E-005	5.99601E-002	4.39049E-001	3.57870E+000	9	...........
	11	0.16	4.53224E-001	1.01965E-004	0.00000E+000	4.62129E-005	5.99601E-002	4.53318E-001	3.57870E+000	9	...........
	12	0.173333	4.67092E-001	1.01197E-004	0.00000E+000	4.72684E-005	5.99601E-002	4.67183E-001	3.57870E+000	9	...........
	13	0.186667	4.80613E-001	1.00504E-004	0.00000E+000	4.83036E-005	5.99601E-002	4.80713E-001	3.57870E+000	9	...........
	14	0.2	4.93823E-001	1.01349E-004	0.00000E+000	5.00486E-005	5.99601E-002	4.93923E-001	3.57870E+000	9	...........
	15	0.213333	5.06729E-001	1.00304E-004	0.00000E+000	5.08270E-005	5.99601E-002	5.06830E-001	3.57870E+000	9	...........
	16	0.226667	5.19366E-001	1.00619E-004	0.00000E+000	5.22580E-005	5.99601E-002	5.19474E-001	3.57870E+000	9	...........
	17	0.24	5.31668E-001	1.01136E-004	0.00000E+000	5.37705E-005	5.99601E-002	5.31788E-001	3.57870E+000	9	...........
	18	0.253333	5.43581E-001	1.01122E-004	0.00000E+000	5.49680E-005	5.99601E-002	5.43802E-001	3.57870E+000	9	...........
	19	0.266667	5.55513E-001	1.01133E-004	0.00000E+000	5.61810E-005	5.99601E-002	5.55755E-001	3.57870E+000	9	...........
	20	0.28	5.67262E-001	1.00757E-004	0.00000E+000	5.71559E-005	5.99601E-002	5.67481E-001	3.57870E+000	9	...........
	21	0.293333	5.78765E-001	1.01448E-004	0.00000E+000	5.87147E-005	5.99601E-002	5.79000E-001	3.57870E+000	9	...........
	22	0.306667	5.90103E-001	1.00987E-004	0.00000E+000	5.95925E-005	5.99601E-002	5.90341E-001	3.57870E+000	9	...........
	23	0.32	6.01251E-001	1.00301E-004	0.00000E+000	6.03061E-005	5.99601E-002	6.01495E-001	3.57870E+000	9	...........
	24	0.333333	6.12235E-001	1.00789E-004	0.00000E+000	6.17063E-005	5.99601E-002	6.12480E-001	3.57870E+000	9	...........
	25	0.346667	6.23072E-001	1.00300E-004	0.00000E+000	6.24941E-005	5.99601E-002	6.23287E-001	3.57870E+000	9	...........
	26	0.36	6.33697E-001	1.01024E-004	0.00000E+000	6.40186E-005	5.99601E-002	6.33927E-001	3.57870E+000	9	...........
	27	0.373333	6.44192E-001	1.00931E-004	0.00000E+000	6.50192E-005	5.99601E-002	6.44428E-001	3.57870E+000	9	...........
	28	0.386667	6.54505E-001	1.01486E-004	0.00000E+000	6.64228E-005	5.99601E-002	6.54757E-001	3.57870E+000	9	...........
	29	0.4	6.64702E-001	1.01710E-004	0.00000E+000	6.76066E-005	5.99601E-002	6.64957E-001	3.57870E+000	9	...........
	30	0.413333	6.74727E-001	1.00804E-004	0.00000E+000	6.80154E-005	5.99601E-002	6.74973E-001	3.57870E+000	9	...........
	31	0.426667	6.84596E-001	1.00967E-004	0.00000E+000	6.91214E-005	5.99601E-002	6.84839E-001	3.57870E+000	9	...........
	32	0.44	6.94327E-001	1.00946E-004	0.00000E+000	7.00895E-005	5.99601E-002	6.94590E-001	3.57870E+000	9	...........
	33	0.453333	7.03919E-001	1.01096E-004	0.00000E+000	7.11634E-005	5.99601E-002	7.04144E-001	3.57870E+000	9	...........
	34	0.466667	7.13324E-001	1.01111E-004	0.00000E+000	7.21246E-005	5.99601E-002	7.13593E-001	3.57855E+000	9	...........
	35	0.48	7.22671E-001	1.01168E-004	0.00000E+000	7.31111E-005	5.99601E-002	7.22889E-001	3.57750E+000	9	...........
	36	0.493333	7.31798E-001	1.01022E-004	0.00000E+000	7.39277E-005	5.99601E-002	7.32036E-001	3.57750E+000	9	...........
	37	0.506667	7.40778E-001	1.00680E-004	0.00000E+000	7.45817E-005	5.99601E-002	7.41050E-001	3.57750E+000	9	...........
	38	0.52	7.49645E-001	1.00879E-004	0.00000E+000	7.56236E-005	5.99601E-002	7.49892E-001	3.57750E+000	9	...........
	39	0.533333	7.58362E-001	1.00922E-004	0.00000E+000	7.65354E-005	5.99601E-002	7.58601E-001	3.57750E+000	9	...........
	40	0.546667	7.66936E-001	1.00600E-004	0.00000E+000	7.71538E-005	5.99601E-002	7.67189E-001	3.57750E+000	9	...........
	41	0.56	7.75342E-001	1.01592E-004	0.00000E+000	7.87685E-005	5.99601E-002	7.75610E-001	3.57750E+000	9	...........
	42	0.573333	7.83591E-001	1.00840E-004	0.00000E+000	7.90171E-005	5.99601E-002	7.83867E-001	3.57750E+000	9	...........
	43	0.586667	7.91714E-001	1.00905E-004	0.00000E+000	7.98882E-005	5.99601E-002	7.91990E-001	3.57750E+000	9	...........
	44	0.6	7.99681E-001	1.01003E-004	0.00000E+000	8.07704E-005	5.99601E-002	7.99955E-001	3.57750E+000	9	...........
	45	0.613333	8.07476E-001	1.00909E-004	0.00000E+000	8.14820E-005	5.99601E-002	8.07782E-001	3.57750E+000	9	...........
	46	0.626667	8.15135E-001	1.01087E-004	0.00000E+000	8.23993E-005	5.99601E-002	8.15433E-001	3.57750E+000	9	...........
	47	0.64	8.22679E-001	1.00685E-004	0.00000E+000	8.28319E-005	5.99601E-002	8.22952E-001	3.57750E+000	9	...........
	48	0.653333	8.30021E-001	1.01160E-004	0.00000E+000	8.39645E-005	5.99601E-002	8.30302E-001	3.57750E+000	9	...........
	49	0.666667	8.37212E-001	1.00858E-004	0.00000E+000	8.44399E-005	5.99601E-002	8.37530E-001	3.57750E+000	9	...........
	50	0.68	8.44263E-001	1.01220E-004	0.00000E+000	8.54563E-005	5.99601E-002	8.44593E-001	3.57750E+000	9	...........
	51	0.693333	8.51210E-001	1.01067E-004	0.00000E+000	8.60291E-005	5.99601E-002	8.51497E-001	3.57750E+000	9	...........
	52	0.706667	8.57927E-001	1.01686E-004	0.00000E+000	8.72389E-005	5.99601E-002	8.58273E-001	3.57750E+000	9	...........
	53	0.72	8.64532E-001	1.01477E-004	0.00000E+000	8.77304E-005	5.99601E-002	8.64852E-001	3.57750E+000	9	...........
	54	0.733333	8.71006E-001	1.00180E-004	0.00000E+000	8.72575E-005	5.99601E-002	8.71329E-001	3.57750E+000	9	...........
	55	0.746667	8.77306E-001	1.01159E-004	0.00000E+000	8.87469E-005	5.99601E-002	8.77622E-001	3.57750E+000	9	...........
	56	0.76	8.83470E-001	1.01155E-004	0.00000E+000	8.93678E-005	5.99601E-002	8.83795E-001	3.57750E+000	9	...........
	57	0.773333	8.89475E-001	1.00342E-004	0.00000E+000	8.92514E-005	5.99601E-002	8.89755E-001	3.57750E+000	9	...........
	58	0.786667	8.95322E-001	1.00714E-004	0.00000E+000	9.01711E-005	5.99601E-002	8.95650E-001	3.57750E+000	9	...........
	59	0.8	9.01046E-001	1.00112E-004	0.00000E+000	9.02059E-005	5.99601E-002	9.01370E-001	3.57750E+000	9	...........
	60	0.813333	9.06604E-001	1.00931E-004	0.00000E+000	9.15048E-005	5.99601E-002	9.06920E-001	3.57750E+000	9	...........
	61	0.826667	9.12047E-001	1.01537E-004	0.00000E+000	9.26063E-005	5.99601E-002	9.12362E-001	3.57750E+000	9	...........
	62	0.84	9.17318E-001	1.00757E-004	0.00000E+000	9.24266E-005	5.99601E-002	9.17652E-001	3.57750E+000	9	...........
	63	0.853333	9.22545E-001	1.01125E-004	0.00000E+000	9.32925E-005	5.99601E-002	9.22823E-001	3.57750E+000	9	...........
	64	0.866667	9.27554E-001	1.00628E-004	0.00000E+000	9.33381E-005	5.99601E-002	9.27838E-001	3.57750E+000	9	...........
	65	0.88	9.32436E-001	1.01425E-004	0.00000E+000	9.45725E-005	5.99601E-002	9.32727E-001	3.57750E+000	9	...........
	66	0.893333	9.37164E-001	1.01787E-004	0.00000E+000	9.53909E-005	5.99601E-002	9.37463E-001	3.57750E+000	9	...........
	67	0.906667	9.41782E-001	1.00732E-004	0.00000E+000	9.48679E-005	5.99601E-002	9.42076E-001	3.57750E+000	9	...........
	68	0.92	9.46299E-001	1.00902E-004	0.00000E+000	9.54836E-005	5.99601E-002	9.46618E-001	3.57750E+000	9	...........
	69	0.933333	9.50719E-001	1.01290E-004	0.00000E+000	9.62981E-005	5.99601E-002	9.51028E-001	3.57750E+000	9	...........
	70	0.946667	9.54989E-001	1.00574E-004	0.00000E+000	9.60471E-005	5.99601E-002	9.55308E-001	3.57750E+000	9	...........
	71	0.96	9.59138E-001	1.00766E-004	0.00000E+000	9.66483E-005	5.99601E-002	9.59509E-001	3.57750E+000	9	...........
	72	0.97333	9.63220E-001	1.01180E-004	0.00000E+000	9.74590E-005	5.99601E-002	9.63536E-001	3.57750E+000	9	...........
	73	0.98667	9.67168E-001	1.01763E-004	0.00000E+000	9.84217E-005	5.99601E-002	9.67461E-001	3.57750E+000	9	...........
	74	1	9.71057E-001	1.01537E-004	0.00000E+000	9.85979E-005	5.99601E-002	9.71341E-001	3.57750E+000	9	...........
	75	1.01333	9.74867E-001	1.01343E-004	0.00000E+000	9.87958E-005	5.99601E-002	9.75108E-001	3.57750E+000	9	...........
	76	1.02667	9.78517E-001	9.99833E-005	0.00000E+000	9.78353E-005	5.99601E-002	9.78771E-001	3.57750E+000	9	...........
	77	1.04	9.82101E-001	1.01088E-004	0.00000E+000	9.92783E-005	5.99601E-002	9.82373E-001	3.57750E+000	9	...........
	78	1.05333	9.85586E-001	1.00690E-004	0.00000E+000	9.92383E-005	5.99601E-002	9.85885E-001	3.57750E+000	9	...........
	79	1.06667	9.88999E-001	1.00345E-004	0.00000E+000	9.92409E-005	5.99601E-002	9.89292E-001	3.57750E+000	9	...........
	80	1.08	9.92301E-001	1.00689E-004	0.00000E+000	9.99134E-005	5.99601E-002	9.92614E-001	3.57750E+000	9	...........
	81	1.09333	9.95517E-001	1.01114E-004	0.00000E+000	1.00660E-004	5.99601E-002	9.95852E-001	3.57750E+000	9	...........
	82	1.10667	9.98669E-001	1.00319E-004	0.00000E+000	1.00185E-004	5.99601E-002	9.99015E-001	3.57750E+000	9	...........
STARTTIMEOFFSET	QUANT	79.61833	Start Time Offset (s)
