EXPLAIN
TAG	PWR800_CHARGE
TITLE	LABEL	PWR Cyclic Charge Discharge (Cell) - Charge Step	Test &Identifier
DATE	LABEL	12-7-2017	Date
TIME	LABEL	16:47:43	Time
NOTES	NOTES	2	&Notes...
	supercap test cell
	6M KOH
PSTAT	PSTAT	IFC5000-01520	Potentiostat
CAPACITY	QUANT	1.00000E-003	Capacity (A-hr)
CELLTYPE	SELECTOR	1	&Cell Type
WORKINGCONNECTION	SELECTOR	0	&Working Lead
MAXCHARGETIME	VARIABLEANDUNITS	1.00000E+002	s	1.00000E+002	second(s)	Max &Charge Time
CHARGECURRENT	QUANT	1.00000E-004	&Charge Current (A) 
VOLTAGEFINISH	TWOPARAM	F	1.00000E-003	3.60000E+003	&Voltage Finish	 I (A) < 	Max Time(s)
SAMPLETIME	QUANT	1.00000E-002	Sa&mple Period (s)
CHARGESTOPAT1	MULTIPARAM	4	1.00000E+000	Charge Stop At &1	Voltage > Limit	V
CHARGESTOPAT2	MULTIPARAM	0	0.00000E+000	Charge Stop At &2	None	N/A
AESBHCSELECTOR	TOGGLE	F	Save Both Half Cells
IRCOMP	TOGGLE	F	IR &Measure
EOC	QUANT	0	Open Circuit (V)
SEQUENCER	TOGGLE	TRUE	Run as Sequence
PSTATMODEL	IQUANT	53	Pstat Model
PSTATSECTION	LABEL	IFC5000-01520	Pstat Section
PSTATSERIALNO	LABEL	01520	Pstat Serial Number
CTRLMODE	IQUANT	0	Control Mode
ELECTROMETER	IQUANT	1	RE=0 or CS=1
IESTAB	IQUANT	0	I/E Stability
CASPEED	IQUANT	4	Control Amp Speed
CONVENTION	IQUANT	1	Current Convention
ICHRANGE	IQUANT	2	Ich Range
ICHRANGEMODE	TOGGLE	T	Ich Auto Range
ICHOFFSETENABLE	TOGGLE	F	Ich Offset Enable
ICHOFFSET	QUANT	0	Ich Offset (V)
ICHFILTER	IQUANT	1	Ich Filter
VCHRANGE	IQUANT	2	Vch Range
VCHRANGEMODE	TOGGLE	T	Vch Auto Range
VCHOFFSETENABLE	TOGGLE	F	Vch Offset Enable
VCHOFFSET	QUANT	0	Vch Offset (V)
VCHFILTER	IQUANT	1	Vch Filter
IERANGELOWERLIMIT	IQUANT	9	I/E Range Lower Limit
IERANGEMODE	TOGGLE	F	I/E AutoRange
IERANGE	IQUANT	9	I/E Range
ACHSELECT	IQUANT	1	Ach Select
ACHRANGE	IQUANT	2	Ach Range
ACHOFFSETENABLE	TOGGLE	F	Ach Offset Enable
ACHOFFSET	QUANT	0	Ach Offset (V)
ACHFILTER	IQUANT	1	Ach Filter
CABLEID	IQUANT	14	Cable ID
DCCALDATE	LABEL	5-7-2017	DC Calibration Date
ACCALDATE	LABEL	12/3/2015	AC Calibration Date
FRAMEWORKVERSION	QUANT	7.01	Framework Version
INSTRUMENTVERSION	LABEL	4.00	Instrument Version
CURVE	TABLE	75
	Pt	T	Vf	Im	Vu	Pwr	Sig	Ach	Temp	IERange	Over
	#	s	V	A	V	W	V	V	deg C	#	bits
	0	0.013333	2.62433E-001	1.01249E-004	0.00000E+000	2.65711E-005	5.99601E-002	2.62513E-001	3.57650E+000	9	...........
	1	0.026667	2.85417E-001	9.95728E-005	0.00000E+000	2.84198E-005	5.99601E-002	2.85482E-001	3.57650E+000	9	...........
	2	0.04	3.07161E-001	1.01582E-004	0.00000E+000	3.12019E-005	5.99601E-002	3.07228E-001	3.57650E+000	9	...........
	3	0.053333	3.28005E-001	1.00710E-004	0.00000E+000	3.30336E-005	5.99601E-002	3.28081E-001	3.57650E+000	9	...........
	4	0.066667	3.48135E-001	1.01828E-004	0.00000E+000	3.54501E-005	5.99601E-002	3.48214E-001	3.57650E+000	9	...........
	5	0.08	3.67652E-001	9.98145E-005	0.00000E+000	3.66970E-005	5.99601E-002	3.67730E-001	3.57650E+000	9	...........
	6	0.093333	3.86668E-001	1.00366E-004	0.00000E+000	3.88082E-005	5.99601E-002	3.86744E-001	3.57650E+000	9	...........
	7	0.106667	4.05200E-001	1.01502E-004	0.00000E+000	4.11287E-005	5.99601E-002	4.05283E-001	3.57650E+000	9	...........
	8	0.12	4.23292E-001	1.01549E-004	0.00000E+000	4.29849E-005	5.99601E-002	4.23381E-001	3.57650E+000	9	...........
	9	0.133333	4.40961E-001	1.00475E-004	0.00000E+000	4.43055E-005	5.99601E-002	4.41056E-001	3.57650E+000	9	...........
	10	0.146667	4.58254E-001	1.00544E-004	0.00000E+000	4.60746E-005	5.99601E-002	4.58348E-001	3.57650E+000	9	...........
	11	0.16	4.75165E-001	1.01104E-004	0.00000E+000	4.80412E-005	5.99601E-002	4.75268E-001	3.57650E+000	9	...........
	12	0.173333	4.91700E-001	1.01374E-004	0.00000E+000	4.98457E-005	5.99601E-002	4.91805E-001	3.57650E+000	9	...........
	13	0.186667	5.07875E-001	1.01492E-004	0.00000E+000	5.15452E-005	5.99601E-002	5.07987E-001	3.57650E+000	9	...........
	14	0.2	5.23700E-001	1.01740E-004	0.00000E+000	5.32812E-005	5.99601E-002	5.23810E-001	3.57650E+000	9	...........
	15	0.213333	5.38962E-001	1.00921E-004	0.00000E+000	5.43926E-005	5.99601E-002	5.39141E-001	3.57650E+000	9	...........
	16	0.226667	5.54025E-001	1.01752E-004	0.00000E+000	5.63734E-005	5.99601E-002	5.54265E-001	3.57650E+000	9	...........
	17	0.24	5.68829E-001	1.01073E-004	0.00000E+000	5.74933E-005	5.99601E-002	5.69072E-001	3.57650E+000	9	...........
	18	0.253333	5.83268E-001	1.00981E-004	0.00000E+000	5.88992E-005	5.99601E-002	5.83513E-001	3.57650E+000	9	...........
	19	0.266667	5.97413E-001	1.00892E-004	0.00000E+000	6.02741E-005	5.99601E-002	5.97670E-001	3.57650E+000	9	...........
	20	0.28	6.11210E-001	1.00493E-004	0.00000E+000	6.14221E-005	5.99601E-002	6.11463E-001	3.57650E+000	9	...........
	21	0.293333	6.24702E-001	1.02564E-004	0.00000E+000	6.40720E-005	5.99601E-002	6.24949E-001	3.57650E+000	9	...........
	22	0.306667	6.37843E-001	1.00241E-004	0.00000E+000	6.39378E-005	5.99601E-002	6.38087E-001	3.57650E+000	9	...........
	23	0.32	6.50699E-001	1.00875E-004	0.00000E+000	6.56394E-005	5.99601E-002	6.50933E-001	3.57650E+000	9	...........
	24	0.333333	6.63199E-001	1.02645E-004	0.00000E+000	6.80743E-005	5.99601E-002	6.63460E-001	3.57650E+000	9	...........
	25	0.346667	6.75422E-001	9.98582E-005	0.00000E+000	6.74465E-005	5.99601E-002	6.75663E-001	3.57650E+000	9	...........
	26	0.36	6.87278E-001	1.00861E-004	0.00000E+000	6.93192E-005	5.99601E-002	6.87564E-001	3.57650E+000	9	...........
	27	0.373333	6.98880E-001	1.00497E-004	0.00000E+000	7.02352E-005	5.99601E-002	6.99128E-001	3.57650E+000	9	...........
	28	0.386667	7.10134E-001	1.01998E-004	0.00000E+000	7.24324E-005	5.99601E-002	7.10383E-001	3.57650E+000	9	...........
	29	0.4	7.21145E-001	1.00659E-004	0.00000E+000	7.25901E-005	5.99601E-002	7.21385E-001	3.57650E+000	9	...........
	30	0.413333	7.31816E-001	1.01765E-004	0.00000E+000	7.44731E-005	5.99601E-002	7.32084E-001	3.57650E+000	9	...........
	31	0.426667	7.42223E-001	1.00644E-004	0.00000E+000	7.47002E-005	5.99601E-002	7.42484E-001	3.57650E+000	9	...........
	32	0.44	7.52355E-001	1.01785E-004	0.00000E+000	7.65782E-005	5.99601E-002	7.52604E-001	3.57650E+000	9	...........
	33	0.453333	7.62172E-001	1.01641E-004	0.00000E+000	7.74678E-005	5.99601E-002	7.62421E-001	3.57650E+000	9	...........
	34	0.466667	7.71732E-001	1.00261E-004	0.00000E+000	7.73749E-005	5.99601E-002	7.71984E-001	3.57650E+000	9	...........
	35	0.48	7.80995E-001	1.01103E-004	0.00000E+000	7.89612E-005	5.99601E-002	7.81255E-001	3.57650E+000	9	...........
	36	0.493333	7.89991E-001	1.00496E-004	0.00000E+000	7.93908E-005	5.99601E-002	7.90277E-001	3.57650E+000	9	...........
	37	0.506667	7.98770E-001	1.00928E-004	0.00000E+000	8.06185E-005	5.99601E-002	7.99017E-001	3.57650E+000	9	...........
	38	0.52	8.07211E-001	1.00219E-004	0.00000E+000	8.08977E-005	5.99601E-002	8.07508E-001	3.57650E+000	9	...........
	39	0.533333	8.15420E-001	1.01013E-004	0.00000E+000	8.23678E-005	5.99601E-002	8.15726E-001	3.57650E+000	9	...........
	40	0.546667	8.23411E-001	1.02141E-004	0.00000E+000	8.41040E-005	5.99601E-002	8.23722E-001	3.57650E+000	9	...........
	41	0.56	8.31119E-001	1.01571E-004	0.00000E+000	8.44176E-005	5.99601E-002	8.31405E-001	3.57650E+000	9	...........
	42	0.573333	8.38556E-001	1.01221E-004	0.00000E+000	8.48795E-005	5.99601E-002	8.38880E-001	3.57650E+000	9	...........
	43	0.586667	8.45805E-001	1.00731E-004	0.00000E+000	8.51991E-005	5.99601E-002	8.46124E-001	3.57650E+000	9	...........
	44	0.6	8.52822E-001	1.01809E-004	0.00000E+000	8.68246E-005	5.99601E-002	8.53111E-001	3.57650E+000	9	...........
	45	0.613333	8.59595E-001	1.00277E-004	0.00000E+000	8.61977E-005	5.99601E-002	8.59888E-001	3.57650E+000	9	...........
	46	0.626667	8.66202E-001	1.00746E-004	0.00000E+000	8.72663E-005	5.99601E-002	8.66454E-001	3.57650E+000	9	...........
	47	0.64	8.72604E-001	1.01032E-004	0.00000E+000	8.81613E-005	5.99601E-002	8.72864E-001	3.57650E+000	9	...........
	48	0.653333	8.78816E-001	1.00809E-004	0.00000E+000	8.85930E-005	5.99601E-002	8.79081E-001	3.57650E+000	9	...........
	49	0.666667	8.84857E-001	1.01065E-004	0.00000E+000	8.94279E-005	5.99601E-002	8.85123E-001	3.57650E+000	9	...........
	50	0.68	8.90713E-001	1.01966E-004	0.00000E+000	9.08224E-005	5.99601E-002	8.90974E-001	3.57650E+000	9	...........
	51	0.693333	8.96426E-001	1.01414E-004	0.00000E+000	9.09100E-005	5.99601E-002	8.96703E-001	3.57650E+000	9	...........
	52	0.706667	9.01986E-001	1.02143E-004	0.00000E+000	9.21316E-005	5.99601E-002	9.02280E-001	3.57650E+000	9	...........
	53	0.72	9.07461E-001	1.00309E-004	0.00000E+000	9.10268E-005	5.99601E-002	9.07728E-001	3.57650E+000	9	...........
	54	0.733333	9.12793E-001	1.00096E-004	0.00000E+000	9.13667E-005	5.99601E-002	9.13057E-001	3.57650E+000	9	...........
	55	0.746667	9.17988E-001	1.01848E-004	0.00000E+000	9.34955E-005	5.99601E-002	9.18283E-001	3.57650E+000	9	...........
	56	0.76	9.23175E-001	1.01491E-004	0.00000E+000	9.36938E-005	5.99601E-002	9.23437E-001	3.57737E+000	9	...........
	57	0.773333	9.28199E-001	1.01016E-004	0.00000E+000	9.37628E-005	5.99601E-002	9.28466E-001	3.57790E+000	9	...........
	58	0.786667	9.33139E-001	9.97509E-005	0.00000E+000	9.30815E-005	5.99601E-002	9.33420E-001	3.57790E+000	9	...........
	59	0.8	9.37974E-001	1.00146E-004	0.00000E+000	9.39342E-005	5.99601E-002	9.38286E-001	3.57790E+000	9	...........
	60	0.813333	9.42767E-001	1.00334E-004	0.00000E+000	9.45920E-005	5.99601E-002	9.43054E-001	3.57790E+000	9	...........
	61	0.826667	9.47485E-001	1.01227E-004	0.00000E+000	9.59114E-005	5.99601E-002	9.47796E-001	3.57790E+000	9	...........
	62	0.84	9.52123E-001	1.01547E-004	0.00000E+000	9.66854E-005	5.99601E-002	9.52420E-001	3.57790E+000	9	...........
	63	0.853333	9.56660E-001	1.01885E-004	0.00000E+000	9.74690E-005	5.99601E-002	9.56981E-001	3.57790E+000	9	...........
	64	0.866667	9.61148E-001	1.01592E-004	0.00000E+000	9.76449E-005	5.99601E-002	9.61473E-001	3.57790E+000	9	...........
	65	0.88	9.65540E-001	1.01673E-004	0.00000E+000	9.81695E-005	5.99601E-002	9.65875E-001	3.57790E+000	9	...........
	66	0.893333	9.69871E-001	1.01427E-004	0.00000E+000	9.83714E-005	5.99601E-002	9.70190E-001	3.57790E+000	9	...........
	67	0.906667	9.74164E-001	1.00324E-004	0.00000E+000	9.77320E-005	5.99601E-002	9.74476E-001	3.57790E+000	9	...........
	68	0.92	9.78335E-001	1.02058E-004	0.00000E+000	9.98466E-005	5.99601E-002	9.78648E-001	3.57790E+000	9	...........
	69	0.933333	9.82426E-001	1.01947E-004	0.00000E+000	1.00156E-004	5.99601E-002	9.82737E-001	3.57790E+000	9	...........
	70	0.946667	9.86427E-001	1.02018E-004	0.00000E+000	1.00633E-004	5.99601E-002	9.86761E-001	3.57790E+000	9	...........
	71	0.96	9.90377E-001	1.01345E-004	0.00000E+000	1.00370E-004	5.99601E-002	9.90690E-001	3.57790E+000	9	...........
	72	0.97333	9.94201E-001	9.91008E-005	0.00000E+000	9.85261E-005	5.99601E-002	9.94551E-001	3.57790E+000	9	...........
	73	0.98667	9.97982E-001	1.01426E-004	0.00000E+000	1.01222E-004	5.99601E-002	9.98317E-001	3.57790E+000	9	...........
	74	0.98833	1.00007E+000	9.69472E-005	0.00000E+000	9.69536E-005	5.99601E-002	1.00042E+000	3.57790E+000	9	...........
STARTTIMEOFFSET	QUANT	1606.467	Start Time Offset (s)
