EXPLAIN
TAG	PWR800_CHARGE
TITLE	LABEL	PWR Cyclic Charge Discharge (Cell) - Charge Step	Test &Identifier
DATE	LABEL	12-7-2017	Date
TIME	LABEL	16:19:28	Time
NOTES	NOTES	2	&Notes...
	supercap test cell
	6M KOH
PSTAT	PSTAT	IFC5000-01520	Potentiostat
CAPACITY	QUANT	1.00000E-003	Capacity (A-hr)
CELLTYPE	SELECTOR	1	&Cell Type
WORKINGCONNECTION	SELECTOR	0	&Working Lead
MAXCHARGETIME	VARIABLEANDUNITS	1.00000E+002	s	1.00000E+002	second(s)	Max &Charge Time
CHARGECURRENT	QUANT	1.00000E-004	&Charge Current (A) 
VOLTAGEFINISH	TWOPARAM	F	1.00000E-003	3.60000E+003	&Voltage Finish	 I (A) < 	Max Time(s)
SAMPLETIME	QUANT	1.00000E-002	Sa&mple Period (s)
CHARGESTOPAT1	MULTIPARAM	4	1.00000E+000	Charge Stop At &1	Voltage > Limit	V
CHARGESTOPAT2	MULTIPARAM	0	0.00000E+000	Charge Stop At &2	None	N/A
AESBHCSELECTOR	TOGGLE	F	Save Both Half Cells
IRCOMP	TOGGLE	F	IR &Measure
EOC	QUANT	0	Open Circuit (V)
SEQUENCER	TOGGLE	TRUE	Run as Sequence
PSTATMODEL	IQUANT	53	Pstat Model
PSTATSECTION	LABEL	IFC5000-01520	Pstat Section
PSTATSERIALNO	LABEL	01520	Pstat Serial Number
CTRLMODE	IQUANT	0	Control Mode
ELECTROMETER	IQUANT	1	RE=0 or CS=1
IESTAB	IQUANT	0	I/E Stability
CASPEED	IQUANT	4	Control Amp Speed
CONVENTION	IQUANT	1	Current Convention
ICHRANGE	IQUANT	2	Ich Range
ICHRANGEMODE	TOGGLE	T	Ich Auto Range
ICHOFFSETENABLE	TOGGLE	F	Ich Offset Enable
ICHOFFSET	QUANT	0	Ich Offset (V)
ICHFILTER	IQUANT	1	Ich Filter
VCHRANGE	IQUANT	2	Vch Range
VCHRANGEMODE	TOGGLE	T	Vch Auto Range
VCHOFFSETENABLE	TOGGLE	F	Vch Offset Enable
VCHOFFSET	QUANT	0	Vch Offset (V)
VCHFILTER	IQUANT	1	Vch Filter
IERANGELOWERLIMIT	IQUANT	9	I/E Range Lower Limit
IERANGEMODE	TOGGLE	F	I/E AutoRange
IERANGE	IQUANT	9	I/E Range
ACHSELECT	IQUANT	1	Ach Select
ACHRANGE	IQUANT	2	Ach Range
ACHOFFSETENABLE	TOGGLE	F	Ach Offset Enable
ACHOFFSET	QUANT	0	Ach Offset (V)
ACHFILTER	IQUANT	1	Ach Filter
CABLEID	IQUANT	14	Cable ID
DCCALDATE	LABEL	5-7-2017	DC Calibration Date
ACCALDATE	LABEL	12/3/2015	AC Calibration Date
FRAMEWORKVERSION	QUANT	7.01	Framework Version
INSTRUMENTVERSION	LABEL	4.00	Instrument Version
CURVE	TABLE	78
	Pt	T	Vf	Im	Vu	Pwr	Sig	Ach	Temp	IERange	Over
	#	s	V	A	V	W	V	V	deg C	#	bits
	0	0.013333	2.63600E-001	1.01281E-004	0.00000E+000	2.66978E-005	5.99601E-002	2.63680E-001	3.57760E+000	9	...........
	1	0.026667	2.86249E-001	1.00824E-004	0.00000E+000	2.88608E-005	5.99601E-002	2.86306E-001	3.57760E+000	9	...........
	2	0.04	3.07402E-001	1.01773E-004	0.00000E+000	3.12852E-005	5.99601E-002	3.07465E-001	3.57760E+000	9	...........
	3	0.053333	3.27463E-001	1.01093E-004	0.00000E+000	3.31041E-005	5.99601E-002	3.27527E-001	3.57760E+000	9	...........
	4	0.066667	3.46645E-001	1.01450E-004	0.00000E+000	3.51672E-005	5.99601E-002	3.46713E-001	3.57760E+000	9	...........
	5	0.08	3.65085E-001	1.00961E-004	0.00000E+000	3.68592E-005	5.99601E-002	3.65162E-001	3.57763E+000	9	...........
	6	0.093333	3.82911E-001	1.00160E-004	0.00000E+000	3.83525E-005	5.99601E-002	3.82990E-001	3.57780E+000	9	...........
	7	0.106667	4.00196E-001	1.00555E-004	0.00000E+000	4.02418E-005	5.99601E-002	4.00271E-001	3.57780E+000	9	...........
	8	0.12	4.16979E-001	1.00136E-004	0.00000E+000	4.17548E-005	5.99601E-002	4.17073E-001	3.57780E+000	9	...........
	9	0.133333	4.33328E-001	1.01585E-004	0.00000E+000	4.40195E-005	5.99601E-002	4.33423E-001	3.57780E+000	9	...........
	10	0.146667	4.49279E-001	1.01583E-004	0.00000E+000	4.56389E-005	5.99601E-002	4.49371E-001	3.57780E+000	9	...........
	11	0.16	4.64849E-001	1.01215E-004	0.00000E+000	4.70496E-005	5.99601E-002	4.64947E-001	3.57780E+000	9	...........
	12	0.173333	4.80075E-001	1.01485E-004	0.00000E+000	4.87202E-005	5.99601E-002	4.80171E-001	3.57780E+000	9	...........
	13	0.186667	4.94960E-001	1.01348E-004	0.00000E+000	5.01632E-005	5.99601E-002	4.95069E-001	3.57780E+000	9	...........
	14	0.2	5.09547E-001	1.01154E-004	0.00000E+000	5.15429E-005	5.99601E-002	5.09663E-001	3.57780E+000	9	...........
	15	0.213333	5.23834E-001	1.00820E-004	0.00000E+000	5.28129E-005	5.99601E-002	5.23955E-001	3.57780E+000	9	...........
	16	0.226667	5.37603E-001	1.01563E-004	0.00000E+000	5.46005E-005	5.99601E-002	5.37820E-001	3.57780E+000	9	...........
	17	0.24	5.51256E-001	1.00222E-004	0.00000E+000	5.52479E-005	5.99601E-002	5.51509E-001	3.57780E+000	9	...........
	18	0.253333	5.64721E-001	1.00849E-004	0.00000E+000	5.69516E-005	5.99601E-002	5.65001E-001	3.57780E+000	9	...........
	19	0.266667	5.77951E-001	1.00721E-004	0.00000E+000	5.82118E-005	5.99601E-002	5.78220E-001	3.57780E+000	9	...........
	20	0.28	5.90934E-001	1.00866E-004	0.00000E+000	5.96049E-005	5.99601E-002	5.91211E-001	3.57780E+000	9	...........
	21	0.293333	6.03641E-001	1.01323E-004	0.00000E+000	6.11628E-005	5.99601E-002	6.03942E-001	3.57780E+000	9	...........
	22	0.306667	6.16173E-001	1.00986E-004	0.00000E+000	6.22246E-005	5.99601E-002	6.16447E-001	3.57780E+000	9	...........
	23	0.32	6.28420E-001	1.01453E-004	0.00000E+000	6.37553E-005	5.99601E-002	6.28688E-001	3.57780E+000	9	...........
	24	0.333333	6.40463E-001	1.02090E-004	0.00000E+000	6.53848E-005	5.99601E-002	6.40726E-001	3.57780E+000	9	...........
	25	0.346667	6.52254E-001	1.00934E-004	0.00000E+000	6.58349E-005	5.99601E-002	6.52538E-001	3.57780E+000	9	...........
	26	0.36	6.63848E-001	9.97009E-005	0.00000E+000	6.61863E-005	5.99601E-002	6.64127E-001	3.57780E+000	9	...........
	27	0.373333	6.75185E-001	1.01422E-004	0.00000E+000	6.84787E-005	5.99601E-002	6.75485E-001	3.57780E+000	9	...........
	28	0.386667	6.86294E-001	1.01296E-004	0.00000E+000	6.95188E-005	5.99601E-002	6.86589E-001	3.57780E+000	9	...........
	29	0.4	6.97202E-001	1.01483E-004	0.00000E+000	7.07538E-005	5.99601E-002	6.97480E-001	3.57780E+000	9	...........
	30	0.413333	7.07878E-001	1.01147E-004	0.00000E+000	7.15998E-005	5.99601E-002	7.08170E-001	3.57780E+000	9	...........
	31	0.426667	7.18357E-001	1.00564E-004	0.00000E+000	7.22405E-005	5.99601E-002	7.18640E-001	3.57780E+000	9	...........
	32	0.44	7.28613E-001	1.02022E-004	0.00000E+000	7.43347E-005	5.99601E-002	7.28883E-001	3.57780E+000	9	...........
	33	0.453333	7.38607E-001	1.00809E-004	0.00000E+000	7.44586E-005	5.99601E-002	7.38873E-001	3.57780E+000	9	...........
	34	0.466667	7.48421E-001	1.02018E-004	0.00000E+000	7.63524E-005	5.99601E-002	7.48686E-001	3.57780E+000	9	...........
	35	0.48	7.58013E-001	1.00360E-004	0.00000E+000	7.60745E-005	5.99601E-002	7.58270E-001	3.57780E+000	9	...........
	36	0.493333	7.67365E-001	1.01500E-004	0.00000E+000	7.78877E-005	5.99601E-002	7.67654E-001	3.57780E+000	9	...........
	37	0.506667	7.76523E-001	1.01353E-004	0.00000E+000	7.87032E-005	5.99601E-002	7.76795E-001	3.57780E+000	9	...........
	38	0.52	7.85462E-001	1.02101E-004	0.00000E+000	8.01967E-005	5.99601E-002	7.85737E-001	3.57780E+000	9	...........
	39	0.533333	7.94176E-001	1.01388E-004	0.00000E+000	8.05197E-005	5.99601E-002	7.94456E-001	3.57780E+000	9	...........
	40	0.546667	8.02683E-001	1.00642E-004	0.00000E+000	8.07834E-005	5.99601E-002	8.02953E-001	3.57780E+000	9	...........
	41	0.56	8.10961E-001	1.01775E-004	0.00000E+000	8.25358E-005	5.99601E-002	8.11231E-001	3.57780E+000	9	...........
	42	0.573333	8.19055E-001	1.00949E-004	0.00000E+000	8.26829E-005	5.99601E-002	8.19337E-001	3.57780E+000	9	...........
	43	0.586667	8.26912E-001	1.00553E-004	0.00000E+000	8.31486E-005	5.99601E-002	8.27187E-001	3.57780E+000	9	...........
	44	0.6	8.34537E-001	1.01313E-004	0.00000E+000	8.45492E-005	5.99601E-002	8.34837E-001	3.57780E+000	9	...........
	45	0.613333	8.41984E-001	1.00798E-004	0.00000E+000	8.48703E-005	5.99601E-002	8.42287E-001	3.57780E+000	9	...........
	46	0.626667	8.49247E-001	1.00917E-004	0.00000E+000	8.57032E-005	5.99601E-002	8.49558E-001	3.57780E+000	9	...........
	47	0.64	8.56283E-001	1.00863E-004	0.00000E+000	8.63669E-005	5.99601E-002	8.56579E-001	3.57780E+000	9	...........
	48	0.653333	8.63104E-001	1.00676E-004	0.00000E+000	8.68940E-005	5.99601E-002	8.63439E-001	3.57780E+000	9	...........
	49	0.666667	8.69784E-001	1.00975E-004	0.00000E+000	8.78266E-005	5.99601E-002	8.70092E-001	3.57780E+000	9	...........
	50	0.68	8.76220E-001	1.01573E-004	0.00000E+000	8.90005E-005	5.99601E-002	8.76546E-001	3.57780E+000	9	...........
	51	0.693333	8.82478E-001	1.00993E-004	0.00000E+000	8.91239E-005	5.99601E-002	8.82811E-001	3.57780E+000	9	...........
	52	0.706667	8.88544E-001	1.00450E-004	0.00000E+000	8.92542E-005	5.99601E-002	8.88874E-001	3.57780E+000	9	...........
	53	0.72	8.94422E-001	1.00587E-004	0.00000E+000	8.99668E-005	5.99601E-002	8.94748E-001	3.57780E+000	9	...........
	54	0.733333	9.00142E-001	1.01290E-004	0.00000E+000	9.11751E-005	5.99601E-002	9.00484E-001	3.57780E+000	9	...........
	55	0.746667	9.05686E-001	9.98134E-005	0.00000E+000	9.03996E-005	5.99601E-002	9.06034E-001	3.57780E+000	9	...........
	56	0.76	9.11096E-001	1.01080E-004	0.00000E+000	9.20939E-005	5.99601E-002	9.11405E-001	3.57780E+000	9	...........
	57	0.773333	9.16308E-001	1.01800E-004	0.00000E+000	9.32804E-005	5.99601E-002	9.16679E-001	3.57780E+000	9	...........
	58	0.786667	9.21435E-001	1.01496E-004	0.00000E+000	9.35220E-005	5.99601E-002	9.21790E-001	3.57780E+000	9	...........
	59	0.8	9.26416E-001	1.00954E-004	0.00000E+000	9.35257E-005	5.99601E-002	9.26773E-001	3.57780E+000	9	...........
	60	0.813333	9.31247E-001	1.01617E-004	0.00000E+000	9.46304E-005	5.99601E-002	9.31588E-001	3.57780E+000	9	...........
	61	0.826667	9.35942E-001	1.00956E-004	0.00000E+000	9.44893E-005	5.99601E-002	9.36320E-001	3.57780E+000	9	...........
	62	0.84	9.40538E-001	1.00086E-004	0.00000E+000	9.41351E-005	5.99601E-002	9.40903E-001	3.57780E+000	9	...........
	63	0.853333	9.45022E-001	1.01022E-004	0.00000E+000	9.54680E-005	5.99601E-002	9.45405E-001	3.57780E+000	9	...........
	64	0.866667	9.49477E-001	1.00756E-004	0.00000E+000	9.56659E-005	5.99601E-002	9.49824E-001	3.57780E+000	9	...........
	65	0.88	9.53788E-001	1.01217E-004	0.00000E+000	9.65394E-005	5.99601E-002	9.54125E-001	3.57780E+000	9	...........
	66	0.893333	9.58008E-001	1.01540E-004	0.00000E+000	9.72760E-005	5.99601E-002	9.58344E-001	3.57780E+000	9	...........
	67	0.906667	9.62118E-001	1.00705E-004	0.00000E+000	9.68904E-005	5.99601E-002	9.62494E-001	3.57780E+000	9	...........
	68	0.92	9.66189E-001	1.00854E-004	0.00000E+000	9.74442E-005	5.99601E-002	9.66518E-001	3.57780E+000	9	...........
	69	0.933333	9.70136E-001	1.01732E-004	0.00000E+000	9.86934E-005	5.99601E-002	9.70496E-001	3.57780E+000	9	...........
	70	0.946667	9.74089E-001	1.01397E-004	0.00000E+000	9.87698E-005	5.99601E-002	9.74398E-001	3.57780E+000	9	...........
	71	0.96	9.77863E-001	1.00895E-004	0.00000E+000	9.86614E-005	5.99601E-002	9.78200E-001	3.57780E+000	9	...........
	72	0.97333	9.81578E-001	1.00651E-004	0.00000E+000	9.87969E-005	5.99601E-002	9.81934E-001	3.57780E+000	9	...........
	73	0.98667	9.85217E-001	1.01767E-004	0.00000E+000	1.00263E-004	5.99601E-002	9.85589E-001	3.57780E+000	9	...........
	74	1	9.88774E-001	1.00673E-004	0.00000E+000	9.95429E-005	5.99601E-002	9.89177E-001	3.57780E+000	9	...........
	75	1.01333	9.92247E-001	1.02126E-004	0.00000E+000	1.01335E-004	5.99601E-002	9.92612E-001	3.57780E+000	9	...........
	76	1.02667	9.95641E-001	1.01137E-004	0.00000E+000	1.00696E-004	5.99601E-002	9.96009E-001	3.57780E+000	9	...........
	77	1.04	9.98957E-001	1.01239E-004	0.00000E+000	1.01133E-004	5.99601E-002	9.99344E-001	3.57780E+000	9	...........
STARTTIMEOFFSET	QUANT	402.6618	Start Time Offset (s)
