EXPLAIN
TAG	PWR800_CHARGE
TITLE	LABEL	PWR Cyclic Charge Discharge (Cell) - Charge Step	Test &Identifier
DATE	LABEL	12-7-2017	Date
TIME	LABEL	16:38:05	Time
NOTES	NOTES	2	&Notes...
	supercap test cell
	6M KOH
PSTAT	PSTAT	IFC5000-01520	Potentiostat
CAPACITY	QUANT	1.00000E-003	Capacity (A-hr)
CELLTYPE	SELECTOR	1	&Cell Type
WORKINGCONNECTION	SELECTOR	0	&Working Lead
MAXCHARGETIME	VARIABLEANDUNITS	1.00000E+002	s	1.00000E+002	second(s)	Max &Charge Time
CHARGECURRENT	QUANT	1.00000E-004	&Charge Current (A) 
VOLTAGEFINISH	TWOPARAM	F	1.00000E-003	3.60000E+003	&Voltage Finish	 I (A) < 	Max Time(s)
SAMPLETIME	QUANT	1.00000E-002	Sa&mple Period (s)
CHARGESTOPAT1	MULTIPARAM	4	1.00000E+000	Charge Stop At &1	Voltage > Limit	V
CHARGESTOPAT2	MULTIPARAM	0	0.00000E+000	Charge Stop At &2	None	N/A
AESBHCSELECTOR	TOGGLE	F	Save Both Half Cells
IRCOMP	TOGGLE	F	IR &Measure
EOC	QUANT	0	Open Circuit (V)
SEQUENCER	TOGGLE	TRUE	Run as Sequence
PSTATMODEL	IQUANT	53	Pstat Model
PSTATSECTION	LABEL	IFC5000-01520	Pstat Section
PSTATSERIALNO	LABEL	01520	Pstat Serial Number
CTRLMODE	IQUANT	0	Control Mode
ELECTROMETER	IQUANT	1	RE=0 or CS=1
IESTAB	IQUANT	0	I/E Stability
CASPEED	IQUANT	4	Control Amp Speed
CONVENTION	IQUANT	1	Current Convention
ICHRANGE	IQUANT	2	Ich Range
ICHRANGEMODE	TOGGLE	T	Ich Auto Range
ICHOFFSETENABLE	TOGGLE	F	Ich Offset Enable
ICHOFFSET	QUANT	0	Ich Offset (V)
ICHFILTER	IQUANT	1	Ich Filter
VCHRANGE	IQUANT	2	Vch Range
VCHRANGEMODE	TOGGLE	T	Vch Auto Range
VCHOFFSETENABLE	TOGGLE	F	Vch Offset Enable
VCHOFFSET	QUANT	0	Vch Offset (V)
VCHFILTER	IQUANT	1	Vch Filter
IERANGELOWERLIMIT	IQUANT	9	I/E Range Lower Limit
IERANGEMODE	TOGGLE	F	I/E AutoRange
IERANGE	IQUANT	9	I/E Range
ACHSELECT	IQUANT	1	Ach Select
ACHRANGE	IQUANT	2	Ach Range
ACHOFFSETENABLE	TOGGLE	F	Ach Offset Enable
ACHOFFSET	QUANT	0	Ach Offset (V)
ACHFILTER	IQUANT	1	Ach Filter
CABLEID	IQUANT	14	Cable ID
DCCALDATE	LABEL	5-7-2017	DC Calibration Date
ACCALDATE	LABEL	12/3/2015	AC Calibration Date
FRAMEWORKVERSION	QUANT	7.01	Framework Version
INSTRUMENTVERSION	LABEL	4.00	Instrument Version
CURVE	TABLE	76
	Pt	T	Vf	Im	Vu	Pwr	Sig	Ach	Temp	IERange	Over
	#	s	V	A	V	W	V	V	deg C	#	bits
	0	0.013333	2.60710E-001	1.01247E-004	0.00000E+000	2.63961E-005	5.99601E-002	2.60786E-001	3.57680E+000	9	...........
	1	0.026667	2.83703E-001	1.01803E-004	0.00000E+000	2.88820E-005	5.99601E-002	2.83762E-001	3.57680E+000	9	...........
	2	0.04	3.05395E-001	1.01100E-004	0.00000E+000	3.08755E-005	5.99601E-002	3.05454E-001	3.57680E+000	9	...........
	3	0.053333	3.26156E-001	1.00976E-004	0.00000E+000	3.29340E-005	5.99601E-002	3.26223E-001	3.57680E+000	9	...........
	4	0.066667	3.46184E-001	1.02026E-004	0.00000E+000	3.53199E-005	5.99601E-002	3.46254E-001	3.57680E+000	9	...........
	5	0.08	3.65584E-001	1.00653E-004	0.00000E+000	3.67972E-005	5.99601E-002	3.65657E-001	3.57680E+000	9	...........
	6	0.093333	3.84434E-001	1.00015E-004	0.00000E+000	3.84489E-005	5.99601E-002	3.84518E-001	3.57680E+000	9	...........
	7	0.106667	4.02807E-001	1.00189E-004	0.00000E+000	4.03567E-005	5.99601E-002	4.02891E-001	3.57680E+000	9	...........
	8	0.12	4.20728E-001	1.01621E-004	0.00000E+000	4.27549E-005	5.99601E-002	4.20819E-001	3.57680E+000	9	...........
	9	0.133333	4.38232E-001	1.01541E-004	0.00000E+000	4.44984E-005	5.99601E-002	4.38331E-001	3.57680E+000	9	...........
	10	0.146667	4.55336E-001	1.00020E-004	0.00000E+000	4.55425E-005	5.99601E-002	4.55439E-001	3.57680E+000	9	...........
	11	0.16	4.72061E-001	1.01000E-004	0.00000E+000	4.76782E-005	5.99601E-002	4.72167E-001	3.57680E+000	9	...........
	12	0.173333	4.88424E-001	1.00683E-004	0.00000E+000	4.91762E-005	5.99601E-002	4.88527E-001	3.57680E+000	9	...........
	13	0.186667	5.04424E-001	9.98551E-005	0.00000E+000	5.03693E-005	5.99601E-002	5.04533E-001	3.57680E+000	9	...........
	14	0.2	5.20079E-001	1.01783E-004	0.00000E+000	5.29350E-005	5.99601E-002	5.20198E-001	3.57680E+000	9	...........
	15	0.213333	5.35241E-001	1.00406E-004	0.00000E+000	5.37415E-005	5.99601E-002	5.35401E-001	3.57680E+000	9	...........
	16	0.226667	5.50060E-001	1.02009E-004	0.00000E+000	5.61109E-005	5.99601E-002	5.50319E-001	3.57680E+000	9	...........
	17	0.24	5.64746E-001	1.01367E-004	0.00000E+000	5.72466E-005	5.99601E-002	5.65002E-001	3.57680E+000	9	...........
	18	0.253333	5.79074E-001	1.00841E-004	0.00000E+000	5.83943E-005	5.99601E-002	5.79342E-001	3.57680E+000	9	...........
	19	0.266667	5.93113E-001	9.92675E-005	0.00000E+000	5.88768E-005	5.99601E-002	5.93368E-001	3.57680E+000	9	...........
	20	0.28	6.06788E-001	1.00817E-004	0.00000E+000	6.11744E-005	5.99601E-002	6.07076E-001	3.57680E+000	9	...........
	21	0.293333	6.20236E-001	1.01701E-004	0.00000E+000	6.30788E-005	5.99601E-002	6.20478E-001	3.57680E+000	9	...........
	22	0.306667	6.33309E-001	1.01798E-004	0.00000E+000	6.44698E-005	5.99601E-002	6.33563E-001	3.57680E+000	9	...........
	23	0.32	6.46094E-001	1.00295E-004	0.00000E+000	6.47999E-005	5.99601E-002	6.46354E-001	3.57680E+000	9	...........
	24	0.333333	6.58569E-001	1.01049E-004	0.00000E+000	6.65478E-005	5.99601E-002	6.58818E-001	3.57680E+000	9	...........
	25	0.346667	6.70787E-001	9.97363E-005	0.00000E+000	6.69018E-005	5.99601E-002	6.71012E-001	3.57680E+000	9	...........
	26	0.36	6.82664E-001	1.01634E-004	0.00000E+000	6.93816E-005	5.99601E-002	6.82903E-001	3.57680E+000	9	...........
	27	0.373333	6.94261E-001	1.01314E-004	0.00000E+000	7.03381E-005	5.99601E-002	6.94488E-001	3.57680E+000	9	...........
	28	0.386667	7.05551E-001	1.01023E-004	0.00000E+000	7.12769E-005	5.99601E-002	7.05790E-001	3.57680E+000	9	...........
	29	0.4	7.16551E-001	1.01607E-004	0.00000E+000	7.28063E-005	5.99601E-002	7.16798E-001	3.57680E+000	9	...........
	30	0.413333	7.27300E-001	9.98707E-005	0.00000E+000	7.26360E-005	5.99601E-002	7.27535E-001	3.57680E+000	9	...........
	31	0.426667	7.37713E-001	9.99614E-005	0.00000E+000	7.37428E-005	5.99601E-002	7.37973E-001	3.57680E+000	9	...........
	32	0.44	7.47919E-001	1.01236E-004	0.00000E+000	7.57160E-005	5.99601E-002	7.48156E-001	3.57680E+000	9	...........
	33	0.453333	7.57806E-001	1.01195E-004	0.00000E+000	7.66862E-005	5.99601E-002	7.58051E-001	3.57680E+000	9	...........
	34	0.466667	7.67440E-001	1.01946E-004	0.00000E+000	7.82376E-005	5.99601E-002	7.67694E-001	3.57680E+000	9	...........
	35	0.48	7.76810E-001	1.01463E-004	0.00000E+000	7.88172E-005	5.99601E-002	7.77067E-001	3.57680E+000	9	...........
	36	0.493333	7.85899E-001	1.00372E-004	0.00000E+000	7.88822E-005	5.99601E-002	7.86160E-001	3.57680E+000	9	...........
	37	0.506667	7.94749E-001	1.00484E-004	0.00000E+000	7.98599E-005	5.99601E-002	7.95026E-001	3.57680E+000	9	...........
	38	0.52	8.03335E-001	1.00747E-004	0.00000E+000	8.09335E-005	5.99601E-002	8.03575E-001	3.57680E+000	9	...........
	39	0.533333	8.11625E-001	1.01291E-004	0.00000E+000	8.22102E-005	5.99601E-002	8.11898E-001	3.57680E+000	9	...........
	40	0.546667	8.19732E-001	1.01341E-004	0.00000E+000	8.30723E-005	5.99601E-002	8.20015E-001	3.57680E+000	9	...........
	41	0.56	8.27560E-001	1.00506E-004	0.00000E+000	8.31750E-005	5.99601E-002	8.27836E-001	3.57680E+000	9	...........
	42	0.573333	8.35126E-001	1.01429E-004	0.00000E+000	8.47064E-005	5.99601E-002	8.35436E-001	3.57680E+000	9	...........
	43	0.586667	8.42479E-001	1.01900E-004	0.00000E+000	8.58489E-005	5.99601E-002	8.42796E-001	3.57680E+000	9	...........
	44	0.6	8.49624E-001	1.01443E-004	0.00000E+000	8.61884E-005	5.99601E-002	8.49948E-001	3.57680E+000	9	...........
	45	0.613333	8.56499E-001	1.01547E-004	0.00000E+000	8.69750E-005	5.99601E-002	8.56828E-001	3.57680E+000	9	...........
	46	0.626667	8.63192E-001	1.00304E-004	0.00000E+000	8.65817E-005	5.99601E-002	8.63513E-001	3.57680E+000	9	...........
	47	0.64	8.69675E-001	1.00841E-004	0.00000E+000	8.76987E-005	5.99601E-002	8.69999E-001	3.57680E+000	9	...........
	48	0.653333	8.75971E-001	1.00496E-004	0.00000E+000	8.80315E-005	5.99601E-002	8.76311E-001	3.57680E+000	9	...........
	49	0.666667	8.82072E-001	1.00585E-004	0.00000E+000	8.87237E-005	5.99601E-002	8.82397E-001	3.57680E+000	9	...........
	50	0.68	8.88006E-001	9.98270E-005	0.00000E+000	8.86469E-005	5.99601E-002	8.88331E-001	3.57680E+000	9	...........
	51	0.693333	8.93781E-001	1.02214E-004	0.00000E+000	9.13568E-005	5.99601E-002	8.94098E-001	3.57680E+000	9	...........
	52	0.706667	8.99385E-001	1.00618E-004	0.00000E+000	9.04941E-005	5.99601E-002	8.99719E-001	3.57680E+000	9	...........
	53	0.72	9.04856E-001	1.01267E-004	0.00000E+000	9.16319E-005	5.99601E-002	9.05193E-001	3.57680E+000	9	...........
	54	0.733333	9.10217E-001	1.01248E-004	0.00000E+000	9.21577E-005	5.99601E-002	9.10513E-001	3.57680E+000	9	...........
	55	0.746667	9.15434E-001	1.00954E-004	0.00000E+000	9.24169E-005	5.99601E-002	9.15753E-001	3.57680E+000	9	...........
	56	0.76	9.20572E-001	9.97488E-005	0.00000E+000	9.18259E-005	5.99601E-002	9.20865E-001	3.57762E+000	9	...........
	57	0.773333	9.25591E-001	1.00562E-004	0.00000E+000	9.30788E-005	5.99601E-002	9.25868E-001	3.57790E+000	9	...........
	58	0.786667	9.30500E-001	1.01053E-004	0.00000E+000	9.40301E-005	5.99601E-002	9.30782E-001	3.57790E+000	9	...........
	59	0.8	9.35297E-001	9.98436E-005	0.00000E+000	9.33835E-005	5.99601E-002	9.35613E-001	3.57790E+000	9	...........
	60	0.813333	9.40029E-001	1.01362E-004	0.00000E+000	9.52829E-005	5.99601E-002	9.40351E-001	3.57790E+000	9	...........
	61	0.826667	9.44661E-001	1.00825E-004	0.00000E+000	9.52455E-005	5.99601E-002	9.44985E-001	3.57790E+000	9	...........
	62	0.84	9.49287E-001	1.01184E-004	0.00000E+000	9.60522E-005	5.99601E-002	9.49601E-001	3.57790E+000	9	...........
	63	0.853333	9.53763E-001	1.01831E-004	0.00000E+000	9.71221E-005	5.99601E-002	9.54050E-001	3.57790E+000	9	...........
	64	0.866667	9.58196E-001	1.00907E-004	0.00000E+000	9.66890E-005	5.99601E-002	9.58496E-001	3.57790E+000	9	...........
	65	0.88	9.62531E-001	1.01650E-004	0.00000E+000	9.78415E-005	5.99601E-002	9.62844E-001	3.57790E+000	9	...........
	66	0.893333	9.66793E-001	1.01253E-004	0.00000E+000	9.78910E-005	5.99601E-002	9.67126E-001	3.57790E+000	9	...........
	67	0.906667	9.71005E-001	1.00550E-004	0.00000E+000	9.76346E-005	5.99601E-002	9.71321E-001	3.57790E+000	9	...........
	68	0.92	9.75159E-001	1.01730E-004	0.00000E+000	9.92034E-005	5.99601E-002	9.75436E-001	3.57790E+000	9	...........
	69	0.933333	9.79173E-001	1.01279E-004	0.00000E+000	9.91700E-005	5.99601E-002	9.79486E-001	3.57790E+000	9	...........
	70	0.946667	9.83125E-001	9.99958E-005	0.00000E+000	9.83083E-005	5.99601E-002	9.83442E-001	3.57790E+000	9	...........
	71	0.96	9.87005E-001	1.01054E-004	0.00000E+000	9.97411E-005	5.99601E-002	9.87339E-001	3.57790E+000	9	...........
	72	0.97333	9.90813E-001	1.00627E-004	0.00000E+000	9.97026E-005	5.99601E-002	9.91150E-001	3.57790E+000	9	...........
	73	0.98667	9.94521E-001	1.02088E-004	0.00000E+000	1.01529E-004	5.99601E-002	9.94854E-001	3.57790E+000	9	...........
	74	1	9.98163E-001	1.00325E-004	0.00000E+000	1.00141E-004	5.99601E-002	9.98512E-001	3.57790E+000	9	...........
	75	1.00167	1.00017E+000	1.02140E-004	0.00000E+000	1.02157E-004	5.99601E-002	1.00050E+000	3.57790E+000	9	...........
STARTTIMEOFFSET	QUANT	1197.065	Start Time Offset (s)
