EXPLAIN
TAG	PWR800_CHARGE
TITLE	LABEL	PWR Cyclic Charge Discharge (Cell) - Charge Step	Test &Identifier
DATE	LABEL	12-7-2017	Date
TIME	LABEL	16:38:00	Time
NOTES	NOTES	2	&Notes...
	supercap test cell
	6M KOH
PSTAT	PSTAT	IFC5000-01520	Potentiostat
CAPACITY	QUANT	1.00000E-003	Capacity (A-hr)
CELLTYPE	SELECTOR	1	&Cell Type
WORKINGCONNECTION	SELECTOR	0	&Working Lead
MAXCHARGETIME	VARIABLEANDUNITS	1.00000E+002	s	1.00000E+002	second(s)	Max &Charge Time
CHARGECURRENT	QUANT	1.00000E-004	&Charge Current (A) 
VOLTAGEFINISH	TWOPARAM	F	1.00000E-003	3.60000E+003	&Voltage Finish	 I (A) < 	Max Time(s)
SAMPLETIME	QUANT	1.00000E-002	Sa&mple Period (s)
CHARGESTOPAT1	MULTIPARAM	4	1.00000E+000	Charge Stop At &1	Voltage > Limit	V
CHARGESTOPAT2	MULTIPARAM	0	0.00000E+000	Charge Stop At &2	None	N/A
AESBHCSELECTOR	TOGGLE	F	Save Both Half Cells
IRCOMP	TOGGLE	F	IR &Measure
EOC	QUANT	0	Open Circuit (V)
SEQUENCER	TOGGLE	TRUE	Run as Sequence
PSTATMODEL	IQUANT	53	Pstat Model
PSTATSECTION	LABEL	IFC5000-01520	Pstat Section
PSTATSERIALNO	LABEL	01520	Pstat Serial Number
CTRLMODE	IQUANT	0	Control Mode
ELECTROMETER	IQUANT	1	RE=0 or CS=1
IESTAB	IQUANT	0	I/E Stability
CASPEED	IQUANT	4	Control Amp Speed
CONVENTION	IQUANT	1	Current Convention
ICHRANGE	IQUANT	2	Ich Range
ICHRANGEMODE	TOGGLE	T	Ich Auto Range
ICHOFFSETENABLE	TOGGLE	F	Ich Offset Enable
ICHOFFSET	QUANT	0	Ich Offset (V)
ICHFILTER	IQUANT	1	Ich Filter
VCHRANGE	IQUANT	2	Vch Range
VCHRANGEMODE	TOGGLE	T	Vch Auto Range
VCHOFFSETENABLE	TOGGLE	F	Vch Offset Enable
VCHOFFSET	QUANT	0	Vch Offset (V)
VCHFILTER	IQUANT	1	Vch Filter
IERANGELOWERLIMIT	IQUANT	9	I/E Range Lower Limit
IERANGEMODE	TOGGLE	F	I/E AutoRange
IERANGE	IQUANT	9	I/E Range
ACHSELECT	IQUANT	1	Ach Select
ACHRANGE	IQUANT	2	Ach Range
ACHOFFSETENABLE	TOGGLE	F	Ach Offset Enable
ACHOFFSET	QUANT	0	Ach Offset (V)
ACHFILTER	IQUANT	1	Ach Filter
CABLEID	IQUANT	14	Cable ID
DCCALDATE	LABEL	5-7-2017	DC Calibration Date
ACCALDATE	LABEL	12/3/2015	AC Calibration Date
FRAMEWORKVERSION	QUANT	7.01	Framework Version
INSTRUMENTVERSION	LABEL	4.00	Instrument Version
CURVE	TABLE	73
	Pt	T	Vf	Im	Vu	Pwr	Sig	Ach	Temp	IERange	Over
	#	s	V	A	V	W	V	V	deg C	#	bits
	0	0.013333	3.60379E-001	1.00425E-004	0.00000E+000	3.61911E-005	5.99601E-002	3.60481E-001	3.57680E+000	9	...........
	1	0.026667	3.82030E-001	1.00717E-004	0.00000E+000	3.84769E-005	5.99601E-002	3.82112E-001	3.57680E+000	9	...........
	2	0.04	4.02303E-001	1.00551E-004	0.00000E+000	4.04520E-005	5.99601E-002	4.02386E-001	3.57680E+000	9	...........
	3	0.053333	4.21545E-001	1.01129E-004	0.00000E+000	4.26305E-005	5.99601E-002	4.21631E-001	3.57680E+000	9	...........
	4	0.066667	4.39948E-001	1.01717E-004	0.00000E+000	4.47502E-005	5.99601E-002	4.40037E-001	3.57680E+000	9	...........
	5	0.08	4.57639E-001	1.00103E-004	0.00000E+000	4.58110E-005	5.99601E-002	4.57731E-001	3.57680E+000	9	...........
	6	0.093333	4.74705E-001	1.00989E-004	0.00000E+000	4.79398E-005	5.99601E-002	4.74805E-001	3.57680E+000	9	...........
	7	0.106667	4.91229E-001	1.00284E-004	0.00000E+000	4.92625E-005	5.99601E-002	4.91336E-001	3.57680E+000	9	...........
	8	0.12	5.07259E-001	1.00836E-004	0.00000E+000	5.11498E-005	5.99601E-002	5.07372E-001	3.57680E+000	9	...........
	9	0.133333	5.22833E-001	1.01377E-004	0.00000E+000	5.30034E-005	5.99601E-002	5.22942E-001	3.57680E+000	9	...........
	10	0.146667	5.37758E-001	1.01886E-004	0.00000E+000	5.47899E-005	5.99601E-002	5.37958E-001	3.57680E+000	9	...........
	11	0.16	5.52434E-001	1.01245E-004	0.00000E+000	5.59312E-005	5.99601E-002	5.52670E-001	3.57680E+000	9	...........
	12	0.173333	5.66833E-001	1.02895E-004	0.00000E+000	5.83245E-005	5.99601E-002	5.67067E-001	3.57942E+000	9	...........
	13	0.186667	5.80817E-001	1.00558E-004	0.00000E+000	5.84060E-005	5.99601E-002	5.81057E-001	3.58100E+000	9	...........
	14	0.2	5.94506E-001	1.02160E-004	0.00000E+000	6.07346E-005	5.99601E-002	5.94753E-001	3.58100E+000	9	...........
	15	0.213333	6.07780E-001	1.00024E-004	0.00000E+000	6.07925E-005	5.99601E-002	6.08058E-001	3.58100E+000	9	...........
	16	0.226667	6.20850E-001	1.00491E-004	0.00000E+000	6.23896E-005	5.99601E-002	6.21049E-001	3.58100E+000	9	...........
	17	0.24	6.33514E-001	1.00325E-004	0.00000E+000	6.35573E-005	5.99601E-002	6.33716E-001	3.58100E+000	9	...........
	18	0.253333	6.45906E-001	1.01850E-004	0.00000E+000	6.57858E-005	5.99601E-002	6.46126E-001	3.58100E+000	9	...........
	19	0.266667	6.57983E-001	1.00680E-004	0.00000E+000	6.62459E-005	5.99601E-002	6.58208E-001	3.58100E+000	9	...........
	20	0.28	6.69795E-001	9.98884E-005	0.00000E+000	6.69048E-005	5.99601E-002	6.70025E-001	3.58100E+000	9	...........
	21	0.293333	6.81296E-001	1.00469E-004	0.00000E+000	6.84489E-005	5.99601E-002	6.81533E-001	3.58100E+000	9	...........
	22	0.306667	6.92500E-001	1.02419E-004	0.00000E+000	7.09253E-005	5.99601E-002	6.92752E-001	3.58100E+000	9	...........
	23	0.32	7.03455E-001	1.00989E-004	0.00000E+000	7.10410E-005	5.99601E-002	7.03696E-001	3.58100E+000	9	...........
	24	0.333333	7.14115E-001	1.01727E-004	0.00000E+000	7.26451E-005	5.99601E-002	7.14355E-001	3.58100E+000	9	...........
	25	0.346667	7.24533E-001	1.01654E-004	0.00000E+000	7.36520E-005	5.99601E-002	7.24773E-001	3.58100E+000	9	...........
	26	0.36	7.34644E-001	1.01119E-004	0.00000E+000	7.42864E-005	5.99601E-002	7.34883E-001	3.58100E+000	9	...........
	27	0.373333	7.44525E-001	1.00303E-004	0.00000E+000	7.46782E-005	5.99601E-002	7.44778E-001	3.58100E+000	9	...........
	28	0.386667	7.54130E-001	1.00680E-004	0.00000E+000	7.59260E-005	5.99601E-002	7.54404E-001	3.58100E+000	9	...........
	29	0.4	7.63507E-001	1.00849E-004	0.00000E+000	7.69990E-005	5.99601E-002	7.63750E-001	3.58100E+000	9	...........
	30	0.413333	7.72631E-001	1.00522E-004	0.00000E+000	7.76663E-005	5.99601E-002	7.72889E-001	3.58100E+000	9	...........
	31	0.426667	7.81494E-001	1.00799E-004	0.00000E+000	7.87739E-005	5.99601E-002	7.81779E-001	3.58100E+000	9	...........
	32	0.44	7.90117E-001	1.00681E-004	0.00000E+000	7.95500E-005	5.99601E-002	7.90402E-001	3.58100E+000	9	...........
	33	0.453333	7.98528E-001	1.00154E-004	0.00000E+000	7.99759E-005	5.99601E-002	7.98791E-001	3.58100E+000	9	...........
	34	0.466667	8.06676E-001	1.00428E-004	0.00000E+000	8.10129E-005	5.99601E-002	8.06950E-001	3.58100E+000	9	...........
	35	0.48	8.14597E-001	1.01459E-004	0.00000E+000	8.26479E-005	5.99601E-002	8.14868E-001	3.58100E+000	9	...........
	36	0.493333	8.22309E-001	9.97311E-005	0.00000E+000	8.20098E-005	5.99601E-002	8.22605E-001	3.58100E+000	9	...........
	37	0.506667	8.29772E-001	1.01137E-004	0.00000E+000	8.39203E-005	5.99601E-002	8.30053E-001	3.58100E+000	9	...........
	38	0.52	8.37022E-001	1.01622E-004	0.00000E+000	8.50600E-005	5.99601E-002	8.37332E-001	3.58100E+000	9	...........
	39	0.533333	8.44078E-001	1.00962E-004	0.00000E+000	8.52195E-005	5.99601E-002	8.44376E-001	3.58100E+000	9	...........
	40	0.546667	8.50925E-001	9.98624E-005	0.00000E+000	8.49754E-005	5.99601E-002	8.51212E-001	3.58100E+000	9	...........
	41	0.56	8.57522E-001	1.00946E-004	0.00000E+000	8.65634E-005	5.99601E-002	8.57848E-001	3.58100E+000	9	...........
	42	0.573333	8.63947E-001	1.02069E-004	0.00000E+000	8.81823E-005	5.99601E-002	8.64257E-001	3.58100E+000	9	...........
	43	0.586667	8.70193E-001	1.01926E-004	0.00000E+000	8.86956E-005	5.99601E-002	8.70517E-001	3.58100E+000	9	...........
	44	0.6	8.76231E-001	1.00974E-004	0.00000E+000	8.84767E-005	5.99601E-002	8.76552E-001	3.58100E+000	9	...........
	45	0.613333	8.82126E-001	1.01086E-004	0.00000E+000	8.91702E-005	5.99601E-002	8.82448E-001	3.58100E+000	9	...........
	46	0.626667	8.87831E-001	1.00477E-004	0.00000E+000	8.92067E-005	5.99601E-002	8.88157E-001	3.58100E+000	9	...........
	47	0.64	8.93364E-001	1.02006E-004	0.00000E+000	9.11281E-005	5.99601E-002	8.93707E-001	3.58100E+000	9	...........
	48	0.653333	8.98776E-001	9.94998E-005	0.00000E+000	8.94281E-005	5.99601E-002	8.99119E-001	3.58100E+000	9	...........
	49	0.666667	9.04042E-001	1.00948E-004	0.00000E+000	9.12613E-005	5.99601E-002	9.04380E-001	3.58100E+000	9	...........
	50	0.68	9.09182E-001	9.99989E-005	0.00000E+000	9.09172E-005	5.99601E-002	9.09524E-001	3.58100E+000	9	...........
	51	0.693333	9.14207E-001	9.99332E-005	0.00000E+000	9.13597E-005	5.99601E-002	9.14524E-001	3.58100E+000	9	...........
	52	0.706667	9.19092E-001	1.01450E-004	0.00000E+000	9.32421E-005	5.99601E-002	9.19428E-001	3.58100E+000	9	...........
	53	0.72	9.23944E-001	1.00207E-004	0.00000E+000	9.25859E-005	5.99601E-002	9.24259E-001	3.58100E+000	9	...........
	54	0.733333	9.28647E-001	1.02216E-004	0.00000E+000	9.49226E-005	5.99601E-002	9.28944E-001	3.58100E+000	9	...........
	55	0.746667	9.33234E-001	1.00220E-004	0.00000E+000	9.35285E-005	5.99601E-002	9.33563E-001	3.58100E+000	9	...........
	56	0.76	9.37744E-001	1.00947E-004	0.00000E+000	9.46625E-005	5.99601E-002	9.38097E-001	3.58100E+000	9	...........
	57	0.773333	9.42182E-001	1.01380E-004	0.00000E+000	9.55188E-005	5.99601E-002	9.42504E-001	3.58100E+000	9	...........
	58	0.786667	9.46573E-001	1.01964E-004	0.00000E+000	9.65162E-005	5.99601E-002	9.46900E-001	3.58100E+000	9	...........
	59	0.8	9.50865E-001	1.01115E-004	0.00000E+000	9.61465E-005	5.99601E-002	9.51195E-001	3.58100E+000	9	...........
	60	0.813333	9.55097E-001	1.00648E-004	0.00000E+000	9.61286E-005	5.99601E-002	9.55419E-001	3.58100E+000	9	...........
	61	0.826667	9.59251E-001	1.01808E-004	0.00000E+000	9.76590E-005	5.99601E-002	9.59584E-001	3.58100E+000	9	...........
	62	0.84	9.63349E-001	1.00780E-004	0.00000E+000	9.70866E-005	5.99601E-002	9.63676E-001	3.58100E+000	9	...........
	63	0.853333	9.67353E-001	1.00845E-004	0.00000E+000	9.75526E-005	5.99601E-002	9.67703E-001	3.58100E+000	9	...........
	64	0.866667	9.71325E-001	1.01296E-004	0.00000E+000	9.83914E-005	5.99601E-002	9.71666E-001	3.58100E+000	9	...........
	65	0.88	9.75261E-001	1.00568E-004	0.00000E+000	9.80798E-005	5.99601E-002	9.75581E-001	3.58100E+000	9	...........
	66	0.893333	9.79086E-001	1.01504E-004	0.00000E+000	9.93815E-005	5.99601E-002	9.79416E-001	3.58100E+000	9	...........
	67	0.906667	9.82823E-001	1.01062E-004	0.00000E+000	9.93257E-005	5.99601E-002	9.83151E-001	3.58100E+000	9	...........
	68	0.92	9.86516E-001	1.01042E-004	0.00000E+000	9.96794E-005	5.99601E-002	9.86869E-001	3.58100E+000	9	...........
	69	0.933333	9.90140E-001	1.01115E-004	0.00000E+000	1.00118E-004	5.99601E-002	9.90465E-001	3.58100E+000	9	...........
	70	0.946667	9.93651E-001	1.01256E-004	0.00000E+000	1.00614E-004	5.99601E-002	9.94016E-001	3.58100E+000	9	...........
	71	0.96	9.97146E-001	1.01162E-004	0.00000E+000	1.00873E-004	5.99601E-002	9.97511E-001	3.58100E+000	9	...........
	72	0.96667	9.99728E-001	1.02896E-004	0.00000E+000	1.02868E-004	5.99601E-002	1.00007E+000	3.58100E+000	9	...........
STARTTIMEOFFSET	QUANT	1193.238	Start Time Offset (s)
