EXPLAIN
TAG	PWR800_CHARGE
TITLE	LABEL	PWR Cyclic Charge Discharge (Cell) - Charge Step	Test &Identifier
DATE	LABEL	12-7-2017	Date
TIME	LABEL	16:26:08	Time
NOTES	NOTES	2	&Notes...
	supercap test cell
	6M KOH
PSTAT	PSTAT	IFC5000-01520	Potentiostat
CAPACITY	QUANT	1.00000E-003	Capacity (A-hr)
CELLTYPE	SELECTOR	1	&Cell Type
WORKINGCONNECTION	SELECTOR	0	&Working Lead
MAXCHARGETIME	VARIABLEANDUNITS	1.00000E+002	s	1.00000E+002	second(s)	Max &Charge Time
CHARGECURRENT	QUANT	1.00000E-004	&Charge Current (A) 
VOLTAGEFINISH	TWOPARAM	F	1.00000E-003	3.60000E+003	&Voltage Finish	 I (A) < 	Max Time(s)
SAMPLETIME	QUANT	1.00000E-002	Sa&mple Period (s)
CHARGESTOPAT1	MULTIPARAM	4	1.00000E+000	Charge Stop At &1	Voltage > Limit	V
CHARGESTOPAT2	MULTIPARAM	0	0.00000E+000	Charge Stop At &2	None	N/A
AESBHCSELECTOR	TOGGLE	F	Save Both Half Cells
IRCOMP	TOGGLE	F	IR &Measure
EOC	QUANT	0	Open Circuit (V)
SEQUENCER	TOGGLE	TRUE	Run as Sequence
PSTATMODEL	IQUANT	53	Pstat Model
PSTATSECTION	LABEL	IFC5000-01520	Pstat Section
PSTATSERIALNO	LABEL	01520	Pstat Serial Number
CTRLMODE	IQUANT	0	Control Mode
ELECTROMETER	IQUANT	1	RE=0 or CS=1
IESTAB	IQUANT	0	I/E Stability
CASPEED	IQUANT	4	Control Amp Speed
CONVENTION	IQUANT	1	Current Convention
ICHRANGE	IQUANT	2	Ich Range
ICHRANGEMODE	TOGGLE	T	Ich Auto Range
ICHOFFSETENABLE	TOGGLE	F	Ich Offset Enable
ICHOFFSET	QUANT	0	Ich Offset (V)
ICHFILTER	IQUANT	1	Ich Filter
VCHRANGE	IQUANT	2	Vch Range
VCHRANGEMODE	TOGGLE	T	Vch Auto Range
VCHOFFSETENABLE	TOGGLE	F	Vch Offset Enable
VCHOFFSET	QUANT	0	Vch Offset (V)
VCHFILTER	IQUANT	1	Vch Filter
IERANGELOWERLIMIT	IQUANT	9	I/E Range Lower Limit
IERANGEMODE	TOGGLE	F	I/E AutoRange
IERANGE	IQUANT	9	I/E Range
ACHSELECT	IQUANT	1	Ach Select
ACHRANGE	IQUANT	2	Ach Range
ACHOFFSETENABLE	TOGGLE	F	Ach Offset Enable
ACHOFFSET	QUANT	0	Ach Offset (V)
ACHFILTER	IQUANT	1	Ach Filter
CABLEID	IQUANT	14	Cable ID
DCCALDATE	LABEL	5-7-2017	DC Calibration Date
ACCALDATE	LABEL	12/3/2015	AC Calibration Date
FRAMEWORKVERSION	QUANT	7.01	Framework Version
INSTRUMENTVERSION	LABEL	4.00	Instrument Version
CURVE	TABLE	77
	Pt	T	Vf	Im	Vu	Pwr	Sig	Ach	Temp	IERange	Over
	#	s	V	A	V	W	V	V	deg C	#	bits
	0	0.013333	2.59602E-001	1.01307E-004	0.00000E+000	2.62997E-005	5.99601E-002	2.59685E-001	3.57810E+000	9	...........
	1	0.026667	2.82419E-001	1.02408E-004	0.00000E+000	2.89219E-005	5.99601E-002	2.82482E-001	3.57810E+000	9	...........
	2	0.04	3.03847E-001	1.02495E-004	0.00000E+000	3.11429E-005	5.99601E-002	3.03917E-001	3.57810E+000	9	...........
	3	0.053333	3.24272E-001	9.99770E-005	0.00000E+000	3.24197E-005	5.99601E-002	3.24346E-001	3.57810E+000	9	...........
	4	0.066667	3.43897E-001	1.01919E-004	0.00000E+000	3.50497E-005	5.99601E-002	3.43973E-001	3.57810E+000	9	...........
	5	0.08	3.62860E-001	1.01570E-004	0.00000E+000	3.68557E-005	5.99601E-002	3.62942E-001	3.57810E+000	9	...........
	6	0.093333	3.81256E-001	1.00147E-004	0.00000E+000	3.81816E-005	5.99601E-002	3.81334E-001	3.57810E+000	9	...........
	7	0.106667	3.99137E-001	1.01636E-004	0.00000E+000	4.05666E-005	5.99601E-002	3.99227E-001	3.57810E+000	9	...........
	8	0.12	4.16553E-001	1.00685E-004	0.00000E+000	4.19408E-005	5.99601E-002	4.16647E-001	3.57810E+000	9	...........
	9	0.133333	4.33548E-001	1.01255E-004	0.00000E+000	4.38991E-005	5.99601E-002	4.33648E-001	3.57810E+000	9	...........
	10	0.146667	4.50156E-001	1.00916E-004	0.00000E+000	4.54278E-005	5.99601E-002	4.50258E-001	3.57810E+000	9	...........
	11	0.16	4.66382E-001	1.01700E-004	0.00000E+000	4.74312E-005	5.99601E-002	4.66483E-001	3.57810E+000	9	...........
	12	0.173333	4.82258E-001	1.00714E-004	0.00000E+000	4.85700E-005	5.99601E-002	4.82368E-001	3.57810E+000	9	...........
	13	0.186667	4.97795E-001	1.01783E-004	0.00000E+000	5.06669E-005	5.99601E-002	4.97908E-001	3.57810E+000	9	...........
	14	0.2	5.13005E-001	1.01087E-004	0.00000E+000	5.18579E-005	5.99601E-002	5.13117E-001	3.57810E+000	9	...........
	15	0.213333	5.27892E-001	1.02233E-004	0.00000E+000	5.39678E-005	5.99601E-002	5.27983E-001	3.57810E+000	9	...........
	16	0.226667	5.42172E-001	1.01265E-004	0.00000E+000	5.49029E-005	5.99601E-002	5.42411E-001	3.57810E+000	9	...........
	17	0.24	5.56466E-001	1.01285E-004	0.00000E+000	5.63614E-005	5.99601E-002	5.56720E-001	3.57810E+000	9	...........
	18	0.253333	5.70481E-001	9.99197E-005	0.00000E+000	5.70023E-005	5.99601E-002	5.70707E-001	3.57810E+000	9	...........
	19	0.266667	5.84166E-001	9.98884E-005	0.00000E+000	5.83514E-005	5.99601E-002	5.84386E-001	3.57810E+000	9	...........
	20	0.28	5.97591E-001	1.01032E-004	0.00000E+000	6.03761E-005	5.99601E-002	5.97826E-001	3.57810E+000	9	...........
	21	0.293333	6.10715E-001	1.01381E-004	0.00000E+000	6.19151E-005	5.99601E-002	6.10994E-001	3.57810E+000	9	...........
	22	0.306667	6.23626E-001	9.98634E-005	0.00000E+000	6.22774E-005	5.99601E-002	6.23858E-001	3.57810E+000	9	...........
	23	0.32	6.36212E-001	1.01209E-004	0.00000E+000	6.43900E-005	5.99601E-002	6.36449E-001	3.57810E+000	9	...........
	24	0.333333	6.48569E-001	1.01472E-004	0.00000E+000	6.58116E-005	5.99601E-002	6.48787E-001	3.57810E+000	9	...........
	25	0.346667	6.60632E-001	1.01156E-004	0.00000E+000	6.68271E-005	5.99601E-002	6.60880E-001	3.57810E+000	9	...........
	26	0.36	6.72451E-001	1.00759E-004	0.00000E+000	6.77558E-005	5.99601E-002	6.72685E-001	3.57810E+000	9	...........
	27	0.373333	6.83979E-001	1.00663E-004	0.00000E+000	6.88511E-005	5.99601E-002	6.84235E-001	3.57810E+000	9	...........
	28	0.386667	6.95282E-001	1.01372E-004	0.00000E+000	7.04822E-005	5.99601E-002	6.95530E-001	3.57810E+000	9	...........
	29	0.4	7.06314E-001	1.00790E-004	0.00000E+000	7.11891E-005	5.99601E-002	7.06558E-001	3.57810E+000	9	...........
	30	0.413333	7.17078E-001	1.00247E-004	0.00000E+000	7.18848E-005	5.99601E-002	7.17339E-001	3.57810E+000	9	...........
	31	0.426667	7.27600E-001	1.00756E-004	0.00000E+000	7.33103E-005	5.99601E-002	7.27849E-001	3.57810E+000	9	...........
	32	0.44	7.37869E-001	1.00393E-004	0.00000E+000	7.40767E-005	5.99601E-002	7.38118E-001	3.57810E+000	9	...........
	33	0.453333	7.47903E-001	1.01038E-004	0.00000E+000	7.55663E-005	5.99601E-002	7.48150E-001	3.57810E+000	9	...........
	34	0.466667	7.57670E-001	1.00616E-004	0.00000E+000	7.62335E-005	5.99601E-002	7.57925E-001	3.57810E+000	9	...........
	35	0.48	7.67175E-001	1.00326E-004	0.00000E+000	7.69676E-005	5.99601E-002	7.67449E-001	3.57810E+000	9	...........
	36	0.493333	7.76455E-001	1.00990E-004	0.00000E+000	7.84139E-005	5.99601E-002	7.76734E-001	3.57810E+000	9	...........
	37	0.506667	7.85483E-001	1.00747E-004	0.00000E+000	7.91350E-005	5.99601E-002	7.85766E-001	3.57810E+000	9	...........
	38	0.52	7.94305E-001	1.00408E-004	0.00000E+000	7.97548E-005	5.99601E-002	7.94576E-001	3.57810E+000	9	...........
	39	0.533333	8.02846E-001	1.00209E-004	0.00000E+000	8.04526E-005	5.99601E-002	8.03143E-001	3.57810E+000	9	...........
	40	0.546667	8.11172E-001	1.01122E-004	0.00000E+000	8.20274E-005	5.99601E-002	8.11478E-001	3.57810E+000	9	...........
	41	0.56	8.19270E-001	1.01385E-004	0.00000E+000	8.30614E-005	5.99601E-002	8.19571E-001	3.57810E+000	9	...........
	42	0.573333	8.27123E-001	1.00373E-004	0.00000E+000	8.30208E-005	5.99601E-002	8.27445E-001	3.57810E+000	9	...........
	43	0.586667	8.34762E-001	1.00822E-004	0.00000E+000	8.41624E-005	5.99601E-002	8.35067E-001	3.57810E+000	9	...........
	44	0.6	8.42160E-001	1.00995E-004	0.00000E+000	8.50539E-005	5.99601E-002	8.42492E-001	3.57810E+000	9	...........
	45	0.613333	8.49377E-001	1.00525E-004	0.00000E+000	8.53836E-005	5.99601E-002	8.49697E-001	3.57862E+000	9	...........
	46	0.626667	8.56324E-001	1.00490E-004	0.00000E+000	8.60517E-005	5.99601E-002	8.56652E-001	3.57880E+000	9	...........
	47	0.64	8.63070E-001	1.01234E-004	0.00000E+000	8.73717E-005	5.99601E-002	8.63401E-001	3.57880E+000	9	...........
	48	0.653333	8.69652E-001	1.01337E-004	0.00000E+000	8.81276E-005	5.99601E-002	8.69969E-001	3.57880E+000	9	...........
	49	0.666667	8.76006E-001	1.01475E-004	0.00000E+000	8.88930E-005	5.99601E-002	8.76313E-001	3.57880E+000	9	...........
	50	0.68	8.82155E-001	1.01120E-004	0.00000E+000	8.92035E-005	5.99601E-002	8.82466E-001	3.57880E+000	9	...........
	51	0.693333	8.88113E-001	1.00901E-004	0.00000E+000	8.96117E-005	5.99601E-002	8.88402E-001	3.57880E+000	9	...........
	52	0.706667	8.93892E-001	1.02204E-004	0.00000E+000	9.13589E-005	5.99601E-002	8.94175E-001	3.57880E+000	9	...........
	53	0.72	8.99538E-001	1.01168E-004	0.00000E+000	9.10043E-005	5.99601E-002	8.99823E-001	3.57880E+000	9	...........
	54	0.733333	9.04992E-001	1.02523E-004	0.00000E+000	9.27829E-005	5.99601E-002	9.05302E-001	3.57880E+000	9	...........
	55	0.746667	9.10349E-001	1.01222E-004	0.00000E+000	9.21474E-005	5.99601E-002	9.10652E-001	3.57880E+000	9	...........
	56	0.76	9.15536E-001	1.00053E-004	0.00000E+000	9.16022E-005	5.99601E-002	9.15845E-001	3.57880E+000	9	...........
	57	0.773333	9.20665E-001	1.01743E-004	0.00000E+000	9.36713E-005	5.99601E-002	9.20945E-001	3.57880E+000	9	...........
	58	0.786667	9.25619E-001	1.01087E-004	0.00000E+000	9.35676E-005	5.99601E-002	9.25897E-001	3.57880E+000	9	...........
	59	0.8	9.30450E-001	1.01886E-004	0.00000E+000	9.47996E-005	5.99601E-002	9.30743E-001	3.57880E+000	9	...........
	60	0.813333	9.35187E-001	1.01803E-004	0.00000E+000	9.52053E-005	5.99601E-002	9.35509E-001	3.57880E+000	9	...........
	61	0.826667	9.39808E-001	1.00499E-004	0.00000E+000	9.44497E-005	5.99601E-002	9.40139E-001	3.57880E+000	9	...........
	62	0.84	9.44354E-001	1.01175E-004	0.00000E+000	9.55452E-005	5.99601E-002	9.44695E-001	3.57880E+000	9	...........
	63	0.853333	9.48862E-001	1.01717E-004	0.00000E+000	9.65154E-005	5.99601E-002	9.49184E-001	3.57880E+000	9	...........
	64	0.866667	9.53235E-001	1.01092E-004	0.00000E+000	9.63643E-005	5.99601E-002	9.53551E-001	3.57880E+000	9	...........
	65	0.88	9.57530E-001	1.00678E-004	0.00000E+000	9.64024E-005	5.99601E-002	9.57865E-001	3.57880E+000	9	...........
	66	0.893333	9.61732E-001	1.01122E-004	0.00000E+000	9.72523E-005	5.99601E-002	9.62109E-001	3.57880E+000	9	...........
	67	0.906667	9.65891E-001	1.00982E-004	0.00000E+000	9.75380E-005	5.99601E-002	9.66245E-001	3.57880E+000	9	...........
	68	0.92	9.69925E-001	1.00882E-004	0.00000E+000	9.78484E-005	5.99601E-002	9.70309E-001	3.57880E+000	9	...........
	69	0.933333	9.74001E-001	1.00010E-004	0.00000E+000	9.74102E-005	5.99601E-002	9.74324E-001	3.57880E+000	9	...........
	70	0.946667	9.77900E-001	1.01221E-004	0.00000E+000	9.89841E-005	5.99601E-002	9.78238E-001	3.57880E+000	9	...........
	71	0.96	9.81739E-001	1.00737E-004	0.00000E+000	9.88970E-005	5.99601E-002	9.82050E-001	3.57880E+000	9	...........
	72	0.97333	9.85476E-001	1.00171E-004	0.00000E+000	9.87159E-005	5.99601E-002	9.85820E-001	3.57880E+000	9	...........
	73	0.98667	9.89172E-001	1.01557E-004	0.00000E+000	1.00457E-004	5.99601E-002	9.89500E-001	3.57880E+000	9	...........
	74	1	9.92730E-001	1.01211E-004	0.00000E+000	1.00475E-004	5.99601E-002	9.93082E-001	3.57880E+000	9	...........
	75	1.01333	9.96226E-001	9.97613E-005	0.00000E+000	9.93848E-005	5.99601E-002	9.96596E-001	3.57880E+000	9	...........
	76	1.02333	9.99247E-001	1.00126E-004	0.00000E+000	1.00050E-004	5.99601E-002	9.99599E-001	3.57880E+000	9	...........
STARTTIMEOFFSET	QUANT	687.2714	Start Time Offset (s)
