EXPLAIN
TAG	PWR800_CHARGE
TITLE	LABEL	PWR Cyclic Charge Discharge (Cell) - Charge Step	Test &Identifier
DATE	LABEL	12-7-2017	Date
TIME	LABEL	16:21:11	Time
NOTES	NOTES	2	&Notes...
	supercap test cell
	6M KOH
PSTAT	PSTAT	IFC5000-01520	Potentiostat
CAPACITY	QUANT	1.00000E-003	Capacity (A-hr)
CELLTYPE	SELECTOR	1	&Cell Type
WORKINGCONNECTION	SELECTOR	0	&Working Lead
MAXCHARGETIME	VARIABLEANDUNITS	1.00000E+002	s	1.00000E+002	second(s)	Max &Charge Time
CHARGECURRENT	QUANT	1.00000E-004	&Charge Current (A) 
VOLTAGEFINISH	TWOPARAM	F	1.00000E-003	3.60000E+003	&Voltage Finish	 I (A) < 	Max Time(s)
SAMPLETIME	QUANT	1.00000E-002	Sa&mple Period (s)
CHARGESTOPAT1	MULTIPARAM	4	1.00000E+000	Charge Stop At &1	Voltage > Limit	V
CHARGESTOPAT2	MULTIPARAM	0	0.00000E+000	Charge Stop At &2	None	N/A
AESBHCSELECTOR	TOGGLE	F	Save Both Half Cells
IRCOMP	TOGGLE	F	IR &Measure
EOC	QUANT	0	Open Circuit (V)
SEQUENCER	TOGGLE	TRUE	Run as Sequence
PSTATMODEL	IQUANT	53	Pstat Model
PSTATSECTION	LABEL	IFC5000-01520	Pstat Section
PSTATSERIALNO	LABEL	01520	Pstat Serial Number
CTRLMODE	IQUANT	0	Control Mode
ELECTROMETER	IQUANT	1	RE=0 or CS=1
IESTAB	IQUANT	0	I/E Stability
CASPEED	IQUANT	4	Control Amp Speed
CONVENTION	IQUANT	1	Current Convention
ICHRANGE	IQUANT	2	Ich Range
ICHRANGEMODE	TOGGLE	T	Ich Auto Range
ICHOFFSETENABLE	TOGGLE	F	Ich Offset Enable
ICHOFFSET	QUANT	0	Ich Offset (V)
ICHFILTER	IQUANT	1	Ich Filter
VCHRANGE	IQUANT	2	Vch Range
VCHRANGEMODE	TOGGLE	T	Vch Auto Range
VCHOFFSETENABLE	TOGGLE	F	Vch Offset Enable
VCHOFFSET	QUANT	0	Vch Offset (V)
VCHFILTER	IQUANT	1	Vch Filter
IERANGELOWERLIMIT	IQUANT	9	I/E Range Lower Limit
IERANGEMODE	TOGGLE	F	I/E AutoRange
IERANGE	IQUANT	9	I/E Range
ACHSELECT	IQUANT	1	Ach Select
ACHRANGE	IQUANT	2	Ach Range
ACHOFFSETENABLE	TOGGLE	F	Ach Offset Enable
ACHOFFSET	QUANT	0	Ach Offset (V)
ACHFILTER	IQUANT	1	Ach Filter
CABLEID	IQUANT	14	Cable ID
DCCALDATE	LABEL	5-7-2017	DC Calibration Date
ACCALDATE	LABEL	12/3/2015	AC Calibration Date
FRAMEWORKVERSION	QUANT	7.01	Framework Version
INSTRUMENTVERSION	LABEL	4.00	Instrument Version
CURVE	TABLE	78
	Pt	T	Vf	Im	Vu	Pwr	Sig	Ach	Temp	IERange	Over
	#	s	V	A	V	W	V	V	deg C	#	bits
	0	0.013333	2.62073E-001	1.00691E-004	0.00000E+000	2.63884E-005	5.99601E-002	2.62156E-001	3.57690E+000	9	...........
	1	0.026667	2.84789E-001	1.01729E-004	0.00000E+000	2.89714E-005	5.99601E-002	2.84843E-001	3.57690E+000	9	...........
	2	0.04	3.06023E-001	1.01286E-004	0.00000E+000	3.09957E-005	5.99601E-002	3.06090E-001	3.57690E+000	9	...........
	3	0.053333	3.26198E-001	1.00335E-004	0.00000E+000	3.27292E-005	5.99601E-002	3.26267E-001	3.57690E+000	9	...........
	4	0.066667	3.45517E-001	1.00376E-004	0.00000E+000	3.46816E-005	5.99601E-002	3.45588E-001	3.57690E+000	9	...........
	5	0.08	3.64121E-001	1.01743E-004	0.00000E+000	3.70468E-005	5.99601E-002	3.64195E-001	3.57690E+000	9	...........
	6	0.093333	3.82122E-001	1.01289E-004	0.00000E+000	3.87047E-005	5.99601E-002	3.82201E-001	3.57690E+000	9	...........
	7	0.106667	3.99595E-001	1.00518E-004	0.00000E+000	4.01663E-005	5.99601E-002	3.99672E-001	3.57690E+000	9	...........
	8	0.12	4.16575E-001	1.00651E-004	0.00000E+000	4.19287E-005	5.99601E-002	4.16667E-001	3.57690E+000	9	...........
	9	0.133333	4.33131E-001	1.00379E-004	0.00000E+000	4.34774E-005	5.99601E-002	4.33227E-001	3.57690E+000	9	...........
	10	0.146667	4.49283E-001	1.02008E-004	0.00000E+000	4.58303E-005	5.99601E-002	4.49382E-001	3.57690E+000	9	...........
	11	0.16	4.65063E-001	9.99301E-005	0.00000E+000	4.64738E-005	5.99601E-002	4.65159E-001	3.57690E+000	9	...........
	12	0.173333	4.80493E-001	1.01107E-004	0.00000E+000	4.85814E-005	5.99601E-002	4.80593E-001	3.57690E+000	9	...........
	13	0.186667	4.95584E-001	1.01842E-004	0.00000E+000	5.04713E-005	5.99601E-002	4.95687E-001	3.57690E+000	9	...........
	14	0.2	5.10359E-001	1.00955E-004	0.00000E+000	5.15235E-005	5.99601E-002	5.10473E-001	3.57690E+000	9	...........
	15	0.213333	5.24843E-001	1.00834E-004	0.00000E+000	5.29223E-005	5.99601E-002	5.24960E-001	3.57740E+000	9	...........
	16	0.226667	5.38799E-001	1.00876E-004	0.00000E+000	5.43520E-005	5.99601E-002	5.38992E-001	3.57740E+000	9	...........
	17	0.24	5.52648E-001	1.00975E-004	0.00000E+000	5.58037E-005	5.99601E-002	5.52869E-001	3.57740E+000	9	...........
	18	0.253333	5.66284E-001	9.97540E-005	0.00000E+000	5.64892E-005	5.99601E-002	5.66516E-001	3.57740E+000	9	...........
	19	0.266667	5.79633E-001	1.01421E-004	0.00000E+000	5.87870E-005	5.99601E-002	5.79902E-001	3.57740E+000	9	...........
	20	0.28	5.92774E-001	1.01047E-004	0.00000E+000	5.98981E-005	5.99601E-002	5.93041E-001	3.57740E+000	9	...........
	21	0.293333	6.05613E-001	1.01673E-004	0.00000E+000	6.15746E-005	5.99601E-002	6.05902E-001	3.57740E+000	9	...........
	22	0.306667	6.18277E-001	1.01984E-004	0.00000E+000	6.30542E-005	5.99601E-002	6.18529E-001	3.57740E+000	9	...........
	23	0.32	6.30657E-001	1.01390E-004	0.00000E+000	6.39422E-005	5.99601E-002	6.30896E-001	3.57740E+000	9	...........
	24	0.333333	6.42780E-001	1.01419E-004	0.00000E+000	6.51901E-005	5.99601E-002	6.43066E-001	3.57740E+000	9	...........
	25	0.346667	6.54701E-001	1.01001E-004	0.00000E+000	6.61256E-005	5.99601E-002	6.54966E-001	3.57740E+000	9	...........
	26	0.36	6.66369E-001	1.00955E-004	0.00000E+000	6.72735E-005	5.99601E-002	6.66644E-001	3.57740E+000	9	...........
	27	0.373333	6.77794E-001	1.00840E-004	0.00000E+000	6.83486E-005	5.99601E-002	6.78054E-001	3.57740E+000	9	...........
	28	0.386667	6.88975E-001	1.01199E-004	0.00000E+000	6.97237E-005	5.99601E-002	6.89240E-001	3.57740E+000	9	...........
	29	0.4	6.99934E-001	1.01434E-004	0.00000E+000	7.09968E-005	5.99601E-002	7.00202E-001	3.57740E+000	9	...........
	30	0.413333	7.10644E-001	1.00202E-004	0.00000E+000	7.12080E-005	5.99601E-002	7.10899E-001	3.57740E+000	9	...........
	31	0.426667	7.21162E-001	1.00996E-004	0.00000E+000	7.28344E-005	5.99601E-002	7.21421E-001	3.57740E+000	9	...........
	32	0.44	7.31400E-001	1.00792E-004	0.00000E+000	7.37191E-005	5.99601E-002	7.31694E-001	3.57740E+000	9	...........
	33	0.453333	7.41478E-001	1.02712E-004	0.00000E+000	7.61587E-005	5.99601E-002	7.41741E-001	3.57740E+000	9	...........
	34	0.466667	7.51274E-001	1.00420E-004	0.00000E+000	7.54428E-005	5.99601E-002	7.51546E-001	3.57740E+000	9	...........
	35	0.48	7.60856E-001	1.01414E-004	0.00000E+000	7.71613E-005	5.99601E-002	7.61131E-001	3.57740E+000	9	...........
	36	0.493333	7.70197E-001	1.00559E-004	0.00000E+000	7.74506E-005	5.99601E-002	7.70494E-001	3.57740E+000	9	...........
	37	0.506667	7.79329E-001	1.01079E-004	0.00000E+000	7.87741E-005	5.99601E-002	7.79617E-001	3.57740E+000	9	...........
	38	0.52	7.88225E-001	1.01290E-004	0.00000E+000	7.98392E-005	5.99601E-002	7.88510E-001	3.57740E+000	9	...........
	39	0.533333	7.96938E-001	1.02031E-004	0.00000E+000	8.13121E-005	5.99601E-002	7.97227E-001	3.57740E+000	9	...........
	40	0.546667	8.05382E-001	1.01181E-004	0.00000E+000	8.14897E-005	5.99601E-002	8.05656E-001	3.57740E+000	9	...........
	41	0.56	8.13591E-001	1.00806E-004	0.00000E+000	8.20151E-005	5.99601E-002	8.13882E-001	3.57740E+000	9	...........
	42	0.573333	8.21638E-001	1.00286E-004	0.00000E+000	8.23991E-005	5.99601E-002	8.21927E-001	3.57740E+000	9	...........
	43	0.586667	8.29409E-001	1.00724E-004	0.00000E+000	8.35414E-005	5.99601E-002	8.29726E-001	3.57740E+000	9	...........
	44	0.6	8.36997E-001	1.00807E-004	0.00000E+000	8.43755E-005	5.99601E-002	8.37312E-001	3.57740E+000	9	...........
	45	0.613333	8.44397E-001	1.00555E-004	0.00000E+000	8.49086E-005	5.99601E-002	8.44724E-001	3.57740E+000	9	...........
	46	0.626667	8.51564E-001	1.00650E-004	0.00000E+000	8.57099E-005	5.99601E-002	8.51889E-001	3.57740E+000	9	...........
	47	0.64	8.58520E-001	1.02216E-004	0.00000E+000	8.77545E-005	5.99601E-002	8.58848E-001	3.57740E+000	9	...........
	48	0.653333	8.65278E-001	1.00719E-004	0.00000E+000	8.71497E-005	5.99601E-002	8.65604E-001	3.57740E+000	9	...........
	49	0.666667	8.71866E-001	1.01171E-004	0.00000E+000	8.82076E-005	5.99601E-002	8.72191E-001	3.57740E+000	9	...........
	50	0.68	8.78231E-001	1.01222E-004	0.00000E+000	8.88963E-005	5.99601E-002	8.78522E-001	3.57740E+000	9	...........
	51	0.693333	8.84402E-001	1.00557E-004	0.00000E+000	8.89331E-005	5.99601E-002	8.84712E-001	3.57740E+000	9	...........
	52	0.706667	8.90382E-001	1.00784E-004	0.00000E+000	8.97367E-005	5.99601E-002	8.90688E-001	3.57740E+000	9	...........
	53	0.72	8.96194E-001	1.00879E-004	0.00000E+000	9.04074E-005	5.99601E-002	8.96504E-001	3.57740E+000	9	...........
	54	0.733333	9.01815E-001	1.01537E-004	0.00000E+000	9.15673E-005	5.99601E-002	9.02130E-001	3.57740E+000	9	...........
	55	0.746667	9.07289E-001	1.01571E-004	0.00000E+000	9.21544E-005	5.99601E-002	9.07599E-001	3.57740E+000	9	...........
	56	0.76	9.12615E-001	1.01163E-004	0.00000E+000	9.23226E-005	5.99601E-002	9.12915E-001	3.57740E+000	9	...........
	57	0.773333	9.17781E-001	1.00707E-004	0.00000E+000	9.24273E-005	5.99601E-002	9.18118E-001	3.57740E+000	9	...........
	58	0.786667	9.22870E-001	9.97405E-005	0.00000E+000	9.20475E-005	5.99601E-002	9.23163E-001	3.57740E+000	9	...........
	59	0.8	9.27768E-001	1.02730E-004	0.00000E+000	9.53093E-005	5.99601E-002	9.28067E-001	3.57740E+000	9	...........
	60	0.813333	9.32544E-001	1.00724E-004	0.00000E+000	9.39295E-005	5.99601E-002	9.32853E-001	3.57740E+000	9	...........
	61	0.826667	9.37198E-001	1.02084E-004	0.00000E+000	9.56726E-005	5.99601E-002	9.37570E-001	3.57740E+000	9	...........
	62	0.84	9.41792E-001	1.01066E-004	0.00000E+000	9.51829E-005	5.99601E-002	9.42129E-001	3.57740E+000	9	...........
	63	0.853333	9.46274E-001	1.01539E-004	0.00000E+000	9.60835E-005	5.99601E-002	9.46631E-001	3.57740E+000	9	...........
	64	0.866667	9.50664E-001	1.00542E-004	0.00000E+000	9.55814E-005	5.99601E-002	9.51039E-001	3.57740E+000	9	...........
	65	0.88	9.54962E-001	1.01845E-004	0.00000E+000	9.72582E-005	5.99601E-002	9.55328E-001	3.57740E+000	9	...........
	66	0.893333	9.59182E-001	1.01476E-004	0.00000E+000	9.73342E-005	5.99601E-002	9.59554E-001	3.57740E+000	9	...........
	67	0.906667	9.63297E-001	1.00800E-004	0.00000E+000	9.71005E-005	5.99601E-002	9.63664E-001	3.57740E+000	9	...........
	68	0.92	9.67353E-001	1.00656E-004	0.00000E+000	9.73702E-005	5.99601E-002	9.67693E-001	3.57740E+000	9	...........
	69	0.933333	9.71312E-001	1.00374E-004	0.00000E+000	9.74944E-005	5.99601E-002	9.71670E-001	3.57740E+000	9	...........
	70	0.946667	9.75259E-001	1.01741E-004	0.00000E+000	9.92238E-005	5.99601E-002	9.75591E-001	3.57740E+000	9	...........
	71	0.96	9.79056E-001	1.01300E-004	0.00000E+000	9.91785E-005	5.99601E-002	9.79390E-001	3.57740E+000	9	...........
	72	0.97333	9.82791E-001	1.00813E-004	0.00000E+000	9.90777E-005	5.99601E-002	9.83109E-001	3.57740E+000	9	...........
	73	0.98667	9.86405E-001	1.01554E-004	0.00000E+000	1.00174E-004	5.99601E-002	9.86766E-001	3.57740E+000	9	...........
	74	1	9.90009E-001	1.01541E-004	0.00000E+000	1.00526E-004	5.99601E-002	9.90345E-001	3.57740E+000	9	...........
	75	1.01333	9.93465E-001	1.00919E-004	0.00000E+000	1.00259E-004	5.99601E-002	9.93815E-001	3.57740E+000	9	...........
	76	1.02667	9.96874E-001	1.00642E-004	0.00000E+000	1.00327E-004	5.99601E-002	9.97230E-001	3.57740E+000	9	...........
	77	1.03333	9.99416E-001	1.01494E-004	0.00000E+000	1.01435E-004	5.99601E-002	9.99730E-001	3.57740E+000	9	...........
STARTTIMEOFFSET	QUANT	476.1285	Start Time Offset (s)
