EXPLAIN
TAG	PWR800_CHARGE
TITLE	LABEL	PWR Cyclic Charge Discharge (Cell) - Charge Step	Test &Identifier
DATE	LABEL	12-7-2017	Date
TIME	LABEL	16:55:48	Time
NOTES	NOTES	2	&Notes...
	supercap test cell
	6M KOH
PSTAT	PSTAT	IFC5000-01520	Potentiostat
CAPACITY	QUANT	1.00000E-003	Capacity (A-hr)
CELLTYPE	SELECTOR	1	&Cell Type
WORKINGCONNECTION	SELECTOR	0	&Working Lead
MAXCHARGETIME	VARIABLEANDUNITS	1.00000E+002	s	1.00000E+002	second(s)	Max &Charge Time
CHARGECURRENT	QUANT	1.00000E-004	&Charge Current (A) 
VOLTAGEFINISH	TWOPARAM	F	1.00000E-003	3.60000E+003	&Voltage Finish	 I (A) < 	Max Time(s)
SAMPLETIME	QUANT	1.00000E-002	Sa&mple Period (s)
CHARGESTOPAT1	MULTIPARAM	4	1.00000E+000	Charge Stop At &1	Voltage > Limit	V
CHARGESTOPAT2	MULTIPARAM	0	0.00000E+000	Charge Stop At &2	None	N/A
AESBHCSELECTOR	TOGGLE	F	Save Both Half Cells
IRCOMP	TOGGLE	F	IR &Measure
EOC	QUANT	0	Open Circuit (V)
SEQUENCER	TOGGLE	TRUE	Run as Sequence
PSTATMODEL	IQUANT	53	Pstat Model
PSTATSECTION	LABEL	IFC5000-01520	Pstat Section
PSTATSERIALNO	LABEL	01520	Pstat Serial Number
CTRLMODE	IQUANT	0	Control Mode
ELECTROMETER	IQUANT	1	RE=0 or CS=1
IESTAB	IQUANT	0	I/E Stability
CASPEED	IQUANT	4	Control Amp Speed
CONVENTION	IQUANT	1	Current Convention
ICHRANGE	IQUANT	2	Ich Range
ICHRANGEMODE	TOGGLE	T	Ich Auto Range
ICHOFFSETENABLE	TOGGLE	F	Ich Offset Enable
ICHOFFSET	QUANT	0	Ich Offset (V)
ICHFILTER	IQUANT	1	Ich Filter
VCHRANGE	IQUANT	2	Vch Range
VCHRANGEMODE	TOGGLE	T	Vch Auto Range
VCHOFFSETENABLE	TOGGLE	F	Vch Offset Enable
VCHOFFSET	QUANT	0	Vch Offset (V)
VCHFILTER	IQUANT	1	Vch Filter
IERANGELOWERLIMIT	IQUANT	9	I/E Range Lower Limit
IERANGEMODE	TOGGLE	F	I/E AutoRange
IERANGE	IQUANT	9	I/E Range
ACHSELECT	IQUANT	1	Ach Select
ACHRANGE	IQUANT	2	Ach Range
ACHOFFSETENABLE	TOGGLE	F	Ach Offset Enable
ACHOFFSET	QUANT	0	Ach Offset (V)
ACHFILTER	IQUANT	1	Ach Filter
CABLEID	IQUANT	14	Cable ID
DCCALDATE	LABEL	5-7-2017	DC Calibration Date
ACCALDATE	LABEL	12/3/2015	AC Calibration Date
FRAMEWORKVERSION	QUANT	7.01	Framework Version
INSTRUMENTVERSION	LABEL	4.00	Instrument Version
CURVE	TABLE	74
	Pt	T	Vf	Im	Vu	Pwr	Sig	Ach	Temp	IERange	Over
	#	s	V	A	V	W	V	V	deg C	#	bits
	0	0.013333	2.58608E-001	1.00358E-004	0.00000E+000	2.59534E-005	5.99601E-002	2.58695E-001	3.57640E+000	9	...........
	1	0.026667	2.81746E-001	1.01148E-004	0.00000E+000	2.84980E-005	5.99601E-002	2.81807E-001	3.57640E+000	9	...........
	2	0.04	3.03642E-001	1.00969E-004	0.00000E+000	3.06584E-005	5.99601E-002	3.03711E-001	3.57640E+000	9	...........
	3	0.053333	3.24657E-001	1.01293E-004	0.00000E+000	3.28855E-005	5.99601E-002	3.24727E-001	3.57640E+000	9	...........
	4	0.066667	3.44960E-001	1.01888E-004	0.00000E+000	3.51472E-005	5.99601E-002	3.45033E-001	3.57640E+000	9	...........
	5	0.08	3.64674E-001	1.00618E-004	0.00000E+000	3.66927E-005	5.99601E-002	3.64746E-001	3.57640E+000	9	...........
	6	0.093333	3.83868E-001	1.00168E-004	0.00000E+000	3.84511E-005	5.99601E-002	3.83946E-001	3.57640E+000	9	...........
	7	0.106667	4.02591E-001	1.01406E-004	0.00000E+000	4.08253E-005	5.99601E-002	4.02674E-001	3.57640E+000	9	...........
	8	0.12	4.20873E-001	1.00479E-004	0.00000E+000	4.22889E-005	5.99601E-002	4.20967E-001	3.57640E+000	9	...........
	9	0.133333	4.38753E-001	1.01514E-004	0.00000E+000	4.45395E-005	5.99601E-002	4.38845E-001	3.57640E+000	9	...........
	10	0.146667	4.56236E-001	1.00008E-004	0.00000E+000	4.56274E-005	5.99601E-002	4.56325E-001	3.57640E+000	9	...........
	11	0.16	4.73334E-001	1.00911E-004	0.00000E+000	4.77644E-005	5.99601E-002	4.73428E-001	3.57640E+000	9	...........
	12	0.173333	4.90070E-001	1.00392E-004	0.00000E+000	4.91990E-005	5.99601E-002	4.90168E-001	3.57640E+000	9	...........
	13	0.186667	5.06435E-001	1.01641E-004	0.00000E+000	5.14745E-005	5.99601E-002	5.06540E-001	3.57640E+000	9	...........
	14	0.2	5.22442E-001	1.00705E-004	0.00000E+000	5.26127E-005	5.99601E-002	5.22545E-001	3.57640E+000	9	...........
	15	0.213333	5.37887E-001	1.00348E-004	0.00000E+000	5.39759E-005	5.99601E-002	5.38069E-001	3.57640E+000	9	...........
	16	0.226667	5.53120E-001	1.01172E-004	0.00000E+000	5.59602E-005	5.99601E-002	5.53315E-001	3.57640E+000	9	...........
	17	0.24	5.68096E-001	1.00646E-004	0.00000E+000	5.71766E-005	5.99601E-002	5.68310E-001	3.57640E+000	9	...........
	18	0.253333	5.82669E-001	1.00315E-004	0.00000E+000	5.84502E-005	5.99601E-002	5.82922E-001	3.57640E+000	9	...........
	19	0.266667	5.96967E-001	1.00997E-004	0.00000E+000	6.02919E-005	5.99601E-002	5.97207E-001	3.57640E+000	9	...........
	20	0.28	6.10877E-001	1.00641E-004	0.00000E+000	6.14791E-005	5.99601E-002	6.11147E-001	3.57640E+000	9	...........
	21	0.293333	6.24520E-001	1.01058E-004	0.00000E+000	6.31130E-005	5.99601E-002	6.24747E-001	3.57640E+000	9	...........
	22	0.306667	6.37791E-001	1.00903E-004	0.00000E+000	6.43552E-005	5.99601E-002	6.38032E-001	3.57640E+000	9	...........
	23	0.32	6.50736E-001	1.00735E-004	0.00000E+000	6.55522E-005	5.99601E-002	6.50984E-001	3.57640E+000	9	...........
	24	0.333333	6.63355E-001	9.99833E-005	0.00000E+000	6.63244E-005	5.99601E-002	6.63619E-001	3.57640E+000	9	...........
	25	0.346667	6.75674E-001	1.01289E-004	0.00000E+000	6.84381E-005	5.99601E-002	6.75929E-001	3.57640E+000	9	...........
	26	0.36	6.87641E-001	1.01171E-004	0.00000E+000	6.95693E-005	5.99601E-002	6.87915E-001	3.57640E+000	9	...........
	27	0.373333	6.99339E-001	1.02201E-004	0.00000E+000	7.14734E-005	5.99601E-002	6.99579E-001	3.57640E+000	9	...........
	28	0.386667	7.10679E-001	1.00583E-004	0.00000E+000	7.14825E-005	5.99601E-002	7.10934E-001	3.57640E+000	9	...........
	29	0.4	7.21782E-001	1.01368E-004	0.00000E+000	7.31655E-005	5.99601E-002	7.21999E-001	3.57640E+000	9	...........
	30	0.413333	7.32523E-001	9.97478E-005	0.00000E+000	7.30676E-005	5.99601E-002	7.32755E-001	3.57640E+000	9	...........
	31	0.426667	7.42981E-001	1.01431E-004	0.00000E+000	7.53617E-005	5.99601E-002	7.43228E-001	3.57640E+000	9	...........
	32	0.44	7.53147E-001	1.02285E-004	0.00000E+000	7.70355E-005	5.99601E-002	7.53406E-001	3.57640E+000	9	...........
	33	0.453333	7.63013E-001	1.00359E-004	0.00000E+000	7.65756E-005	5.99601E-002	7.63264E-001	3.57640E+000	9	...........
	34	0.466667	7.72604E-001	1.00380E-004	0.00000E+000	7.75542E-005	5.99601E-002	7.72891E-001	3.57640E+000	9	...........
	35	0.48	7.81928E-001	1.00921E-004	0.00000E+000	7.89129E-005	5.99601E-002	7.82187E-001	3.57640E+000	9	...........
	36	0.493333	7.90960E-001	1.01504E-004	0.00000E+000	8.02859E-005	5.99601E-002	7.91232E-001	3.57640E+000	9	...........
	37	0.506667	7.99737E-001	1.00198E-004	0.00000E+000	8.01320E-005	5.99601E-002	8.00005E-001	3.57640E+000	9	...........
	38	0.52	8.08194E-001	1.01468E-004	0.00000E+000	8.20058E-005	5.99601E-002	8.08503E-001	3.57640E+000	9	...........
	39	0.533333	8.16447E-001	1.00780E-004	0.00000E+000	8.22818E-005	5.99601E-002	8.16753E-001	3.57640E+000	9	...........
	40	0.546667	8.24432E-001	1.01142E-004	0.00000E+000	8.33846E-005	5.99601E-002	8.24750E-001	3.57640E+000	9	...........
	41	0.56	8.32155E-001	1.01313E-004	0.00000E+000	8.43079E-005	5.99601E-002	8.32482E-001	3.57640E+000	9	...........
	42	0.573333	8.39626E-001	1.00587E-004	0.00000E+000	8.44550E-005	5.99601E-002	8.39934E-001	3.57640E+000	9	...........
	43	0.586667	8.46897E-001	1.01108E-004	0.00000E+000	8.56285E-005	5.99601E-002	8.47224E-001	3.57640E+000	9	...........
	44	0.6	8.53933E-001	1.00625E-004	0.00000E+000	8.59271E-005	5.99601E-002	8.54251E-001	3.57640E+000	9	...........
	45	0.613333	8.60717E-001	1.00503E-004	0.00000E+000	8.65048E-005	5.99601E-002	8.61042E-001	3.57640E+000	9	...........
	46	0.626667	8.67332E-001	1.02002E-004	0.00000E+000	8.84700E-005	5.99601E-002	8.67626E-001	3.57640E+000	9	...........
	47	0.64	8.73762E-001	1.02603E-004	0.00000E+000	8.96502E-005	5.99601E-002	8.74067E-001	3.57640E+000	9	...........
	48	0.653333	8.79992E-001	1.02337E-004	0.00000E+000	9.00556E-005	5.99601E-002	8.80281E-001	3.57640E+000	9	...........
	49	0.666667	8.86059E-001	1.01576E-004	0.00000E+000	9.00026E-005	5.99601E-002	8.86317E-001	3.57640E+000	9	...........
	50	0.68	8.91934E-001	1.00762E-004	0.00000E+000	8.98726E-005	5.99601E-002	8.92208E-001	3.57640E+000	9	...........
	51	0.693333	8.97653E-001	1.00128E-004	0.00000E+000	8.98803E-005	5.99601E-002	8.97970E-001	3.57640E+000	9	...........
	52	0.706667	9.03260E-001	1.01232E-004	0.00000E+000	9.14393E-005	5.99601E-002	9.03554E-001	3.57640E+000	9	...........
	53	0.72	9.08720E-001	1.00280E-004	0.00000E+000	9.11266E-005	5.99601E-002	9.09062E-001	3.57640E+000	9	...........
	54	0.733333	9.14089E-001	1.00786E-004	0.00000E+000	9.21270E-005	5.99601E-002	9.14404E-001	3.57640E+000	9	...........
	55	0.746667	9.19361E-001	1.01733E-004	0.00000E+000	9.35290E-005	5.99601E-002	9.19668E-001	3.57640E+000	9	...........
	56	0.76	9.24557E-001	1.01763E-004	0.00000E+000	9.40855E-005	5.99601E-002	9.24848E-001	3.57770E+000	9	...........
	57	0.773333	9.29619E-001	1.00278E-004	0.00000E+000	9.32204E-005	5.99601E-002	9.29892E-001	3.57770E+000	9	...........
	58	0.786667	9.34587E-001	1.01452E-004	0.00000E+000	9.48160E-005	5.99601E-002	9.34875E-001	3.57770E+000	9	...........
	59	0.8	9.39481E-001	1.02532E-004	0.00000E+000	9.63266E-005	5.99601E-002	9.39779E-001	3.57770E+000	9	...........
	60	0.813333	9.44283E-001	1.00451E-004	0.00000E+000	9.48542E-005	5.99601E-002	9.44595E-001	3.57770E+000	9	...........
	61	0.826667	9.49076E-001	1.01719E-004	0.00000E+000	9.65391E-005	5.99601E-002	9.49366E-001	3.57770E+000	9	...........
	62	0.84	9.53736E-001	1.01139E-004	0.00000E+000	9.64597E-005	5.99601E-002	9.54011E-001	3.57770E+000	9	...........
	63	0.853333	9.58308E-001	1.00939E-004	0.00000E+000	9.67303E-005	5.99601E-002	9.58610E-001	3.57770E+000	9	...........
	64	0.866667	9.62836E-001	1.01884E-004	0.00000E+000	9.80973E-005	5.99601E-002	9.63154E-001	3.57770E+000	9	...........
	65	0.88	9.67281E-001	1.01389E-004	0.00000E+000	9.80715E-005	5.99601E-002	9.67600E-001	3.57770E+000	9	...........
	66	0.893333	9.71646E-001	1.01160E-004	0.00000E+000	9.82912E-005	5.99601E-002	9.71993E-001	3.57770E+000	9	...........
	67	0.906667	9.75981E-001	1.00219E-004	0.00000E+000	9.78116E-005	5.99601E-002	9.76304E-001	3.57770E+000	9	...........
	68	0.92	9.80190E-001	1.00917E-004	0.00000E+000	9.89176E-005	5.99601E-002	9.80491E-001	3.57770E+000	9	...........
	69	0.933333	9.84316E-001	1.00606E-004	0.00000E+000	9.90284E-005	5.99601E-002	9.84650E-001	3.57770E+000	9	...........
	70	0.946667	9.88357E-001	1.00639E-004	0.00000E+000	9.94668E-005	5.99601E-002	9.88706E-001	3.57770E+000	9	...........
	71	0.96	9.92313E-001	1.02194E-004	0.00000E+000	1.01409E-004	5.99601E-002	9.92667E-001	3.57770E+000	9	...........
	72	0.97333	9.96218E-001	1.01635E-004	0.00000E+000	1.01250E-004	5.99601E-002	9.96575E-001	3.57770E+000	9	...........
	73	0.98167	9.99318E-001	1.00745E-004	0.00000E+000	1.00676E-004	5.99601E-002	9.99667E-001	3.57770E+000	9	...........
STARTTIMEOFFSET	QUANT	1949.186	Start Time Offset (s)
