EXPLAIN
TAG	PWR800_CHARGE
TITLE	LABEL	PWR Cyclic Charge Discharge (Cell) - Charge Step	Test &Identifier
DATE	LABEL	12-7-2017	Date
TIME	LABEL	16:15:30	Time
NOTES	NOTES	2	&Notes...
	supercap test cell
	6M KOH
PSTAT	PSTAT	IFC5000-01520	Potentiostat
CAPACITY	QUANT	1.00000E-003	Capacity (A-hr)
CELLTYPE	SELECTOR	1	&Cell Type
WORKINGCONNECTION	SELECTOR	0	&Working Lead
MAXCHARGETIME	VARIABLEANDUNITS	1.00000E+002	s	1.00000E+002	second(s)	Max &Charge Time
CHARGECURRENT	QUANT	1.00000E-004	&Charge Current (A) 
VOLTAGEFINISH	TWOPARAM	F	1.00000E-003	3.60000E+003	&Voltage Finish	 I (A) < 	Max Time(s)
SAMPLETIME	QUANT	1.00000E-002	Sa&mple Period (s)
CHARGESTOPAT1	MULTIPARAM	4	1.00000E+000	Charge Stop At &1	Voltage > Limit	V
CHARGESTOPAT2	MULTIPARAM	0	0.00000E+000	Charge Stop At &2	None	N/A
AESBHCSELECTOR	TOGGLE	F	Save Both Half Cells
IRCOMP	TOGGLE	F	IR &Measure
EOC	QUANT	0	Open Circuit (V)
SEQUENCER	TOGGLE	TRUE	Run as Sequence
PSTATMODEL	IQUANT	53	Pstat Model
PSTATSECTION	LABEL	IFC5000-01520	Pstat Section
PSTATSERIALNO	LABEL	01520	Pstat Serial Number
CTRLMODE	IQUANT	0	Control Mode
ELECTROMETER	IQUANT	1	RE=0 or CS=1
IESTAB	IQUANT	0	I/E Stability
CASPEED	IQUANT	4	Control Amp Speed
CONVENTION	IQUANT	1	Current Convention
ICHRANGE	IQUANT	2	Ich Range
ICHRANGEMODE	TOGGLE	T	Ich Auto Range
ICHOFFSETENABLE	TOGGLE	F	Ich Offset Enable
ICHOFFSET	QUANT	0	Ich Offset (V)
ICHFILTER	IQUANT	1	Ich Filter
VCHRANGE	IQUANT	2	Vch Range
VCHRANGEMODE	TOGGLE	T	Vch Auto Range
VCHOFFSETENABLE	TOGGLE	F	Vch Offset Enable
VCHOFFSET	QUANT	0	Vch Offset (V)
VCHFILTER	IQUANT	1	Vch Filter
IERANGELOWERLIMIT	IQUANT	9	I/E Range Lower Limit
IERANGEMODE	TOGGLE	F	I/E AutoRange
IERANGE	IQUANT	9	I/E Range
ACHSELECT	IQUANT	1	Ach Select
ACHRANGE	IQUANT	2	Ach Range
ACHOFFSETENABLE	TOGGLE	F	Ach Offset Enable
ACHOFFSET	QUANT	0	Ach Offset (V)
ACHFILTER	IQUANT	1	Ach Filter
CABLEID	IQUANT	14	Cable ID
DCCALDATE	LABEL	5-7-2017	DC Calibration Date
ACCALDATE	LABEL	12/3/2015	AC Calibration Date
FRAMEWORKVERSION	QUANT	7.01	Framework Version
INSTRUMENTVERSION	LABEL	4.00	Instrument Version
CURVE	TABLE	80
	Pt	T	Vf	Im	Vu	Pwr	Sig	Ach	Temp	IERange	Over
	#	s	V	A	V	W	V	V	deg C	#	bits
	0	0.013333	2.62331E-001	1.00976E-004	0.00000E+000	2.64892E-005	5.99601E-002	2.62411E-001	3.57720E+000	9	...........
	1	0.026667	2.85018E-001	1.00837E-004	0.00000E+000	2.87402E-005	5.99601E-002	2.85087E-001	3.57720E+000	9	...........
	2	0.04	3.06120E-001	1.01493E-004	0.00000E+000	3.10690E-005	5.99601E-002	3.06191E-001	3.57720E+000	9	...........
	3	0.053333	3.26028E-001	1.00855E-004	0.00000E+000	3.28816E-005	5.99601E-002	3.26098E-001	3.57720E+000	9	...........
	4	0.066667	3.44946E-001	1.00635E-004	0.00000E+000	3.47138E-005	5.99601E-002	3.45016E-001	3.57720E+000	9	...........
	5	0.08	3.63048E-001	1.00573E-004	0.00000E+000	3.65128E-005	5.99601E-002	3.63121E-001	3.57720E+000	9	...........
	6	0.093333	3.80472E-001	1.01410E-004	0.00000E+000	3.85835E-005	5.99601E-002	3.80548E-001	3.57720E+000	9	...........
	7	0.106667	3.97286E-001	1.00297E-004	0.00000E+000	3.98465E-005	5.99601E-002	3.97369E-001	3.57720E+000	9	...........
	8	0.12	4.13575E-001	1.01366E-004	0.00000E+000	4.19224E-005	5.99601E-002	4.13661E-001	3.57720E+000	9	...........
	9	0.133333	4.29392E-001	1.01011E-004	0.00000E+000	4.33731E-005	5.99601E-002	4.29496E-001	3.57720E+000	9	...........
	10	0.146667	4.44796E-001	1.01670E-004	0.00000E+000	4.52224E-005	5.99601E-002	4.44895E-001	3.57720E+000	9	...........
	11	0.16	4.59810E-001	1.01399E-004	0.00000E+000	4.66244E-005	5.99601E-002	4.59912E-001	3.57720E+000	9	...........
	12	0.173333	4.74468E-001	1.00331E-004	0.00000E+000	4.76039E-005	5.99601E-002	4.74573E-001	3.57720E+000	9	...........
	13	0.186667	4.88798E-001	1.01335E-004	0.00000E+000	4.95321E-005	5.99601E-002	4.88903E-001	3.57720E+000	9	...........
	14	0.2	5.02823E-001	1.00674E-004	0.00000E+000	5.06212E-005	5.99601E-002	5.02935E-001	3.57720E+000	9	...........
	15	0.213333	5.16576E-001	1.00837E-004	0.00000E+000	5.20897E-005	5.99601E-002	5.16689E-001	3.57720E+000	9	...........
	16	0.226667	5.30010E-001	1.01300E-004	0.00000E+000	5.36902E-005	5.99601E-002	5.30116E-001	3.57720E+000	9	...........
	17	0.24	5.42967E-001	1.00895E-004	0.00000E+000	5.47826E-005	5.99601E-002	5.43236E-001	3.57720E+000	9	...........
	18	0.253333	5.55952E-001	1.00132E-004	0.00000E+000	5.56687E-005	5.99601E-002	5.56222E-001	3.57720E+000	9	...........
	19	0.266667	5.68720E-001	1.01484E-004	0.00000E+000	5.77158E-005	5.99601E-002	5.68983E-001	3.57720E+000	9	...........
	20	0.28	5.81215E-001	1.01245E-004	0.00000E+000	5.88451E-005	5.99601E-002	5.81516E-001	3.57720E+000	9	...........
	21	0.293333	5.93536E-001	1.00093E-004	0.00000E+000	5.94086E-005	5.99601E-002	5.93833E-001	3.57720E+000	9	...........
	22	0.306667	6.05612E-001	1.01462E-004	0.00000E+000	6.14464E-005	5.99601E-002	6.05908E-001	3.57720E+000	9	...........
	23	0.32	6.17547E-001	1.00876E-004	0.00000E+000	6.22958E-005	5.99601E-002	6.17801E-001	3.57720E+000	9	...........
	24	0.333333	6.29210E-001	1.00820E-004	0.00000E+000	6.34369E-005	5.99601E-002	6.29491E-001	3.57720E+000	9	...........
	25	0.346667	6.40719E-001	1.00862E-004	0.00000E+000	6.46240E-005	5.99601E-002	6.40979E-001	3.57720E+000	9	...........
	26	0.36	6.51989E-001	1.00991E-004	0.00000E+000	6.58448E-005	5.99601E-002	6.52283E-001	3.57720E+000	9	...........
	27	0.373333	6.63107E-001	1.01044E-004	0.00000E+000	6.70029E-005	5.99601E-002	6.63375E-001	3.57720E+000	9	...........
	28	0.386667	6.74038E-001	1.00790E-004	0.00000E+000	6.79361E-005	5.99601E-002	6.74293E-001	3.57720E+000	9	...........
	29	0.4	6.84753E-001	1.01323E-004	0.00000E+000	6.93813E-005	5.99601E-002	6.84998E-001	3.57720E+000	9	...........
	30	0.413333	6.95268E-001	1.01219E-004	0.00000E+000	7.03743E-005	5.99601E-002	6.95525E-001	3.57720E+000	9	...........
	31	0.426667	7.05625E-001	1.00644E-004	0.00000E+000	7.10168E-005	5.99601E-002	7.05883E-001	3.57720E+000	9	...........
	32	0.44	7.15777E-001	1.00867E-004	0.00000E+000	7.21981E-005	5.99601E-002	7.16023E-001	3.57720E+000	9	...........
	33	0.453333	7.25750E-001	1.01692E-004	0.00000E+000	7.38029E-005	5.99601E-002	7.26003E-001	3.57720E+000	9	...........
	34	0.466667	7.35492E-001	1.00678E-004	0.00000E+000	7.40480E-005	5.99601E-002	7.35751E-001	3.57720E+000	9	...........
	35	0.48	7.45097E-001	1.01758E-004	0.00000E+000	7.58193E-005	5.99601E-002	7.45348E-001	3.57720E+000	9	...........
	36	0.493333	7.54495E-001	1.01428E-004	0.00000E+000	7.65272E-005	5.99601E-002	7.54747E-001	3.57720E+000	9	...........
	37	0.506667	7.63676E-001	1.00745E-004	0.00000E+000	7.69365E-005	5.99601E-002	7.63945E-001	3.57720E+000	9	...........
	38	0.52	7.72694E-001	1.01241E-004	0.00000E+000	7.82282E-005	5.99601E-002	7.72970E-001	3.57720E+000	9	...........
	39	0.533333	7.81533E-001	1.01272E-004	0.00000E+000	7.91474E-005	5.99601E-002	7.81806E-001	3.57720E+000	9	...........
	40	0.546667	7.90170E-001	1.00696E-004	0.00000E+000	7.95669E-005	5.99601E-002	7.90440E-001	3.57720E+000	9	...........
	41	0.56	7.98629E-001	1.00973E-004	0.00000E+000	8.06400E-005	5.99601E-002	7.98905E-001	3.57720E+000	9	...........
	42	0.573333	8.06861E-001	1.00924E-004	0.00000E+000	8.14317E-005	5.99601E-002	8.07158E-001	3.57720E+000	9	...........
	43	0.586667	8.14904E-001	1.00332E-004	0.00000E+000	8.17612E-005	5.99601E-002	8.15216E-001	3.57720E+000	9	...........
	44	0.6	8.22802E-001	1.00261E-004	0.00000E+000	8.24953E-005	5.99601E-002	8.23090E-001	3.57720E+000	9	...........
	45	0.613333	8.30450E-001	1.01303E-004	0.00000E+000	8.41273E-005	5.99601E-002	8.30777E-001	3.57720E+000	9	...........
	46	0.626667	8.37939E-001	1.00789E-004	0.00000E+000	8.44547E-005	5.99601E-002	8.38255E-001	3.57720E+000	9	...........
	47	0.64	8.45266E-001	1.01866E-004	0.00000E+000	8.61038E-005	5.99601E-002	8.45590E-001	3.57720E+000	9	...........
	48	0.653333	8.52381E-001	1.01276E-004	0.00000E+000	8.63260E-005	5.99601E-002	8.52732E-001	3.57720E+000	9	...........
	49	0.666667	8.59334E-001	1.00545E-004	0.00000E+000	8.64016E-005	5.99601E-002	8.59669E-001	3.57720E+000	9	...........
	50	0.68	8.66093E-001	9.95540E-005	0.00000E+000	8.62230E-005	5.99601E-002	8.66428E-001	3.57720E+000	9	...........
	51	0.693333	8.72702E-001	1.00802E-004	0.00000E+000	8.79702E-005	5.99601E-002	8.73027E-001	3.57720E+000	9	...........
	52	0.706667	8.79086E-001	1.00519E-004	0.00000E+000	8.83647E-005	5.99601E-002	8.79437E-001	3.57720E+000	9	...........
	53	0.72	8.85335E-001	1.01537E-004	0.00000E+000	8.98940E-005	5.99601E-002	8.85683E-001	3.57720E+000	9	...........
	54	0.733333	8.91370E-001	1.00570E-004	0.00000E+000	8.96449E-005	5.99601E-002	8.91701E-001	3.57720E+000	9	...........
	55	0.746667	8.97252E-001	1.01453E-004	0.00000E+000	9.10292E-005	5.99601E-002	8.97604E-001	3.57720E+000	9	...........
	56	0.76	9.02979E-001	1.01493E-004	0.00000E+000	9.16460E-005	5.99601E-002	9.03309E-001	3.57720E+000	9	...........
	57	0.773333	9.08517E-001	1.01266E-004	0.00000E+000	9.20017E-005	5.99601E-002	9.08847E-001	3.57720E+000	9	...........
	58	0.786667	9.13894E-001	9.99197E-005	0.00000E+000	9.13160E-005	5.99601E-002	9.14249E-001	3.57720E+000	9	...........
	59	0.8	9.19152E-001	1.01129E-004	0.00000E+000	9.29533E-005	5.99601E-002	9.19493E-001	3.57720E+000	9	...........
	60	0.813333	9.24287E-001	1.00303E-004	0.00000E+000	9.27088E-005	5.99601E-002	9.24579E-001	3.57720E+000	9	...........
	61	0.826667	9.29229E-001	1.00277E-004	0.00000E+000	9.31803E-005	5.99601E-002	9.29547E-001	3.57720E+000	9	...........
	62	0.84	9.34019E-001	1.00227E-004	0.00000E+000	9.36140E-005	5.99601E-002	9.34365E-001	3.57720E+000	9	...........
	63	0.853333	9.38695E-001	1.00350E-004	0.00000E+000	9.41980E-005	5.99601E-002	9.39052E-001	3.57720E+000	9	...........
	64	0.866667	9.43286E-001	1.01108E-004	0.00000E+000	9.53743E-005	5.99601E-002	9.43613E-001	3.57720E+000	9	...........
	65	0.88	9.47753E-001	1.00177E-004	0.00000E+000	9.49431E-005	5.99601E-002	9.48096E-001	3.57720E+000	9	...........
	66	0.893333	9.52092E-001	1.00762E-004	0.00000E+000	9.59343E-005	5.99601E-002	9.52444E-001	3.57720E+000	9	...........
	67	0.906667	9.56329E-001	1.00988E-004	0.00000E+000	9.65774E-005	5.99601E-002	9.56678E-001	3.57720E+000	9	...........
	68	0.92	9.60466E-001	1.01021E-004	0.00000E+000	9.70273E-005	5.99601E-002	9.60848E-001	3.57720E+000	9	...........
	69	0.933333	9.64517E-001	1.00924E-004	0.00000E+000	9.73430E-005	5.99601E-002	9.64858E-001	3.57720E+000	9	...........
	70	0.946667	9.68449E-001	1.00118E-004	0.00000E+000	9.69589E-005	5.99601E-002	9.68809E-001	3.57720E+000	9	...........
	71	0.96	9.72365E-001	1.01149E-004	0.00000E+000	9.83538E-005	5.99601E-002	9.72709E-001	3.57720E+000	9	...........
	72	0.97333	9.76168E-001	1.00906E-004	0.00000E+000	9.85016E-005	5.99601E-002	9.76493E-001	3.57720E+000	9	...........
	73	0.98667	9.79879E-001	1.01764E-004	0.00000E+000	9.97162E-005	5.99601E-002	9.80191E-001	3.57720E+000	9	...........
	74	1	9.83482E-001	1.00551E-004	0.00000E+000	9.88902E-005	5.99601E-002	9.83806E-001	3.57730E+000	9	...........
	75	1.01333	9.86995E-001	1.01010E-004	0.00000E+000	9.96959E-005	5.99601E-002	9.87345E-001	3.57730E+000	9	...........
	76	1.02667	9.90420E-001	1.01325E-004	0.00000E+000	1.00355E-004	5.99601E-002	9.90774E-001	3.57730E+000	9	...........
	77	1.04	9.93761E-001	1.01131E-004	0.00000E+000	1.00500E-004	5.99601E-002	9.94149E-001	3.57730E+000	9	...........
	78	1.05333	9.97057E-001	9.98676E-005	0.00000E+000	9.95737E-005	5.99601E-002	9.97449E-001	3.57730E+000	9	...........
	79	1.06	9.99468E-001	1.00329E-004	0.00000E+000	1.00276E-004	5.99601E-002	9.99832E-001	3.57730E+000	9	...........
STARTTIMEOFFSET	QUANT	232.575	Start Time Offset (s)
