EXPLAIN
TAG	PWR800_CHARGE
TITLE	LABEL	PWR Cyclic Charge Discharge (Cell) - Charge Step	Test &Identifier
DATE	LABEL	12-7-2017	Date
TIME	LABEL	16:20:32	Time
NOTES	NOTES	2	&Notes...
	supercap test cell
	6M KOH
PSTAT	PSTAT	IFC5000-01520	Potentiostat
CAPACITY	QUANT	1.00000E-003	Capacity (A-hr)
CELLTYPE	SELECTOR	1	&Cell Type
WORKINGCONNECTION	SELECTOR	0	&Working Lead
MAXCHARGETIME	VARIABLEANDUNITS	1.00000E+002	s	1.00000E+002	second(s)	Max &Charge Time
CHARGECURRENT	QUANT	1.00000E-004	&Charge Current (A) 
VOLTAGEFINISH	TWOPARAM	F	1.00000E-003	3.60000E+003	&Voltage Finish	 I (A) < 	Max Time(s)
SAMPLETIME	QUANT	1.00000E-002	Sa&mple Period (s)
CHARGESTOPAT1	MULTIPARAM	4	1.00000E+000	Charge Stop At &1	Voltage > Limit	V
CHARGESTOPAT2	MULTIPARAM	0	0.00000E+000	Charge Stop At &2	None	N/A
AESBHCSELECTOR	TOGGLE	F	Save Both Half Cells
IRCOMP	TOGGLE	F	IR &Measure
EOC	QUANT	0	Open Circuit (V)
SEQUENCER	TOGGLE	TRUE	Run as Sequence
PSTATMODEL	IQUANT	53	Pstat Model
PSTATSECTION	LABEL	IFC5000-01520	Pstat Section
PSTATSERIALNO	LABEL	01520	Pstat Serial Number
CTRLMODE	IQUANT	0	Control Mode
ELECTROMETER	IQUANT	1	RE=0 or CS=1
IESTAB	IQUANT	0	I/E Stability
CASPEED	IQUANT	4	Control Amp Speed
CONVENTION	IQUANT	1	Current Convention
ICHRANGE	IQUANT	2	Ich Range
ICHRANGEMODE	TOGGLE	T	Ich Auto Range
ICHOFFSETENABLE	TOGGLE	F	Ich Offset Enable
ICHOFFSET	QUANT	0	Ich Offset (V)
ICHFILTER	IQUANT	1	Ich Filter
VCHRANGE	IQUANT	2	Vch Range
VCHRANGEMODE	TOGGLE	T	Vch Auto Range
VCHOFFSETENABLE	TOGGLE	F	Vch Offset Enable
VCHOFFSET	QUANT	0	Vch Offset (V)
VCHFILTER	IQUANT	1	Vch Filter
IERANGELOWERLIMIT	IQUANT	9	I/E Range Lower Limit
IERANGEMODE	TOGGLE	F	I/E AutoRange
IERANGE	IQUANT	9	I/E Range
ACHSELECT	IQUANT	1	Ach Select
ACHRANGE	IQUANT	2	Ach Range
ACHOFFSETENABLE	TOGGLE	F	Ach Offset Enable
ACHOFFSET	QUANT	0	Ach Offset (V)
ACHFILTER	IQUANT	1	Ach Filter
CABLEID	IQUANT	14	Cable ID
DCCALDATE	LABEL	5-7-2017	DC Calibration Date
ACCALDATE	LABEL	12/3/2015	AC Calibration Date
FRAMEWORKVERSION	QUANT	7.01	Framework Version
INSTRUMENTVERSION	LABEL	4.00	Instrument Version
CURVE	TABLE	78
	Pt	T	Vf	Im	Vu	Pwr	Sig	Ach	Temp	IERange	Over
	#	s	V	A	V	W	V	V	deg C	#	bits
	0	0.013333	2.61782E-001	1.00386E-004	0.00000E+000	2.62793E-005	5.99601E-002	2.61860E-001	3.57750E+000	9	...........
	1	0.026667	2.84514E-001	1.02644E-004	0.00000E+000	2.92037E-005	5.99601E-002	2.84578E-001	3.57750E+000	9	...........
	2	0.04	3.05766E-001	1.01616E-004	0.00000E+000	3.10707E-005	5.99601E-002	3.05834E-001	3.57750E+000	9	...........
	3	0.053333	3.25932E-001	1.01543E-004	0.00000E+000	3.30961E-005	5.99601E-002	3.25998E-001	3.57750E+000	9	...........
	4	0.066667	3.45227E-001	1.01678E-004	0.00000E+000	3.51021E-005	5.99601E-002	3.45298E-001	3.57750E+000	9	...........
	5	0.08	3.63794E-001	1.01876E-004	0.00000E+000	3.70620E-005	5.99601E-002	3.63874E-001	3.57750E+000	9	...........
	6	0.093333	3.81760E-001	9.99718E-005	0.00000E+000	3.81652E-005	5.99601E-002	3.81838E-001	3.57750E+000	9	...........
	7	0.106667	3.99189E-001	1.00926E-004	0.00000E+000	4.02887E-005	5.99601E-002	3.99270E-001	3.57755E+000	9	...........
	8	0.12	4.16122E-001	1.00865E-004	0.00000E+000	4.19720E-005	5.99601E-002	4.16214E-001	3.57760E+000	9	...........
	9	0.133333	4.32624E-001	1.01870E-004	0.00000E+000	4.40714E-005	5.99601E-002	4.32715E-001	3.57760E+000	9	...........
	10	0.146667	4.48729E-001	1.01644E-004	0.00000E+000	4.56106E-005	5.99601E-002	4.48822E-001	3.57760E+000	9	...........
	11	0.16	4.64449E-001	9.96707E-005	0.00000E+000	4.62919E-005	5.99601E-002	4.64547E-001	3.57760E+000	9	...........
	12	0.173333	4.79828E-001	1.01093E-004	0.00000E+000	4.85072E-005	5.99601E-002	4.79930E-001	3.57760E+000	9	...........
	13	0.186667	4.94860E-001	1.00622E-004	0.00000E+000	4.97938E-005	5.99601E-002	4.94973E-001	3.57760E+000	9	...........
	14	0.2	5.09584E-001	1.00020E-004	0.00000E+000	5.09685E-005	5.99601E-002	5.09695E-001	3.57760E+000	9	...........
	15	0.213333	5.24013E-001	1.00107E-004	0.00000E+000	5.24575E-005	5.99601E-002	5.24127E-001	3.57760E+000	9	...........
	16	0.226667	5.37939E-001	1.00104E-004	0.00000E+000	5.38499E-005	5.99601E-002	5.38103E-001	3.57760E+000	9	...........
	17	0.24	5.51735E-001	1.00680E-004	0.00000E+000	5.55489E-005	5.99601E-002	5.51930E-001	3.57760E+000	9	...........
	18	0.253333	5.65338E-001	1.01379E-004	0.00000E+000	5.73136E-005	5.99601E-002	5.65537E-001	3.57760E+000	9	...........
	19	0.266667	5.78654E-001	1.01913E-004	0.00000E+000	5.89723E-005	5.99601E-002	5.78876E-001	3.57760E+000	9	...........
	20	0.28	5.91753E-001	1.02118E-004	0.00000E+000	6.04286E-005	5.99601E-002	5.91978E-001	3.57760E+000	9	...........
	21	0.293333	6.04542E-001	1.00858E-004	0.00000E+000	6.09732E-005	5.99601E-002	6.04803E-001	3.57760E+000	9	...........
	22	0.306667	6.17190E-001	1.00078E-004	0.00000E+000	6.17671E-005	5.99601E-002	6.17416E-001	3.57760E+000	9	...........
	23	0.32	6.29530E-001	1.00905E-004	0.00000E+000	6.35230E-005	5.99601E-002	6.29769E-001	3.57760E+000	9	...........
	24	0.333333	6.41649E-001	1.00808E-004	0.00000E+000	6.46836E-005	5.99601E-002	6.41906E-001	3.57760E+000	9	...........
	25	0.346667	6.53507E-001	1.00457E-004	0.00000E+000	6.56495E-005	5.99601E-002	6.53773E-001	3.57760E+000	9	...........
	26	0.36	6.65177E-001	1.01296E-004	0.00000E+000	6.73798E-005	5.99601E-002	6.65438E-001	3.57760E+000	9	...........
	27	0.373333	6.76574E-001	1.01655E-004	0.00000E+000	6.87775E-005	5.99601E-002	6.76855E-001	3.57760E+000	9	...........
	28	0.386667	6.87749E-001	1.02322E-004	0.00000E+000	7.03721E-005	5.99601E-002	6.88007E-001	3.57760E+000	9	...........
	29	0.4	6.98730E-001	1.01087E-004	0.00000E+000	7.06322E-005	5.99601E-002	6.98972E-001	3.57760E+000	9	...........
	30	0.413333	7.09422E-001	1.01446E-004	0.00000E+000	7.19681E-005	5.99601E-002	7.09673E-001	3.57760E+000	9	...........
	31	0.426667	7.19958E-001	1.00347E-004	0.00000E+000	7.22455E-005	5.99601E-002	7.20195E-001	3.57760E+000	9	...........
	32	0.44	7.30221E-001	1.00967E-004	0.00000E+000	7.37281E-005	5.99601E-002	7.30443E-001	3.57760E+000	9	...........
	33	0.453333	7.40261E-001	1.00766E-004	0.00000E+000	7.45930E-005	5.99601E-002	7.40483E-001	3.57760E+000	9	...........
	34	0.466667	7.50091E-001	1.00836E-004	0.00000E+000	7.56358E-005	5.99601E-002	7.50309E-001	3.57760E+000	9	...........
	35	0.48	7.59672E-001	1.01512E-004	0.00000E+000	7.71156E-005	5.99601E-002	7.59911E-001	3.57760E+000	9	...........
	36	0.493333	7.69032E-001	1.01644E-004	0.00000E+000	7.81675E-005	5.99601E-002	7.69287E-001	3.57760E+000	9	...........
	37	0.506667	7.78187E-001	1.02365E-004	0.00000E+000	7.96591E-005	5.99601E-002	7.78419E-001	3.57760E+000	9	...........
	38	0.52	7.87101E-001	1.01010E-004	0.00000E+000	7.95047E-005	5.99601E-002	7.87336E-001	3.57760E+000	9	...........
	39	0.533333	7.95836E-001	1.02843E-004	0.00000E+000	8.18463E-005	5.99601E-002	7.96065E-001	3.57760E+000	9	...........
	40	0.546667	8.04296E-001	1.00851E-004	0.00000E+000	8.11142E-005	5.99601E-002	8.04517E-001	3.57760E+000	9	...........
	41	0.56	8.12532E-001	1.01303E-004	0.00000E+000	8.23122E-005	5.99601E-002	8.12815E-001	3.57760E+000	9	...........
	42	0.573333	8.20613E-001	1.01101E-004	0.00000E+000	8.29650E-005	5.99601E-002	8.20875E-001	3.57760E+000	9	...........
	43	0.586667	8.28418E-001	1.00116E-004	0.00000E+000	8.29375E-005	5.99601E-002	8.28722E-001	3.57760E+000	9	...........
	44	0.6	8.36050E-001	1.00569E-004	0.00000E+000	8.40806E-005	5.99601E-002	8.36348E-001	3.57760E+000	9	...........
	45	0.613333	8.43459E-001	1.01806E-004	0.00000E+000	8.58688E-005	5.99601E-002	8.43793E-001	3.57760E+000	9	...........
	46	0.626667	8.50656E-001	1.01145E-004	0.00000E+000	8.60395E-005	5.99601E-002	8.51014E-001	3.57760E+000	9	...........
	47	0.64	8.57670E-001	1.01465E-004	0.00000E+000	8.70233E-005	5.99601E-002	8.58017E-001	3.57760E+000	9	...........
	48	0.653333	8.64466E-001	1.00752E-004	0.00000E+000	8.70968E-005	5.99601E-002	8.64812E-001	3.57760E+000	9	...........
	49	0.666667	8.71087E-001	1.01370E-004	0.00000E+000	8.83021E-005	5.99601E-002	8.71441E-001	3.57760E+000	9	...........
	50	0.68	8.77491E-001	1.00800E-004	0.00000E+000	8.84512E-005	5.99601E-002	8.77833E-001	3.57760E+000	9	...........
	51	0.693333	8.83697E-001	1.02081E-004	0.00000E+000	9.02083E-005	5.99601E-002	8.84034E-001	3.57760E+000	9	...........
	52	0.706667	8.89727E-001	1.01988E-004	0.00000E+000	9.07413E-005	5.99601E-002	8.90055E-001	3.57760E+000	9	...........
	53	0.72	8.95586E-001	1.00853E-004	0.00000E+000	9.03228E-005	5.99601E-002	8.95927E-001	3.57760E+000	9	...........
	54	0.733333	9.01233E-001	1.01726E-004	0.00000E+000	9.16791E-005	5.99601E-002	9.01564E-001	3.57760E+000	9	...........
	55	0.746667	9.06715E-001	9.99385E-005	0.00000E+000	9.06157E-005	5.99601E-002	9.07079E-001	3.57760E+000	9	...........
	56	0.76	9.12082E-001	1.01572E-004	0.00000E+000	9.26421E-005	5.99601E-002	9.12415E-001	3.57760E+000	9	...........
	57	0.773333	9.17284E-001	1.00195E-004	0.00000E+000	9.19071E-005	5.99601E-002	9.17627E-001	3.57760E+000	9	...........
	58	0.786667	9.22399E-001	1.00801E-004	0.00000E+000	9.29788E-005	5.99601E-002	9.22692E-001	3.57760E+000	9	...........
	59	0.8	9.27312E-001	1.01499E-004	0.00000E+000	9.41214E-005	5.99601E-002	9.27620E-001	3.57760E+000	9	...........
	60	0.813333	9.32127E-001	1.01865E-004	0.00000E+000	9.49510E-005	5.99601E-002	9.32424E-001	3.57760E+000	9	...........
	61	0.826667	9.36800E-001	1.00803E-004	0.00000E+000	9.44325E-005	5.99601E-002	9.37140E-001	3.57760E+000	9	...........
	62	0.84	9.41384E-001	1.00648E-004	0.00000E+000	9.47484E-005	5.99601E-002	9.41705E-001	3.57760E+000	9	...........
	63	0.853333	9.45860E-001	1.00919E-004	0.00000E+000	9.54551E-005	5.99601E-002	9.46200E-001	3.57760E+000	9	...........
	64	0.866667	9.50250E-001	1.01680E-004	0.00000E+000	9.66219E-005	5.99601E-002	9.50604E-001	3.57760E+000	9	...........
	65	0.88	9.54553E-001	1.00555E-004	0.00000E+000	9.59853E-005	5.99601E-002	9.54899E-001	3.57760E+000	9	...........
	66	0.893333	9.58767E-001	1.00659E-004	0.00000E+000	9.65090E-005	5.99601E-002	9.59116E-001	3.57760E+000	9	...........
	67	0.906667	9.62879E-001	1.00951E-004	0.00000E+000	9.72037E-005	5.99601E-002	9.63265E-001	3.57760E+000	9	...........
	68	0.92	9.66929E-001	1.01198E-004	0.00000E+000	9.78513E-005	5.99601E-002	9.67290E-001	3.57760E+000	9	...........
	69	0.933333	9.70892E-001	1.01425E-004	0.00000E+000	9.84729E-005	5.99601E-002	9.71290E-001	3.57760E+000	9	...........
	70	0.946667	9.74823E-001	1.01641E-004	0.00000E+000	9.90819E-005	5.99601E-002	9.75183E-001	3.57760E+000	9	...........
	71	0.96	9.78639E-001	1.00915E-004	0.00000E+000	9.87591E-005	5.99601E-002	9.79000E-001	3.57760E+000	9	...........
	72	0.97333	9.82363E-001	1.00888E-004	0.00000E+000	9.91083E-005	5.99601E-002	9.82730E-001	3.57760E+000	9	...........
	73	0.98667	9.85995E-001	1.00790E-004	0.00000E+000	9.93781E-005	5.99601E-002	9.86399E-001	3.57760E+000	9	...........
	74	1	9.89598E-001	1.01040E-004	0.00000E+000	9.99888E-005	5.99601E-002	9.89947E-001	3.57760E+000	9	...........
	75	1.01333	9.93056E-001	1.00018E-004	0.00000E+000	9.93231E-005	5.99601E-002	9.93425E-001	3.57760E+000	9	...........
	76	1.02667	9.96480E-001	1.01352E-004	0.00000E+000	1.00996E-004	5.99601E-002	9.96829E-001	3.57760E+000	9	...........
	77	1.03667	9.99399E-001	1.01652E-004	0.00000E+000	1.01591E-004	5.99601E-002	9.99754E-001	3.57760E+000	9	...........
STARTTIMEOFFSET	QUANT	448.3651	Start Time Offset (s)
