EXPLAIN
TAG	PWR800_CHARGE
TITLE	LABEL	PWR Cyclic Charge Discharge (Cell) - Charge Step	Test &Identifier
DATE	LABEL	12-7-2017	Date
TIME	LABEL	16:46:30	Time
NOTES	NOTES	2	&Notes...
	supercap test cell
	6M KOH
PSTAT	PSTAT	IFC5000-01520	Potentiostat
CAPACITY	QUANT	1.00000E-003	Capacity (A-hr)
CELLTYPE	SELECTOR	1	&Cell Type
WORKINGCONNECTION	SELECTOR	0	&Working Lead
MAXCHARGETIME	VARIABLEANDUNITS	1.00000E+002	s	1.00000E+002	second(s)	Max &Charge Time
CHARGECURRENT	QUANT	1.00000E-004	&Charge Current (A) 
VOLTAGEFINISH	TWOPARAM	F	1.00000E-003	3.60000E+003	&Voltage Finish	 I (A) < 	Max Time(s)
SAMPLETIME	QUANT	1.00000E-002	Sa&mple Period (s)
CHARGESTOPAT1	MULTIPARAM	4	1.00000E+000	Charge Stop At &1	Voltage > Limit	V
CHARGESTOPAT2	MULTIPARAM	0	0.00000E+000	Charge Stop At &2	None	N/A
AESBHCSELECTOR	TOGGLE	F	Save Both Half Cells
IRCOMP	TOGGLE	F	IR &Measure
EOC	QUANT	0	Open Circuit (V)
SEQUENCER	TOGGLE	TRUE	Run as Sequence
PSTATMODEL	IQUANT	53	Pstat Model
PSTATSECTION	LABEL	IFC5000-01520	Pstat Section
PSTATSERIALNO	LABEL	01520	Pstat Serial Number
CTRLMODE	IQUANT	0	Control Mode
ELECTROMETER	IQUANT	1	RE=0 or CS=1
IESTAB	IQUANT	0	I/E Stability
CASPEED	IQUANT	4	Control Amp Speed
CONVENTION	IQUANT	1	Current Convention
ICHRANGE	IQUANT	2	Ich Range
ICHRANGEMODE	TOGGLE	T	Ich Auto Range
ICHOFFSETENABLE	TOGGLE	F	Ich Offset Enable
ICHOFFSET	QUANT	0	Ich Offset (V)
ICHFILTER	IQUANT	1	Ich Filter
VCHRANGE	IQUANT	2	Vch Range
VCHRANGEMODE	TOGGLE	T	Vch Auto Range
VCHOFFSETENABLE	TOGGLE	F	Vch Offset Enable
VCHOFFSET	QUANT	0	Vch Offset (V)
VCHFILTER	IQUANT	1	Vch Filter
IERANGELOWERLIMIT	IQUANT	9	I/E Range Lower Limit
IERANGEMODE	TOGGLE	F	I/E AutoRange
IERANGE	IQUANT	9	I/E Range
ACHSELECT	IQUANT	1	Ach Select
ACHRANGE	IQUANT	2	Ach Range
ACHOFFSETENABLE	TOGGLE	F	Ach Offset Enable
ACHOFFSET	QUANT	0	Ach Offset (V)
ACHFILTER	IQUANT	1	Ach Filter
CABLEID	IQUANT	14	Cable ID
DCCALDATE	LABEL	5-7-2017	DC Calibration Date
ACCALDATE	LABEL	12/3/2015	AC Calibration Date
FRAMEWORKVERSION	QUANT	7.01	Framework Version
INSTRUMENTVERSION	LABEL	4.00	Instrument Version
CURVE	TABLE	75
	Pt	T	Vf	Im	Vu	Pwr	Sig	Ach	Temp	IERange	Over
	#	s	V	A	V	W	V	V	deg C	#	bits
	0	0.013333	2.56821E-001	1.01364E-004	0.00000E+000	2.60323E-005	5.99601E-002	2.56894E-001	3.57650E+000	9	...........
	1	0.026667	2.79918E-001	1.01625E-004	0.00000E+000	2.84468E-005	5.99601E-002	2.79982E-001	3.57650E+000	9	...........
	2	0.04	3.01772E-001	1.00916E-004	0.00000E+000	3.04535E-005	5.99601E-002	3.01836E-001	3.57650E+000	9	...........
	3	0.053333	3.22728E-001	1.01387E-004	0.00000E+000	3.27204E-005	5.99601E-002	3.22800E-001	3.57650E+000	9	...........
	4	0.066667	3.42964E-001	1.02543E-004	0.00000E+000	3.51686E-005	5.99601E-002	3.43036E-001	3.57650E+000	9	...........
	5	0.08	3.62594E-001	1.00271E-004	0.00000E+000	3.63576E-005	5.99601E-002	3.62665E-001	3.57650E+000	9	...........
	6	0.093333	3.81694E-001	1.01113E-004	0.00000E+000	3.85941E-005	5.99601E-002	3.81778E-001	3.57650E+000	9	...........
	7	0.106667	4.00326E-001	1.01630E-004	0.00000E+000	4.06853E-005	5.99601E-002	4.00407E-001	3.57650E+000	9	...........
	8	0.12	4.18518E-001	1.01335E-004	0.00000E+000	4.24103E-005	5.99601E-002	4.18606E-001	3.57650E+000	9	...........
	9	0.133333	4.36305E-001	1.02094E-004	0.00000E+000	4.45441E-005	5.99601E-002	4.36407E-001	3.57650E+000	9	...........
	10	0.146667	4.53689E-001	1.00696E-004	0.00000E+000	4.56847E-005	5.99601E-002	4.53785E-001	3.57650E+000	9	...........
	11	0.16	4.70698E-001	1.00916E-004	0.00000E+000	4.75008E-005	5.99601E-002	4.70796E-001	3.57650E+000	9	...........
	12	0.173333	4.87346E-001	1.01136E-004	0.00000E+000	4.92880E-005	5.99601E-002	4.87450E-001	3.57650E+000	9	...........
	13	0.186667	5.03619E-001	1.00874E-004	0.00000E+000	5.08021E-005	5.99601E-002	5.03726E-001	3.57650E+000	9	...........
	14	0.2	5.19551E-001	1.01173E-004	0.00000E+000	5.25646E-005	5.99601E-002	5.19660E-001	3.57650E+000	9	...........
	15	0.213333	5.34971E-001	1.00845E-004	0.00000E+000	5.39491E-005	5.99601E-002	5.35136E-001	3.57650E+000	9	...........
	16	0.226667	5.50092E-001	1.00063E-004	0.00000E+000	5.50441E-005	5.99601E-002	5.50292E-001	3.57650E+000	9	...........
	17	0.24	5.64991E-001	1.01117E-004	0.00000E+000	5.71301E-005	5.99601E-002	5.65202E-001	3.57650E+000	9	...........
	18	0.253333	5.79531E-001	1.00533E-004	0.00000E+000	5.82622E-005	5.99601E-002	5.79760E-001	3.57650E+000	9	...........
	19	0.266667	5.93762E-001	1.01446E-004	0.00000E+000	6.02348E-005	5.99601E-002	5.93992E-001	3.57650E+000	9	...........
	20	0.28	6.07620E-001	1.01638E-004	0.00000E+000	6.17571E-005	5.99601E-002	6.07897E-001	3.57650E+000	9	...........
	21	0.293333	6.21257E-001	1.01108E-004	0.00000E+000	6.28144E-005	5.99601E-002	6.21481E-001	3.57650E+000	9	...........
	22	0.306667	6.34466E-001	1.02748E-004	0.00000E+000	6.51904E-005	5.99601E-002	6.34733E-001	3.57650E+000	9	...........
	23	0.32	6.47403E-001	1.00181E-004	0.00000E+000	6.48576E-005	5.99601E-002	6.47664E-001	3.57650E+000	9	...........
	24	0.333333	6.60018E-001	1.00822E-004	0.00000E+000	6.65443E-005	5.99601E-002	6.60258E-001	3.57650E+000	9	...........
	25	0.346667	6.72339E-001	1.00148E-004	0.00000E+000	6.73333E-005	5.99601E-002	6.72575E-001	3.57650E+000	9	...........
	26	0.36	6.84296E-001	1.00559E-004	0.00000E+000	6.88124E-005	5.99601E-002	6.84503E-001	3.57650E+000	9	...........
	27	0.373333	6.95979E-001	1.01123E-004	0.00000E+000	7.03795E-005	5.99601E-002	6.96192E-001	3.57650E+000	9	...........
	28	0.386667	7.07312E-001	1.00925E-004	0.00000E+000	7.13855E-005	5.99601E-002	7.07570E-001	3.57650E+000	9	...........
	29	0.4	7.18419E-001	1.00004E-004	0.00000E+000	7.18449E-005	5.99601E-002	7.18634E-001	3.57650E+000	9	...........
	30	0.413333	7.29177E-001	1.02397E-004	0.00000E+000	7.46658E-005	5.99601E-002	7.29416E-001	3.57650E+000	9	...........
	31	0.426667	7.39662E-001	1.01205E-004	0.00000E+000	7.48578E-005	5.99601E-002	7.39905E-001	3.57650E+000	9	...........
	32	0.44	7.49865E-001	1.00507E-004	0.00000E+000	7.53669E-005	5.99601E-002	7.50115E-001	3.57650E+000	9	...........
	33	0.453333	7.59780E-001	9.96926E-005	0.00000E+000	7.57444E-005	5.99601E-002	7.60012E-001	3.57650E+000	9	...........
	34	0.466667	7.69435E-001	1.00515E-004	0.00000E+000	7.73394E-005	5.99601E-002	7.69682E-001	3.57650E+000	9	...........
	35	0.48	7.78789E-001	1.01924E-004	0.00000E+000	7.93775E-005	5.99601E-002	7.79027E-001	3.57650E+000	9	...........
	36	0.493333	7.87890E-001	1.00878E-004	0.00000E+000	7.94810E-005	5.99601E-002	7.88107E-001	3.57650E+000	9	...........
	37	0.506667	7.96711E-001	1.00011E-004	0.00000E+000	7.96802E-005	5.99601E-002	7.96950E-001	3.57650E+000	9	...........
	38	0.52	8.05244E-001	1.00505E-004	0.00000E+000	8.09312E-005	5.99601E-002	8.05477E-001	3.57650E+000	9	...........
	39	0.533333	8.13528E-001	1.01505E-004	0.00000E+000	8.25776E-005	5.99601E-002	8.13785E-001	3.57650E+000	9	...........
	40	0.546667	8.21568E-001	1.01744E-004	0.00000E+000	8.35896E-005	5.99601E-002	8.21853E-001	3.57650E+000	9	...........
	41	0.56	8.29342E-001	1.01351E-004	0.00000E+000	8.40548E-005	5.99601E-002	8.29613E-001	3.57650E+000	9	...........
	42	0.573333	8.36862E-001	1.00817E-004	0.00000E+000	8.43697E-005	5.99601E-002	8.37135E-001	3.57650E+000	9	...........
	43	0.586667	8.44165E-001	1.01042E-004	0.00000E+000	8.52959E-005	5.99601E-002	8.44438E-001	3.57650E+000	9	...........
	44	0.6	8.51243E-001	1.00956E-004	0.00000E+000	8.59385E-005	5.99601E-002	8.51518E-001	3.57650E+000	9	...........
	45	0.613333	8.58086E-001	9.99937E-005	0.00000E+000	8.58032E-005	5.99601E-002	8.58378E-001	3.57650E+000	9	...........
	46	0.626667	8.64725E-001	1.02505E-004	0.00000E+000	8.86383E-005	5.99601E-002	8.65019E-001	3.57650E+000	9	...........
	47	0.64	8.71177E-001	1.00563E-004	0.00000E+000	8.76078E-005	5.99601E-002	8.71489E-001	3.57650E+000	9	...........
	48	0.653333	8.77429E-001	9.99395E-005	0.00000E+000	8.76899E-005	5.99601E-002	8.77741E-001	3.57650E+000	9	...........
	49	0.666667	8.83488E-001	1.01005E-004	0.00000E+000	8.92370E-005	5.99601E-002	8.83817E-001	3.57650E+000	9	...........
	50	0.68	8.89385E-001	1.02006E-004	0.00000E+000	9.07222E-005	5.99601E-002	8.89733E-001	3.57650E+000	9	...........
	51	0.693333	8.95144E-001	1.00689E-004	0.00000E+000	9.01308E-005	5.99601E-002	8.95484E-001	3.57650E+000	9	...........
	52	0.706667	9.00751E-001	1.00801E-004	0.00000E+000	9.07967E-005	5.99601E-002	9.01077E-001	3.57650E+000	9	...........
	53	0.72	9.06235E-001	1.00791E-004	0.00000E+000	9.13401E-005	5.99601E-002	9.06579E-001	3.57650E+000	9	...........
	54	0.733333	9.11605E-001	1.00278E-004	0.00000E+000	9.14140E-005	5.99601E-002	9.11924E-001	3.57650E+000	9	...........
	55	0.746667	9.16849E-001	1.02093E-004	0.00000E+000	9.36039E-005	5.99601E-002	9.17188E-001	3.57650E+000	9	...........
	56	0.76	9.22051E-001	1.00265E-004	0.00000E+000	9.24490E-005	5.99601E-002	9.22339E-001	3.57650E+000	9	...........
	57	0.773333	9.27109E-001	1.01343E-004	0.00000E+000	9.39559E-005	5.99601E-002	9.27425E-001	3.57650E+000	9	...........
	58	0.786667	9.32056E-001	1.00666E-004	0.00000E+000	9.38261E-005	5.99601E-002	9.32359E-001	3.57650E+000	9	...........
	59	0.8	9.36928E-001	1.01121E-004	0.00000E+000	9.47431E-005	5.99601E-002	9.37269E-001	3.57650E+000	9	...........
	60	0.813333	9.41753E-001	1.00222E-004	0.00000E+000	9.43842E-005	5.99601E-002	9.42051E-001	3.57650E+000	9	...........
	61	0.826667	9.46477E-001	1.00694E-004	0.00000E+000	9.53044E-005	5.99601E-002	9.46795E-001	3.57650E+000	9	...........
	62	0.84	9.51135E-001	1.01002E-004	0.00000E+000	9.60668E-005	5.99601E-002	9.51460E-001	3.57650E+000	9	...........
	63	0.853333	9.55693E-001	1.01735E-004	0.00000E+000	9.72272E-005	5.99601E-002	9.56029E-001	3.57650E+000	9	...........
	64	0.866667	9.60185E-001	1.00479E-004	0.00000E+000	9.64786E-005	5.99601E-002	9.60530E-001	3.57650E+000	9	...........
	65	0.88	9.64583E-001	1.00368E-004	0.00000E+000	9.68130E-005	5.99601E-002	9.64940E-001	3.57650E+000	9	...........
	66	0.893333	9.68922E-001	9.94279E-005	0.00000E+000	9.63379E-005	5.99601E-002	9.69273E-001	3.57650E+000	9	...........
	67	0.906667	9.73206E-001	1.00718E-004	0.00000E+000	9.80192E-005	5.99601E-002	9.73571E-001	3.57772E+000	9	...........
	68	0.92	9.77450E-001	1.00264E-004	0.00000E+000	9.80026E-005	5.99601E-002	9.77769E-001	3.57790E+000	9	...........
	69	0.933333	9.81520E-001	1.01201E-004	0.00000E+000	9.93311E-005	5.99601E-002	9.81851E-001	3.57790E+000	9	...........
	70	0.946667	9.85538E-001	1.01239E-004	0.00000E+000	9.97746E-005	5.99601E-002	9.85881E-001	3.57790E+000	9	...........
	71	0.96	9.89492E-001	1.00236E-004	0.00000E+000	9.91832E-005	5.99601E-002	9.89812E-001	3.57790E+000	9	...........
	72	0.97333	9.93341E-001	9.97863E-005	0.00000E+000	9.91219E-005	5.99601E-002	9.93666E-001	3.57790E+000	9	...........
	73	0.98667	9.97145E-001	1.00830E-004	0.00000E+000	1.00542E-004	5.99601E-002	9.97454E-001	3.57790E+000	9	...........
	74	0.99167	9.99696E-001	1.01540E-004	0.00000E+000	1.01509E-004	5.99601E-002	1.00003E+000	3.57790E+000	9	...........
STARTTIMEOFFSET	QUANT	1554.514	Start Time Offset (s)
