EXPLAIN
TAG	PWR800_CHARGE
TITLE	LABEL	PWR Cyclic Charge Discharge (Cell) - Charge Step	Test &Identifier
DATE	LABEL	12-7-2017	Date
TIME	LABEL	16:19:23	Time
NOTES	NOTES	2	&Notes...
	supercap test cell
	6M KOH
PSTAT	PSTAT	IFC5000-01520	Potentiostat
CAPACITY	QUANT	1.00000E-003	Capacity (A-hr)
CELLTYPE	SELECTOR	1	&Cell Type
WORKINGCONNECTION	SELECTOR	0	&Working Lead
MAXCHARGETIME	VARIABLEANDUNITS	1.00000E+002	s	1.00000E+002	second(s)	Max &Charge Time
CHARGECURRENT	QUANT	1.00000E-004	&Charge Current (A) 
VOLTAGEFINISH	TWOPARAM	F	1.00000E-003	3.60000E+003	&Voltage Finish	 I (A) < 	Max Time(s)
SAMPLETIME	QUANT	1.00000E-002	Sa&mple Period (s)
CHARGESTOPAT1	MULTIPARAM	4	1.00000E+000	Charge Stop At &1	Voltage > Limit	V
CHARGESTOPAT2	MULTIPARAM	0	0.00000E+000	Charge Stop At &2	None	N/A
AESBHCSELECTOR	TOGGLE	F	Save Both Half Cells
IRCOMP	TOGGLE	F	IR &Measure
EOC	QUANT	0	Open Circuit (V)
SEQUENCER	TOGGLE	TRUE	Run as Sequence
PSTATMODEL	IQUANT	53	Pstat Model
PSTATSECTION	LABEL	IFC5000-01520	Pstat Section
PSTATSERIALNO	LABEL	01520	Pstat Serial Number
CTRLMODE	IQUANT	0	Control Mode
ELECTROMETER	IQUANT	1	RE=0 or CS=1
IESTAB	IQUANT	0	I/E Stability
CASPEED	IQUANT	4	Control Amp Speed
CONVENTION	IQUANT	1	Current Convention
ICHRANGE	IQUANT	2	Ich Range
ICHRANGEMODE	TOGGLE	T	Ich Auto Range
ICHOFFSETENABLE	TOGGLE	F	Ich Offset Enable
ICHOFFSET	QUANT	0	Ich Offset (V)
ICHFILTER	IQUANT	1	Ich Filter
VCHRANGE	IQUANT	2	Vch Range
VCHRANGEMODE	TOGGLE	T	Vch Auto Range
VCHOFFSETENABLE	TOGGLE	F	Vch Offset Enable
VCHOFFSET	QUANT	0	Vch Offset (V)
VCHFILTER	IQUANT	1	Vch Filter
IERANGELOWERLIMIT	IQUANT	9	I/E Range Lower Limit
IERANGEMODE	TOGGLE	F	I/E AutoRange
IERANGE	IQUANT	9	I/E Range
ACHSELECT	IQUANT	1	Ach Select
ACHRANGE	IQUANT	2	Ach Range
ACHOFFSETENABLE	TOGGLE	F	Ach Offset Enable
ACHOFFSET	QUANT	0	Ach Offset (V)
ACHFILTER	IQUANT	1	Ach Filter
CABLEID	IQUANT	14	Cable ID
DCCALDATE	LABEL	5-7-2017	DC Calibration Date
ACCALDATE	LABEL	12/3/2015	AC Calibration Date
FRAMEWORKVERSION	QUANT	7.01	Framework Version
INSTRUMENTVERSION	LABEL	4.00	Instrument Version
CURVE	TABLE	78
	Pt	T	Vf	Im	Vu	Pwr	Sig	Ach	Temp	IERange	Over
	#	s	V	A	V	W	V	V	deg C	#	bits
	0	0.013333	2.62581E-001	1.00729E-004	0.00000E+000	2.64495E-005	5.99601E-002	2.62662E-001	3.57700E+000	9	...........
	1	0.026667	2.85278E-001	1.00980E-004	0.00000E+000	2.88075E-005	5.99601E-002	2.85343E-001	3.57700E+000	9	...........
	2	0.04	3.06472E-001	1.00410E-004	0.00000E+000	3.07730E-005	5.99601E-002	3.06538E-001	3.57700E+000	9	...........
	3	0.053333	3.26551E-001	1.00878E-004	0.00000E+000	3.29419E-005	5.99601E-002	3.26624E-001	3.57700E+000	9	...........
	4	0.066667	3.45751E-001	1.01164E-004	0.00000E+000	3.49775E-005	5.99601E-002	3.45824E-001	3.57700E+000	9	...........
	5	0.08	3.64213E-001	1.01973E-004	0.00000E+000	3.71399E-005	5.99601E-002	3.64292E-001	3.57700E+000	9	...........
	6	0.093333	3.82049E-001	1.00868E-004	0.00000E+000	3.85365E-005	5.99601E-002	3.82127E-001	3.57700E+000	9	...........
	7	0.106667	3.99341E-001	1.00598E-004	0.00000E+000	4.01729E-005	5.99601E-002	3.99421E-001	3.57700E+000	9	...........
	8	0.12	4.16139E-001	1.02177E-004	0.00000E+000	4.25201E-005	5.99601E-002	4.16228E-001	3.57700E+000	9	...........
	9	0.133333	4.32501E-001	1.01826E-004	0.00000E+000	4.40400E-005	5.99601E-002	4.32594E-001	3.57700E+000	9	...........
	10	0.146667	4.48462E-001	1.01072E-004	0.00000E+000	4.53269E-005	5.99601E-002	4.48556E-001	3.57700E+000	9	...........
	11	0.16	4.64043E-001	1.00425E-004	0.00000E+000	4.66016E-005	5.99601E-002	4.64143E-001	3.57700E+000	9	...........
	12	0.173333	4.79277E-001	1.01284E-004	0.00000E+000	4.85429E-005	5.99601E-002	4.79377E-001	3.57700E+000	9	...........
	13	0.186667	4.94173E-001	1.01317E-004	0.00000E+000	5.00681E-005	5.99601E-002	4.94287E-001	3.57700E+000	9	...........
	14	0.2	5.08766E-001	1.01475E-004	0.00000E+000	5.16272E-005	5.99601E-002	5.08885E-001	3.57700E+000	9	...........
	15	0.213333	5.23070E-001	1.01518E-004	0.00000E+000	5.31010E-005	5.99601E-002	5.23178E-001	3.57700E+000	9	...........
	16	0.226667	5.36879E-001	1.01861E-004	0.00000E+000	5.46869E-005	5.99601E-002	5.37044E-001	3.57700E+000	9	...........
	17	0.24	5.50505E-001	1.00289E-004	0.00000E+000	5.52093E-005	5.99601E-002	5.50752E-001	3.57700E+000	9	...........
	18	0.253333	5.64002E-001	1.00958E-004	0.00000E+000	5.69408E-005	5.99601E-002	5.64261E-001	3.57700E+000	9	...........
	19	0.266667	5.77224E-001	1.00997E-004	0.00000E+000	5.82979E-005	5.99601E-002	5.77460E-001	3.57700E+000	9	...........
	20	0.28	5.90197E-001	1.00842E-004	0.00000E+000	5.95165E-005	5.99601E-002	5.90471E-001	3.57700E+000	9	...........
	21	0.293333	6.02907E-001	1.02287E-004	0.00000E+000	6.16694E-005	5.99601E-002	6.03191E-001	3.57700E+000	9	...........
	22	0.306667	6.15424E-001	1.00566E-004	0.00000E+000	6.18905E-005	5.99601E-002	6.15697E-001	3.57700E+000	9	...........
	23	0.32	6.27718E-001	1.01063E-004	0.00000E+000	6.34389E-005	5.99601E-002	6.27949E-001	3.57700E+000	9	...........
	24	0.333333	6.39735E-001	1.00259E-004	0.00000E+000	6.41395E-005	5.99601E-002	6.39982E-001	3.57700E+000	9	...........
	25	0.346667	6.51572E-001	1.00419E-004	0.00000E+000	6.54301E-005	5.99601E-002	6.51787E-001	3.57700E+000	9	...........
	26	0.36	6.63145E-001	1.01409E-004	0.00000E+000	6.72486E-005	5.99601E-002	6.63378E-001	3.57700E+000	9	...........
	27	0.373333	6.74521E-001	1.01423E-004	0.00000E+000	6.84120E-005	5.99601E-002	6.74749E-001	3.57700E+000	9	...........
	28	0.386667	6.85629E-001	1.00144E-004	0.00000E+000	6.86614E-005	5.99601E-002	6.85863E-001	3.57700E+000	9	...........
	29	0.4	6.96545E-001	1.01593E-004	0.00000E+000	7.07641E-005	5.99601E-002	6.96788E-001	3.57700E+000	9	...........
	30	0.413333	7.07244E-001	1.00548E-004	0.00000E+000	7.11119E-005	5.99601E-002	7.07479E-001	3.57700E+000	9	...........
	31	0.426667	7.17729E-001	1.01409E-004	0.00000E+000	7.27839E-005	5.99601E-002	7.17973E-001	3.57700E+000	9	...........
	32	0.44	7.27989E-001	1.01310E-004	0.00000E+000	7.37523E-005	5.99601E-002	7.28231E-001	3.57700E+000	9	...........
	33	0.453333	7.38004E-001	1.00766E-004	0.00000E+000	7.43655E-005	5.99601E-002	7.38263E-001	3.57700E+000	9	...........
	34	0.466667	7.47833E-001	1.01841E-004	0.00000E+000	7.61600E-005	5.99601E-002	7.48089E-001	3.57700E+000	9	...........
	35	0.48	7.57424E-001	1.00997E-004	0.00000E+000	7.64975E-005	5.99601E-002	7.57687E-001	3.57700E+000	9	...........
	36	0.493333	7.66792E-001	1.00137E-004	0.00000E+000	7.67846E-005	5.99601E-002	7.67069E-001	3.57700E+000	9	...........
	37	0.506667	7.75944E-001	1.01466E-004	0.00000E+000	7.87319E-005	5.99601E-002	7.76205E-001	3.57700E+000	9	...........
	38	0.52	7.84882E-001	1.00373E-004	0.00000E+000	7.87809E-005	5.99601E-002	7.85170E-001	3.57700E+000	9	...........
	39	0.533333	7.93612E-001	1.00508E-004	0.00000E+000	7.97647E-005	5.99601E-002	7.93901E-001	3.57700E+000	9	...........
	40	0.546667	8.02119E-001	1.00615E-004	0.00000E+000	8.07049E-005	5.99601E-002	8.02396E-001	3.57700E+000	9	...........
	41	0.56	8.10397E-001	1.01362E-004	0.00000E+000	8.21432E-005	5.99601E-002	8.10702E-001	3.57700E+000	9	...........
	42	0.573333	8.18475E-001	1.00424E-004	0.00000E+000	8.21945E-005	5.99601E-002	8.18795E-001	3.57700E+000	9	...........
	43	0.586667	8.26338E-001	1.00842E-004	0.00000E+000	8.33294E-005	5.99601E-002	8.26685E-001	3.57700E+000	9	...........
	44	0.6	8.33997E-001	1.00203E-004	0.00000E+000	8.35691E-005	5.99601E-002	8.34335E-001	3.57700E+000	9	...........
	45	0.613333	8.41436E-001	1.00373E-004	0.00000E+000	8.44574E-005	5.99601E-002	8.41798E-001	3.57700E+000	9	...........
	46	0.626667	8.48729E-001	1.00605E-004	0.00000E+000	8.53866E-005	5.99601E-002	8.49074E-001	3.57700E+000	9	...........
	47	0.64	8.55778E-001	1.01032E-004	0.00000E+000	8.64613E-005	5.99601E-002	8.56131E-001	3.57770E+000	9	...........
	48	0.653333	8.62629E-001	1.00602E-004	0.00000E+000	8.67823E-005	5.99601E-002	8.62994E-001	3.57980E+000	9	...........
	49	0.666667	8.69320E-001	1.00020E-004	0.00000E+000	8.69492E-005	5.99601E-002	8.69673E-001	3.57980E+000	9	...........
	50	0.68	8.75789E-001	1.00787E-004	0.00000E+000	8.82677E-005	5.99601E-002	8.76163E-001	3.57980E+000	9	...........
	51	0.693333	8.82077E-001	1.01315E-004	0.00000E+000	8.93675E-005	5.99601E-002	8.82379E-001	3.57980E+000	9	...........
	52	0.706667	8.88170E-001	1.02309E-004	0.00000E+000	9.08675E-005	5.99601E-002	8.88469E-001	3.57980E+000	9	...........
	53	0.72	8.94068E-001	1.01062E-004	0.00000E+000	9.03560E-005	5.99601E-002	8.94395E-001	3.57980E+000	9	...........
	54	0.733333	8.99785E-001	1.01318E-004	0.00000E+000	9.11644E-005	5.99601E-002	9.00113E-001	3.57980E+000	9	...........
	55	0.746667	9.05340E-001	1.00965E-004	0.00000E+000	9.14074E-005	5.99601E-002	9.05707E-001	3.57980E+000	9	...........
	56	0.76	9.10762E-001	1.01551E-004	0.00000E+000	9.24890E-005	5.99601E-002	9.11100E-001	3.57980E+000	9	...........
	57	0.773333	9.15990E-001	1.01163E-004	0.00000E+000	9.26640E-005	5.99601E-002	9.16358E-001	3.57980E+000	9	...........
	58	0.786667	9.21163E-001	1.02160E-004	0.00000E+000	9.41058E-005	5.99601E-002	9.21479E-001	3.57980E+000	9	...........
	59	0.8	9.26139E-001	1.01464E-004	0.00000E+000	9.39695E-005	5.99601E-002	9.26449E-001	3.57980E+000	9	...........
	60	0.813333	9.30977E-001	1.00881E-004	0.00000E+000	9.39182E-005	5.99601E-002	9.31283E-001	3.57980E+000	9	...........
	61	0.826667	9.35699E-001	1.01384E-004	0.00000E+000	9.48644E-005	5.99601E-002	9.36032E-001	3.57980E+000	9	...........
	62	0.84	9.40286E-001	1.01495E-004	0.00000E+000	9.54344E-005	5.99601E-002	9.40631E-001	3.57980E+000	9	...........
	63	0.853333	9.44786E-001	1.01455E-004	0.00000E+000	9.58536E-005	5.99601E-002	9.45138E-001	3.57980E+000	9	...........
	64	0.866667	9.49224E-001	1.00166E-004	0.00000E+000	9.50795E-005	5.99601E-002	9.49558E-001	3.57980E+000	9	...........
	65	0.88	9.53519E-001	1.00676E-004	0.00000E+000	9.59966E-005	5.99601E-002	9.53870E-001	3.57980E+000	9	...........
	66	0.893333	9.57730E-001	1.00927E-004	0.00000E+000	9.66611E-005	5.99601E-002	9.58084E-001	3.57980E+000	9	...........
	67	0.906667	9.61882E-001	1.02083E-004	0.00000E+000	9.81915E-005	5.99601E-002	9.62224E-001	3.57980E+000	9	...........
	68	0.92	9.65913E-001	1.00963E-004	0.00000E+000	9.75212E-005	5.99601E-002	9.66258E-001	3.57980E+000	9	...........
	69	0.933333	9.69890E-001	1.01823E-004	0.00000E+000	9.87573E-005	5.99601E-002	9.70243E-001	3.57980E+000	9	...........
	70	0.946667	9.73806E-001	1.00516E-004	0.00000E+000	9.78828E-005	5.99601E-002	9.74139E-001	3.57980E+000	9	...........
	71	0.96	9.77614E-001	1.00942E-004	0.00000E+000	9.86821E-005	5.99601E-002	9.77956E-001	3.57980E+000	9	...........
	72	0.97333	9.81332E-001	1.00490E-004	0.00000E+000	9.86136E-005	5.99601E-002	9.81687E-001	3.57980E+000	9	...........
	73	0.98667	9.84982E-001	1.01412E-004	0.00000E+000	9.98886E-005	5.99601E-002	9.85327E-001	3.57980E+000	9	...........
	74	1	9.88546E-001	1.01456E-004	0.00000E+000	1.00294E-004	5.99601E-002	9.88922E-001	3.57980E+000	9	...........
	75	1.01333	9.92003E-001	1.01008E-004	0.00000E+000	1.00201E-004	5.99601E-002	9.92367E-001	3.57980E+000	9	...........
	76	1.02667	9.95406E-001	1.01605E-004	0.00000E+000	1.01139E-004	5.99601E-002	9.95780E-001	3.57980E+000	9	...........
	77	1.04	9.98751E-001	1.01070E-004	0.00000E+000	1.00944E-004	5.99601E-002	9.99115E-001	3.57980E+000	9	...........
STARTTIMEOFFSET	QUANT	398.6818	Start Time Offset (s)
