EXPLAIN
TAG	PWR800_CHARGE
TITLE	LABEL	PWR Cyclic Charge Discharge (Cell) - Charge Step	Test &Identifier
DATE	LABEL	12-7-2017	Date
TIME	LABEL	16:19:56	Time
NOTES	NOTES	2	&Notes...
	supercap test cell
	6M KOH
PSTAT	PSTAT	IFC5000-01520	Potentiostat
CAPACITY	QUANT	1.00000E-003	Capacity (A-hr)
CELLTYPE	SELECTOR	1	&Cell Type
WORKINGCONNECTION	SELECTOR	0	&Working Lead
MAXCHARGETIME	VARIABLEANDUNITS	1.00000E+002	s	1.00000E+002	second(s)	Max &Charge Time
CHARGECURRENT	QUANT	1.00000E-004	&Charge Current (A) 
VOLTAGEFINISH	TWOPARAM	F	1.00000E-003	3.60000E+003	&Voltage Finish	 I (A) < 	Max Time(s)
SAMPLETIME	QUANT	1.00000E-002	Sa&mple Period (s)
CHARGESTOPAT1	MULTIPARAM	4	1.00000E+000	Charge Stop At &1	Voltage > Limit	V
CHARGESTOPAT2	MULTIPARAM	0	0.00000E+000	Charge Stop At &2	None	N/A
AESBHCSELECTOR	TOGGLE	F	Save Both Half Cells
IRCOMP	TOGGLE	F	IR &Measure
EOC	QUANT	0	Open Circuit (V)
SEQUENCER	TOGGLE	TRUE	Run as Sequence
PSTATMODEL	IQUANT	53	Pstat Model
PSTATSECTION	LABEL	IFC5000-01520	Pstat Section
PSTATSERIALNO	LABEL	01520	Pstat Serial Number
CTRLMODE	IQUANT	0	Control Mode
ELECTROMETER	IQUANT	1	RE=0 or CS=1
IESTAB	IQUANT	0	I/E Stability
CASPEED	IQUANT	4	Control Amp Speed
CONVENTION	IQUANT	1	Current Convention
ICHRANGE	IQUANT	2	Ich Range
ICHRANGEMODE	TOGGLE	T	Ich Auto Range
ICHOFFSETENABLE	TOGGLE	F	Ich Offset Enable
ICHOFFSET	QUANT	0	Ich Offset (V)
ICHFILTER	IQUANT	1	Ich Filter
VCHRANGE	IQUANT	2	Vch Range
VCHRANGEMODE	TOGGLE	T	Vch Auto Range
VCHOFFSETENABLE	TOGGLE	F	Vch Offset Enable
VCHOFFSET	QUANT	0	Vch Offset (V)
VCHFILTER	IQUANT	1	Vch Filter
IERANGELOWERLIMIT	IQUANT	9	I/E Range Lower Limit
IERANGEMODE	TOGGLE	F	I/E AutoRange
IERANGE	IQUANT	9	I/E Range
ACHSELECT	IQUANT	1	Ach Select
ACHRANGE	IQUANT	2	Ach Range
ACHOFFSETENABLE	TOGGLE	F	Ach Offset Enable
ACHOFFSET	QUANT	0	Ach Offset (V)
ACHFILTER	IQUANT	1	Ach Filter
CABLEID	IQUANT	14	Cable ID
DCCALDATE	LABEL	5-7-2017	DC Calibration Date
ACCALDATE	LABEL	12/3/2015	AC Calibration Date
FRAMEWORKVERSION	QUANT	7.01	Framework Version
INSTRUMENTVERSION	LABEL	4.00	Instrument Version
CURVE	TABLE	78
	Pt	T	Vf	Im	Vu	Pwr	Sig	Ach	Temp	IERange	Over
	#	s	V	A	V	W	V	V	deg C	#	bits
	0	0.013333	2.62072E-001	1.00888E-004	0.00000E+000	2.64398E-005	5.99601E-002	2.62159E-001	3.57690E+000	9	...........
	1	0.026667	2.84809E-001	1.00571E-004	0.00000E+000	2.86435E-005	5.99601E-002	2.84873E-001	3.57690E+000	9	...........
	2	0.04	3.06041E-001	1.00820E-004	0.00000E+000	3.08551E-005	5.99601E-002	3.06112E-001	3.57690E+000	9	...........
	3	0.053333	3.26187E-001	1.00457E-004	0.00000E+000	3.27678E-005	5.99601E-002	3.26259E-001	3.57690E+000	9	...........
	4	0.066667	3.45445E-001	1.00131E-004	0.00000E+000	3.45898E-005	5.99601E-002	3.45512E-001	3.57690E+000	9	...........
	5	0.08	3.63966E-001	1.01414E-004	0.00000E+000	3.69112E-005	5.99601E-002	3.64042E-001	3.57690E+000	9	...........
	6	0.093333	3.81864E-001	1.00527E-004	0.00000E+000	3.83877E-005	5.99601E-002	3.81941E-001	3.57690E+000	9	...........
	7	0.106667	3.99227E-001	1.01701E-004	0.00000E+000	4.06019E-005	5.99601E-002	3.99310E-001	3.57690E+000	9	...........
	8	0.12	4.16100E-001	1.00981E-004	0.00000E+000	4.20184E-005	5.99601E-002	4.16191E-001	3.57690E+000	9	...........
	9	0.133333	4.32535E-001	1.00672E-004	0.00000E+000	4.35441E-005	5.99601E-002	4.32630E-001	3.57690E+000	9	...........
	10	0.146667	4.48561E-001	1.00798E-004	0.00000E+000	4.52140E-005	5.99601E-002	4.48659E-001	3.57690E+000	9	...........
	11	0.16	4.64212E-001	1.01058E-004	0.00000E+000	4.69126E-005	5.99601E-002	4.64312E-001	3.57690E+000	9	...........
	12	0.173333	4.79516E-001	1.00138E-004	0.00000E+000	4.80180E-005	5.99601E-002	4.79616E-001	3.57690E+000	9	...........
	13	0.186667	4.94486E-001	1.00493E-004	0.00000E+000	4.96923E-005	5.99601E-002	4.94592E-001	3.57690E+000	9	...........
	14	0.2	5.09149E-001	1.01218E-004	0.00000E+000	5.15350E-005	5.99601E-002	5.09258E-001	3.57690E+000	9	...........
	15	0.213333	5.23511E-001	1.01514E-004	0.00000E+000	5.31435E-005	5.99601E-002	5.23625E-001	3.57705E+000	9	...........
	16	0.226667	5.37369E-001	1.00625E-004	0.00000E+000	5.40728E-005	5.99601E-002	5.37553E-001	3.57730E+000	9	...........
	17	0.24	5.51093E-001	1.01362E-004	0.00000E+000	5.58597E-005	5.99601E-002	5.51310E-001	3.57730E+000	9	...........
	18	0.253333	5.64623E-001	1.01696E-004	0.00000E+000	5.74199E-005	5.99601E-002	5.64864E-001	3.57730E+000	9	...........
	19	0.266667	5.77928E-001	1.00808E-004	0.00000E+000	5.82600E-005	5.99601E-002	5.78148E-001	3.57730E+000	9	...........
	20	0.28	5.90941E-001	1.01809E-004	0.00000E+000	6.01629E-005	5.99601E-002	5.91195E-001	3.57730E+000	9	...........
	21	0.293333	6.03705E-001	1.00598E-004	0.00000E+000	6.07315E-005	5.99601E-002	6.03983E-001	3.57730E+000	9	...........
	22	0.306667	6.16295E-001	1.00689E-004	0.00000E+000	6.20539E-005	5.99601E-002	6.16536E-001	3.57730E+000	9	...........
	23	0.32	6.28589E-001	1.01231E-004	0.00000E+000	6.36329E-005	5.99601E-002	6.28851E-001	3.57730E+000	9	...........
	24	0.333333	6.40662E-001	1.01518E-004	0.00000E+000	6.50387E-005	5.99601E-002	6.40923E-001	3.57730E+000	9	...........
	25	0.346667	6.52506E-001	1.01302E-004	0.00000E+000	6.61004E-005	5.99601E-002	6.52778E-001	3.57730E+000	9	...........
	26	0.36	6.64116E-001	1.01100E-004	0.00000E+000	6.71422E-005	5.99601E-002	6.64385E-001	3.57730E+000	9	...........
	27	0.373333	6.75497E-001	1.00171E-004	0.00000E+000	6.76651E-005	5.99601E-002	6.75793E-001	3.57730E+000	9	...........
	28	0.386667	6.86651E-001	1.01578E-004	0.00000E+000	6.97489E-005	5.99601E-002	6.86934E-001	3.57730E+000	9	...........
	29	0.4	6.97582E-001	9.94342E-005	0.00000E+000	6.93635E-005	5.99601E-002	6.97854E-001	3.57730E+000	9	...........
	30	0.413333	7.08298E-001	1.01136E-004	0.00000E+000	7.16341E-005	5.99601E-002	7.08580E-001	3.57730E+000	9	...........
	31	0.426667	7.18812E-001	1.01843E-004	0.00000E+000	7.32060E-005	5.99601E-002	7.19073E-001	3.57730E+000	9	...........
	32	0.44	7.29066E-001	1.01345E-004	0.00000E+000	7.38872E-005	5.99601E-002	7.29315E-001	3.57730E+000	9	...........
	33	0.453333	7.39106E-001	1.00710E-004	0.00000E+000	7.44357E-005	5.99601E-002	7.39376E-001	3.57730E+000	9	...........
	34	0.466667	7.48922E-001	1.00800E-004	0.00000E+000	7.54914E-005	5.99601E-002	7.49196E-001	3.57730E+000	9	...........
	35	0.48	7.58519E-001	1.00190E-004	0.00000E+000	7.59957E-005	5.99601E-002	7.58789E-001	3.57730E+000	9	...........
	36	0.493333	7.67886E-001	1.01668E-004	0.00000E+000	7.80695E-005	5.99601E-002	7.68170E-001	3.57730E+000	9	...........
	37	0.506667	7.77035E-001	1.00823E-004	0.00000E+000	7.83430E-005	5.99601E-002	7.77319E-001	3.57730E+000	9	...........
	38	0.52	7.85983E-001	1.02174E-004	0.00000E+000	8.03073E-005	5.99601E-002	7.86242E-001	3.57730E+000	9	...........
	39	0.533333	7.94700E-001	1.01438E-004	0.00000E+000	8.06126E-005	5.99601E-002	7.94986E-001	3.57730E+000	9	...........
	40	0.546667	8.03212E-001	1.00764E-004	0.00000E+000	8.09346E-005	5.99601E-002	8.03471E-001	3.57730E+000	9	...........
	41	0.56	8.11446E-001	1.01577E-004	0.00000E+000	8.24246E-005	5.99601E-002	8.11747E-001	3.57730E+000	9	...........
	42	0.573333	8.19526E-001	1.00582E-004	0.00000E+000	8.24298E-005	5.99601E-002	8.19846E-001	3.57730E+000	9	...........
	43	0.586667	8.27366E-001	1.01633E-004	0.00000E+000	8.40873E-005	5.99601E-002	8.27707E-001	3.57730E+000	9	...........
	44	0.6	8.34993E-001	1.00734E-004	0.00000E+000	8.41125E-005	5.99601E-002	8.35343E-001	3.57730E+000	9	...........
	45	0.613333	8.42407E-001	1.00442E-004	0.00000E+000	8.46127E-005	5.99601E-002	8.42782E-001	3.57730E+000	9	...........
	46	0.626667	8.49665E-001	1.01166E-004	0.00000E+000	8.59571E-005	5.99601E-002	8.50014E-001	3.57730E+000	9	...........
	47	0.64	8.56668E-001	1.00773E-004	0.00000E+000	8.63290E-005	5.99601E-002	8.57063E-001	3.57730E+000	9	...........
	48	0.653333	8.63511E-001	1.02185E-004	0.00000E+000	8.82376E-005	5.99601E-002	8.63871E-001	3.57730E+000	9	...........
	49	0.666667	8.70159E-001	1.01464E-004	0.00000E+000	8.82896E-005	5.99601E-002	8.70524E-001	3.57730E+000	9	...........
	50	0.68	8.76610E-001	1.00947E-004	0.00000E+000	8.84912E-005	5.99601E-002	8.76956E-001	3.57730E+000	9	...........
	51	0.693333	8.82851E-001	1.01680E-004	0.00000E+000	8.97688E-005	5.99601E-002	8.83220E-001	3.57730E+000	9	...........
	52	0.706667	8.88909E-001	1.01389E-004	0.00000E+000	9.01254E-005	5.99601E-002	8.89254E-001	3.57730E+000	9	...........
	53	0.72	8.94781E-001	1.00648E-004	0.00000E+000	9.00579E-005	5.99601E-002	8.95154E-001	3.57730E+000	9	...........
	54	0.733333	9.00509E-001	1.00625E-004	0.00000E+000	9.06138E-005	5.99601E-002	9.00845E-001	3.57730E+000	9	...........
	55	0.746667	9.06036E-001	1.00701E-004	0.00000E+000	9.12389E-005	5.99601E-002	9.06385E-001	3.57730E+000	9	...........
	56	0.76	9.11425E-001	1.01133E-004	0.00000E+000	9.21755E-005	5.99601E-002	9.11763E-001	3.57730E+000	9	...........
	57	0.773333	9.16644E-001	9.98999E-005	0.00000E+000	9.15726E-005	5.99601E-002	9.16977E-001	3.57730E+000	9	...........
	58	0.786667	9.21762E-001	1.02036E-004	0.00000E+000	9.40527E-005	5.99601E-002	9.22073E-001	3.57730E+000	9	...........
	59	0.8	9.26705E-001	1.01691E-004	0.00000E+000	9.42375E-005	5.99601E-002	9.27040E-001	3.57730E+000	9	...........
	60	0.813333	9.31537E-001	1.00947E-004	0.00000E+000	9.40359E-005	5.99601E-002	9.31835E-001	3.57730E+000	9	...........
	61	0.826667	9.36249E-001	1.02779E-004	0.00000E+000	9.62264E-005	5.99601E-002	9.36560E-001	3.57730E+000	9	...........
	62	0.84	9.40818E-001	1.00470E-004	0.00000E+000	9.45238E-005	5.99601E-002	9.41144E-001	3.57730E+000	9	...........
	63	0.853333	9.45320E-001	1.01756E-004	0.00000E+000	9.61915E-005	5.99601E-002	9.45650E-001	3.57730E+000	9	...........
	64	0.866667	9.49740E-001	1.00569E-004	0.00000E+000	9.55142E-005	5.99601E-002	9.50079E-001	3.57730E+000	9	...........
	65	0.88	9.54065E-001	1.01053E-004	0.00000E+000	9.64114E-005	5.99601E-002	9.54354E-001	3.57730E+000	9	...........
	66	0.893333	9.58268E-001	1.00441E-004	0.00000E+000	9.62491E-005	5.99601E-002	9.58591E-001	3.57730E+000	9	...........
	67	0.906667	9.62385E-001	1.00488E-004	0.00000E+000	9.67077E-005	5.99601E-002	9.62753E-001	3.57730E+000	9	...........
	68	0.92	9.66426E-001	1.00276E-004	0.00000E+000	9.69094E-005	5.99601E-002	9.66783E-001	3.57730E+000	9	...........
	69	0.933333	9.70401E-001	1.00836E-004	0.00000E+000	9.78509E-005	5.99601E-002	9.70776E-001	3.57730E+000	9	...........
	70	0.946667	9.74353E-001	1.01257E-004	0.00000E+000	9.86605E-005	5.99601E-002	9.74678E-001	3.57730E+000	9	...........
	71	0.96	9.78135E-001	1.00733E-004	0.00000E+000	9.85309E-005	5.99601E-002	9.78490E-001	3.57730E+000	9	...........
	72	0.97333	9.81858E-001	1.00369E-004	0.00000E+000	9.85479E-005	5.99601E-002	9.82212E-001	3.57730E+000	9	...........
	73	0.98667	9.85503E-001	1.00120E-004	0.00000E+000	9.86683E-005	5.99601E-002	9.85852E-001	3.57730E+000	9	...........
	74	1	9.89069E-001	1.01223E-004	0.00000E+000	1.00117E-004	5.99601E-002	9.89440E-001	3.57730E+000	9	...........
	75	1.01333	9.92526E-001	1.01051E-004	0.00000E+000	1.00296E-004	5.99601E-002	9.92902E-001	3.57730E+000	9	...........
	76	1.02667	9.95927E-001	1.02225E-004	0.00000E+000	1.01809E-004	5.99601E-002	9.96294E-001	3.57730E+000	9	...........
	77	1.03833	9.99070E-001	1.00382E-004	0.00000E+000	1.00289E-004	5.99601E-002	9.99422E-001	3.57730E+000	9	...........
STARTTIMEOFFSET	QUANT	422.5452	Start Time Offset (s)
