EXPLAIN
TAG	PWR800_CHARGE
TITLE	LABEL	PWR Cyclic Charge Discharge (Cell) - Charge Step	Test &Identifier
DATE	LABEL	12-7-2017	Date
TIME	LABEL	16:43:36	Time
NOTES	NOTES	2	&Notes...
	supercap test cell
	6M KOH
PSTAT	PSTAT	IFC5000-01520	Potentiostat
CAPACITY	QUANT	1.00000E-003	Capacity (A-hr)
CELLTYPE	SELECTOR	1	&Cell Type
WORKINGCONNECTION	SELECTOR	0	&Working Lead
MAXCHARGETIME	VARIABLEANDUNITS	1.00000E+002	s	1.00000E+002	second(s)	Max &Charge Time
CHARGECURRENT	QUANT	1.00000E-004	&Charge Current (A) 
VOLTAGEFINISH	TWOPARAM	F	1.00000E-003	3.60000E+003	&Voltage Finish	 I (A) < 	Max Time(s)
SAMPLETIME	QUANT	1.00000E-002	Sa&mple Period (s)
CHARGESTOPAT1	MULTIPARAM	4	1.00000E+000	Charge Stop At &1	Voltage > Limit	V
CHARGESTOPAT2	MULTIPARAM	0	0.00000E+000	Charge Stop At &2	None	N/A
AESBHCSELECTOR	TOGGLE	F	Save Both Half Cells
IRCOMP	TOGGLE	F	IR &Measure
EOC	QUANT	0	Open Circuit (V)
SEQUENCER	TOGGLE	TRUE	Run as Sequence
PSTATMODEL	IQUANT	53	Pstat Model
PSTATSECTION	LABEL	IFC5000-01520	Pstat Section
PSTATSERIALNO	LABEL	01520	Pstat Serial Number
CTRLMODE	IQUANT	0	Control Mode
ELECTROMETER	IQUANT	1	RE=0 or CS=1
IESTAB	IQUANT	0	I/E Stability
CASPEED	IQUANT	4	Control Amp Speed
CONVENTION	IQUANT	1	Current Convention
ICHRANGE	IQUANT	2	Ich Range
ICHRANGEMODE	TOGGLE	T	Ich Auto Range
ICHOFFSETENABLE	TOGGLE	F	Ich Offset Enable
ICHOFFSET	QUANT	0	Ich Offset (V)
ICHFILTER	IQUANT	1	Ich Filter
VCHRANGE	IQUANT	2	Vch Range
VCHRANGEMODE	TOGGLE	T	Vch Auto Range
VCHOFFSETENABLE	TOGGLE	F	Vch Offset Enable
VCHOFFSET	QUANT	0	Vch Offset (V)
VCHFILTER	IQUANT	1	Vch Filter
IERANGELOWERLIMIT	IQUANT	9	I/E Range Lower Limit
IERANGEMODE	TOGGLE	F	I/E AutoRange
IERANGE	IQUANT	9	I/E Range
ACHSELECT	IQUANT	1	Ach Select
ACHRANGE	IQUANT	2	Ach Range
ACHOFFSETENABLE	TOGGLE	F	Ach Offset Enable
ACHOFFSET	QUANT	0	Ach Offset (V)
ACHFILTER	IQUANT	1	Ach Filter
CABLEID	IQUANT	14	Cable ID
DCCALDATE	LABEL	5-7-2017	DC Calibration Date
ACCALDATE	LABEL	12/3/2015	AC Calibration Date
FRAMEWORKVERSION	QUANT	7.01	Framework Version
INSTRUMENTVERSION	LABEL	4.00	Instrument Version
CURVE	TABLE	75
	Pt	T	Vf	Im	Vu	Pwr	Sig	Ach	Temp	IERange	Over
	#	s	V	A	V	W	V	V	deg C	#	bits
	0	0.013333	2.58880E-001	1.01279E-004	0.00000E+000	2.62192E-005	5.99601E-002	2.58956E-001	3.57650E+000	9	...........
	1	0.026667	2.81882E-001	1.00625E-004	0.00000E+000	2.83644E-005	5.99601E-002	2.81944E-001	3.57650E+000	9	...........
	2	0.04	3.03629E-001	9.99937E-005	0.00000E+000	3.03610E-005	5.99601E-002	3.03692E-001	3.57650E+000	9	...........
	3	0.053333	3.24481E-001	1.00477E-004	0.00000E+000	3.26030E-005	5.99601E-002	3.24546E-001	3.57650E+000	9	...........
	4	0.066667	3.44605E-001	1.00842E-004	0.00000E+000	3.47505E-005	5.99601E-002	3.44677E-001	3.57650E+000	9	...........
	5	0.08	3.64124E-001	1.00630E-004	0.00000E+000	3.66419E-005	5.99601E-002	3.64199E-001	3.57650E+000	9	...........
	6	0.093333	3.83109E-001	1.01846E-004	0.00000E+000	3.90182E-005	5.99601E-002	3.83186E-001	3.57650E+000	9	...........
	7	0.106667	4.01628E-001	1.01801E-004	0.00000E+000	4.08863E-005	5.99601E-002	4.01713E-001	3.57650E+000	9	...........
	8	0.12	4.19703E-001	1.00900E-004	0.00000E+000	4.23481E-005	5.99601E-002	4.19790E-001	3.57650E+000	9	...........
	9	0.133333	4.37366E-001	1.01291E-004	0.00000E+000	4.43012E-005	5.99601E-002	4.37459E-001	3.57650E+000	9	...........
	10	0.146667	4.54640E-001	1.00543E-004	0.00000E+000	4.57107E-005	5.99601E-002	4.54735E-001	3.57650E+000	9	...........
	11	0.16	4.71538E-001	1.01309E-004	0.00000E+000	4.77708E-005	5.99601E-002	4.71635E-001	3.57650E+000	9	...........
	12	0.173333	4.88069E-001	1.00981E-004	0.00000E+000	4.92859E-005	5.99601E-002	4.88171E-001	3.57650E+000	9	...........
	13	0.186667	5.04239E-001	1.00396E-004	0.00000E+000	5.06235E-005	5.99601E-002	5.04348E-001	3.57650E+000	9	...........
	14	0.2	5.20058E-001	1.01019E-004	0.00000E+000	5.25357E-005	5.99601E-002	5.20170E-001	3.57650E+000	9	...........
	15	0.213333	5.35395E-001	9.94373E-005	0.00000E+000	5.32382E-005	5.99601E-002	5.35543E-001	3.57650E+000	9	...........
	16	0.226667	5.50406E-001	1.01024E-004	0.00000E+000	5.56043E-005	5.99601E-002	5.50619E-001	3.57650E+000	9	...........
	17	0.24	5.65223E-001	1.01179E-004	0.00000E+000	5.71889E-005	5.99601E-002	5.65415E-001	3.57650E+000	9	...........
	18	0.253333	5.79693E-001	1.01572E-004	0.00000E+000	5.88807E-005	5.99601E-002	5.79875E-001	3.57650E+000	9	...........
	19	0.266667	5.93831E-001	1.01130E-004	0.00000E+000	6.00543E-005	5.99601E-002	5.94045E-001	3.57650E+000	9	...........
	20	0.28	6.07626E-001	1.00650E-004	0.00000E+000	6.11576E-005	5.99601E-002	6.07868E-001	3.57650E+000	9	...........
	21	0.293333	6.21172E-001	1.01572E-004	0.00000E+000	6.30938E-005	5.99601E-002	6.21361E-001	3.57650E+000	9	...........
	22	0.306667	6.34325E-001	1.01448E-004	0.00000E+000	6.43511E-005	5.99601E-002	6.34534E-001	3.57650E+000	9	...........
	23	0.32	6.47198E-001	1.00893E-004	0.00000E+000	6.52976E-005	5.99601E-002	6.47419E-001	3.57650E+000	9	...........
	24	0.333333	6.59753E-001	1.00822E-004	0.00000E+000	6.65176E-005	5.99601E-002	6.59947E-001	3.57650E+000	9	...........
	25	0.346667	6.71992E-001	1.00600E-004	0.00000E+000	6.76025E-005	5.99601E-002	6.72210E-001	3.57650E+000	9	...........
	26	0.36	6.83915E-001	1.02273E-004	0.00000E+000	6.99463E-005	5.99601E-002	6.84132E-001	3.57650E+000	9	...........
	27	0.373333	6.95535E-001	1.00874E-004	0.00000E+000	7.01614E-005	5.99601E-002	6.95777E-001	3.57650E+000	9	...........
	28	0.386667	7.06874E-001	1.01488E-004	0.00000E+000	7.17390E-005	5.99601E-002	7.07090E-001	3.57650E+000	9	...........
	29	0.4	7.17916E-001	1.00797E-004	0.00000E+000	7.23637E-005	5.99601E-002	7.18154E-001	3.57650E+000	9	...........
	30	0.413333	7.28682E-001	1.01692E-004	0.00000E+000	7.41011E-005	5.99601E-002	7.28921E-001	3.57650E+000	9	...........
	31	0.426667	7.39118E-001	1.02913E-004	0.00000E+000	7.60649E-005	5.99601E-002	7.39359E-001	3.57650E+000	9	...........
	32	0.44	7.49296E-001	1.01124E-004	0.00000E+000	7.57719E-005	5.99601E-002	7.49564E-001	3.57650E+000	9	...........
	33	0.453333	7.59171E-001	1.01008E-004	0.00000E+000	7.66827E-005	5.99601E-002	7.59422E-001	3.57650E+000	9	...........
	34	0.466667	7.68802E-001	1.00738E-004	0.00000E+000	7.74472E-005	5.99601E-002	7.69054E-001	3.57650E+000	9	...........
	35	0.48	7.78163E-001	1.01872E-004	0.00000E+000	7.92732E-005	5.99601E-002	7.78400E-001	3.57650E+000	9	...........
	36	0.493333	7.87214E-001	1.01235E-004	0.00000E+000	7.96932E-005	5.99601E-002	7.87436E-001	3.57650E+000	9	...........
	37	0.506667	7.96049E-001	1.01365E-004	0.00000E+000	8.06914E-005	5.99601E-002	7.96261E-001	3.57650E+000	9	...........
	38	0.52	8.04581E-001	1.00949E-004	0.00000E+000	8.12217E-005	5.99601E-002	8.04807E-001	3.57650E+000	9	...........
	39	0.533333	8.12854E-001	1.00995E-004	0.00000E+000	8.20942E-005	5.99601E-002	8.13100E-001	3.57650E+000	9	...........
	40	0.546667	8.20910E-001	1.01406E-004	0.00000E+000	8.32456E-005	5.99601E-002	8.21180E-001	3.57650E+000	9	...........
	41	0.56	8.28694E-001	1.01941E-004	0.00000E+000	8.44778E-005	5.99601E-002	8.28942E-001	3.57650E+000	9	...........
	42	0.573333	8.36212E-001	9.94113E-005	0.00000E+000	8.31289E-005	5.99601E-002	8.36500E-001	3.57650E+000	9	...........
	43	0.586667	8.43516E-001	1.01105E-004	0.00000E+000	8.52840E-005	5.99601E-002	8.43839E-001	3.57650E+000	9	...........
	44	0.6	8.50607E-001	1.00450E-004	0.00000E+000	8.54435E-005	5.99601E-002	8.50916E-001	3.57650E+000	9	...........
	45	0.613333	8.57455E-001	9.98905E-005	0.00000E+000	8.56516E-005	5.99601E-002	8.57768E-001	3.57650E+000	9	...........
	46	0.626667	8.64073E-001	1.00987E-004	0.00000E+000	8.72598E-005	5.99601E-002	8.64422E-001	3.57650E+000	9	...........
	47	0.64	8.70548E-001	1.01538E-004	0.00000E+000	8.83935E-005	5.99601E-002	8.70876E-001	3.57650E+000	9	...........
	48	0.653333	8.76802E-001	1.01566E-004	0.00000E+000	8.90531E-005	5.99601E-002	8.77127E-001	3.57650E+000	9	...........
	49	0.666667	8.82869E-001	1.01750E-004	0.00000E+000	8.98322E-005	5.99601E-002	8.83201E-001	3.57770E+000	9	...........
	50	0.68	8.88787E-001	1.01486E-004	0.00000E+000	9.01992E-005	5.99601E-002	8.89119E-001	3.57810E+000	9	...........
	51	0.693333	8.94515E-001	1.00142E-004	0.00000E+000	8.95781E-005	5.99601E-002	8.94880E-001	3.57810E+000	9	...........
	52	0.706667	9.00140E-001	1.01976E-004	0.00000E+000	9.17931E-005	5.99601E-002	9.00490E-001	3.57810E+000	9	...........
	53	0.72	9.05600E-001	1.00655E-004	0.00000E+000	9.11534E-005	5.99601E-002	9.05970E-001	3.57810E+000	9	...........
	54	0.733333	9.10976E-001	1.01473E-004	0.00000E+000	9.24396E-005	5.99601E-002	9.11287E-001	3.57810E+000	9	...........
	55	0.746667	9.16191E-001	1.01879E-004	0.00000E+000	9.33411E-005	5.99601E-002	9.16542E-001	3.57810E+000	9	...........
	56	0.76	9.21376E-001	9.99499E-005	0.00000E+000	9.20914E-005	5.99601E-002	9.21694E-001	3.57810E+000	9	...........
	57	0.773333	9.26416E-001	1.00740E-004	0.00000E+000	9.33269E-005	5.99601E-002	9.26727E-001	3.57810E+000	9	...........
	58	0.786667	9.31351E-001	1.00688E-004	0.00000E+000	9.37754E-005	5.99601E-002	9.31668E-001	3.57810E+000	9	...........
	59	0.8	9.36221E-001	1.01092E-004	0.00000E+000	9.46443E-005	5.99601E-002	9.36543E-001	3.57810E+000	9	...........
	60	0.813333	9.40958E-001	1.00618E-004	0.00000E+000	9.46771E-005	5.99601E-002	9.41335E-001	3.57810E+000	9	...........
	61	0.826667	9.45690E-001	1.02441E-004	0.00000E+000	9.68775E-005	5.99601E-002	9.46053E-001	3.57810E+000	9	...........
	62	0.84	9.50326E-001	1.01665E-004	0.00000E+000	9.66148E-005	5.99601E-002	9.50681E-001	3.57810E+000	9	...........
	63	0.853333	9.54886E-001	1.00545E-004	0.00000E+000	9.60088E-005	5.99601E-002	9.55203E-001	3.57810E+000	9	...........
	64	0.866667	9.59343E-001	1.01044E-004	0.00000E+000	9.69358E-005	5.99601E-002	9.59703E-001	3.57810E+000	9	...........
	65	0.88	9.63729E-001	1.00752E-004	0.00000E+000	9.70978E-005	5.99601E-002	9.64096E-001	3.57810E+000	9	...........
	66	0.893333	9.68067E-001	1.00606E-004	0.00000E+000	9.73936E-005	5.99601E-002	9.68409E-001	3.57810E+000	9	...........
	67	0.906667	9.72317E-001	1.00958E-004	0.00000E+000	9.81636E-005	5.99601E-002	9.72669E-001	3.57810E+000	9	...........
	68	0.92	9.76510E-001	1.01082E-004	0.00000E+000	9.87080E-005	5.99601E-002	9.76835E-001	3.57810E+000	9	...........
	69	0.933333	9.80603E-001	1.01209E-004	0.00000E+000	9.92453E-005	5.99601E-002	9.80930E-001	3.57810E+000	9	...........
	70	0.946667	9.84588E-001	1.01608E-004	0.00000E+000	1.00042E-004	5.99601E-002	9.84942E-001	3.57810E+000	9	...........
	71	0.96	9.88528E-001	1.00485E-004	0.00000E+000	9.93327E-005	5.99601E-002	9.88894E-001	3.57810E+000	9	...........
	72	0.97333	9.92362E-001	1.00974E-004	0.00000E+000	1.00203E-004	5.99601E-002	9.92724E-001	3.57810E+000	9	...........
	73	0.98667	9.96110E-001	1.01426E-004	0.00000E+000	1.01032E-004	5.99601E-002	9.96490E-001	3.57810E+000	9	...........
	74	0.995	9.99124E-001	1.01103E-004	0.00000E+000	1.01014E-004	5.99601E-002	9.99505E-001	3.57810E+000	9	...........
STARTTIMEOFFSET	QUANT	1431.101	Start Time Offset (s)
