EXPLAIN
TAG	PWR800_CHARGE
TITLE	LABEL	PWR Cyclic Charge Discharge (Cell) - Charge Step	Test &Identifier
DATE	LABEL	12-7-2017	Date
TIME	LABEL	16:18:07	Time
NOTES	NOTES	2	&Notes...
	supercap test cell
	6M KOH
PSTAT	PSTAT	IFC5000-01520	Potentiostat
CAPACITY	QUANT	1.00000E-003	Capacity (A-hr)
CELLTYPE	SELECTOR	1	&Cell Type
WORKINGCONNECTION	SELECTOR	0	&Working Lead
MAXCHARGETIME	VARIABLEANDUNITS	1.00000E+002	s	1.00000E+002	second(s)	Max &Charge Time
CHARGECURRENT	QUANT	1.00000E-004	&Charge Current (A) 
VOLTAGEFINISH	TWOPARAM	F	1.00000E-003	3.60000E+003	&Voltage Finish	 I (A) < 	Max Time(s)
SAMPLETIME	QUANT	1.00000E-002	Sa&mple Period (s)
CHARGESTOPAT1	MULTIPARAM	4	1.00000E+000	Charge Stop At &1	Voltage > Limit	V
CHARGESTOPAT2	MULTIPARAM	0	0.00000E+000	Charge Stop At &2	None	N/A
AESBHCSELECTOR	TOGGLE	F	Save Both Half Cells
IRCOMP	TOGGLE	F	IR &Measure
EOC	QUANT	0	Open Circuit (V)
SEQUENCER	TOGGLE	TRUE	Run as Sequence
PSTATMODEL	IQUANT	53	Pstat Model
PSTATSECTION	LABEL	IFC5000-01520	Pstat Section
PSTATSERIALNO	LABEL	01520	Pstat Serial Number
CTRLMODE	IQUANT	0	Control Mode
ELECTROMETER	IQUANT	1	RE=0 or CS=1
IESTAB	IQUANT	0	I/E Stability
CASPEED	IQUANT	4	Control Amp Speed
CONVENTION	IQUANT	1	Current Convention
ICHRANGE	IQUANT	2	Ich Range
ICHRANGEMODE	TOGGLE	T	Ich Auto Range
ICHOFFSETENABLE	TOGGLE	F	Ich Offset Enable
ICHOFFSET	QUANT	0	Ich Offset (V)
ICHFILTER	IQUANT	1	Ich Filter
VCHRANGE	IQUANT	2	Vch Range
VCHRANGEMODE	TOGGLE	T	Vch Auto Range
VCHOFFSETENABLE	TOGGLE	F	Vch Offset Enable
VCHOFFSET	QUANT	0	Vch Offset (V)
VCHFILTER	IQUANT	1	Vch Filter
IERANGELOWERLIMIT	IQUANT	9	I/E Range Lower Limit
IERANGEMODE	TOGGLE	F	I/E AutoRange
IERANGE	IQUANT	9	I/E Range
ACHSELECT	IQUANT	1	Ach Select
ACHRANGE	IQUANT	2	Ach Range
ACHOFFSETENABLE	TOGGLE	F	Ach Offset Enable
ACHOFFSET	QUANT	0	Ach Offset (V)
ACHFILTER	IQUANT	1	Ach Filter
CABLEID	IQUANT	14	Cable ID
DCCALDATE	LABEL	5-7-2017	DC Calibration Date
ACCALDATE	LABEL	12/3/2015	AC Calibration Date
FRAMEWORKVERSION	QUANT	7.01	Framework Version
INSTRUMENTVERSION	LABEL	4.00	Instrument Version
CURVE	TABLE	79
	Pt	T	Vf	Im	Vu	Pwr	Sig	Ach	Temp	IERange	Over
	#	s	V	A	V	W	V	V	deg C	#	bits
	0	0.013333	2.59547E-001	1.01236E-004	0.00000E+000	2.62754E-005	5.99601E-002	2.59623E-001	3.57780E+000	9	...........
	1	0.026667	2.82335E-001	1.01293E-004	0.00000E+000	2.85985E-005	5.99601E-002	2.82393E-001	3.57780E+000	9	...........
	2	0.04	3.03588E-001	1.01401E-004	0.00000E+000	3.07842E-005	5.99601E-002	3.03658E-001	3.57780E+000	9	...........
	3	0.053333	3.23695E-001	1.00533E-004	0.00000E+000	3.25421E-005	5.99601E-002	3.23769E-001	3.57780E+000	9	...........
	4	0.066667	3.42889E-001	1.01637E-004	0.00000E+000	3.48501E-005	5.99601E-002	3.42965E-001	3.57780E+000	9	...........
	5	0.08	3.61318E-001	1.00592E-004	0.00000E+000	3.63456E-005	5.99601E-002	3.61404E-001	3.57780E+000	9	...........
	6	0.093333	3.79117E-001	1.00801E-004	0.00000E+000	3.82154E-005	5.99601E-002	3.79200E-001	3.57780E+000	9	...........
	7	0.106667	3.96334E-001	1.00977E-004	0.00000E+000	4.00207E-005	5.99601E-002	3.96418E-001	3.57780E+000	9	...........
	8	0.12	4.13054E-001	1.01297E-004	0.00000E+000	4.18412E-005	5.99601E-002	4.13141E-001	3.57780E+000	9	...........
	9	0.133333	4.29319E-001	1.01321E-004	0.00000E+000	4.34991E-005	5.99601E-002	4.29413E-001	3.57780E+000	9	...........
	10	0.146667	4.45172E-001	1.01385E-004	0.00000E+000	4.51336E-005	5.99601E-002	4.45271E-001	3.57780E+000	9	...........
	11	0.16	4.60659E-001	1.01287E-004	0.00000E+000	4.66586E-005	5.99601E-002	4.60761E-001	3.57780E+000	9	...........
	12	0.173333	4.75798E-001	1.00606E-004	0.00000E+000	4.78682E-005	5.99601E-002	4.75898E-001	3.57780E+000	9	...........
	13	0.186667	4.90599E-001	9.99999E-005	0.00000E+000	4.90599E-005	5.99601E-002	4.90707E-001	3.57780E+000	9	...........
	14	0.2	5.05095E-001	1.00317E-004	0.00000E+000	5.06694E-005	5.99601E-002	5.05204E-001	3.57780E+000	9	...........
	15	0.213333	5.19297E-001	1.01096E-004	0.00000E+000	5.24988E-005	5.99601E-002	5.19415E-001	3.57780E+000	9	...........
	16	0.226667	5.33097E-001	1.00774E-004	0.00000E+000	5.37223E-005	5.99601E-002	5.33268E-001	3.57780E+000	9	...........
	17	0.24	5.46562E-001	1.01381E-004	0.00000E+000	5.54113E-005	5.99601E-002	5.46812E-001	3.57780E+000	9	...........
	18	0.253333	5.59947E-001	1.00980E-004	0.00000E+000	5.65436E-005	5.99601E-002	5.60216E-001	3.57780E+000	9	...........
	19	0.266667	5.73116E-001	1.01064E-004	0.00000E+000	5.79212E-005	5.99601E-002	5.73370E-001	3.57780E+000	9	...........
	20	0.28	5.85988E-001	1.00178E-004	0.00000E+000	5.87032E-005	5.99601E-002	5.86235E-001	3.57780E+000	9	...........
	21	0.293333	5.98669E-001	1.01645E-004	0.00000E+000	6.08517E-005	5.99601E-002	5.98943E-001	3.57780E+000	9	...........
	22	0.306667	6.11089E-001	1.01143E-004	0.00000E+000	6.18072E-005	5.99601E-002	6.11378E-001	3.57780E+000	9	...........
	23	0.32	6.23331E-001	1.00773E-004	0.00000E+000	6.28149E-005	5.99601E-002	6.23589E-001	3.57780E+000	9	...........
	24	0.333333	6.35319E-001	1.00529E-004	0.00000E+000	6.38681E-005	5.99601E-002	6.35589E-001	3.57780E+000	9	...........
	25	0.346667	6.47091E-001	1.00642E-004	0.00000E+000	6.51243E-005	5.99601E-002	6.47361E-001	3.57780E+000	9	...........
	26	0.36	6.58651E-001	1.01072E-004	0.00000E+000	6.65712E-005	5.99601E-002	6.58906E-001	3.57780E+000	9	...........
	27	0.373333	6.69989E-001	1.00189E-004	0.00000E+000	6.71252E-005	5.99601E-002	6.70245E-001	3.57780E+000	9	...........
	28	0.386667	6.81117E-001	1.01182E-004	0.00000E+000	6.89171E-005	5.99601E-002	6.81368E-001	3.57780E+000	9	...........
	29	0.4	6.92033E-001	1.00848E-004	0.00000E+000	6.97902E-005	5.99601E-002	6.92287E-001	3.57780E+000	9	...........
	30	0.413333	7.02726E-001	1.01222E-004	0.00000E+000	7.11314E-005	5.99601E-002	7.02972E-001	3.57780E+000	9	...........
	31	0.426667	7.13206E-001	1.01064E-004	0.00000E+000	7.20793E-005	5.99601E-002	7.13443E-001	3.57780E+000	9	...........
	32	0.44	7.23510E-001	1.01053E-004	0.00000E+000	7.31131E-005	5.99601E-002	7.23720E-001	3.57780E+000	9	...........
	33	0.453333	7.33543E-001	1.01502E-004	0.00000E+000	7.44563E-005	5.99601E-002	7.33795E-001	3.57780E+000	9	...........
	34	0.466667	7.43405E-001	1.00660E-004	0.00000E+000	7.48315E-005	5.99601E-002	7.43648E-001	3.57780E+000	9	...........
	35	0.48	7.53056E-001	1.00909E-004	0.00000E+000	7.59905E-005	5.99601E-002	7.53295E-001	3.57780E+000	9	...........
	36	0.493333	7.62458E-001	1.00995E-004	0.00000E+000	7.70044E-005	5.99601E-002	7.62730E-001	3.57780E+000	9	...........
	37	0.506667	7.71684E-001	1.01275E-004	0.00000E+000	7.81525E-005	5.99601E-002	7.71952E-001	3.57780E+000	9	...........
	38	0.52	7.80685E-001	1.00847E-004	0.00000E+000	7.87297E-005	5.99601E-002	7.80947E-001	3.57780E+000	9	...........
	39	0.533333	7.89488E-001	1.01391E-004	0.00000E+000	8.00469E-005	5.99601E-002	7.89769E-001	3.57780E+000	9	...........
	40	0.546667	7.98096E-001	1.00838E-004	0.00000E+000	8.04781E-005	5.99601E-002	7.98369E-001	3.57780E+000	9	...........
	41	0.56	8.06457E-001	1.00980E-004	0.00000E+000	8.14363E-005	5.99601E-002	8.06726E-001	3.57780E+000	9	...........
	42	0.573333	8.14614E-001	1.00888E-004	0.00000E+000	8.21844E-005	5.99601E-002	8.14917E-001	3.57780E+000	9	...........
	43	0.586667	8.22607E-001	1.00063E-004	0.00000E+000	8.23129E-005	5.99601E-002	8.22892E-001	3.57780E+000	9	...........
	44	0.6	8.30351E-001	1.00671E-004	0.00000E+000	8.35922E-005	5.99601E-002	8.30651E-001	3.57780E+000	9	...........
	45	0.613333	8.37882E-001	1.01462E-004	0.00000E+000	8.50130E-005	5.99601E-002	8.38208E-001	3.57780E+000	9	...........
	46	0.626667	8.45241E-001	1.01047E-004	0.00000E+000	8.54091E-005	5.99601E-002	8.45577E-001	3.57780E+000	9	...........
	47	0.64	8.52406E-001	1.00979E-004	0.00000E+000	8.60754E-005	5.99601E-002	8.52726E-001	3.57780E+000	9	...........
	48	0.653333	8.59358E-001	1.00842E-004	0.00000E+000	8.66592E-005	5.99601E-002	8.59707E-001	3.57780E+000	9	...........
	49	0.666667	8.66104E-001	1.01355E-004	0.00000E+000	8.77843E-005	5.99601E-002	8.66486E-001	3.57780E+000	9	...........
	50	0.68	8.72711E-001	9.99260E-005	0.00000E+000	8.72065E-005	5.99601E-002	8.73052E-001	3.57780E+000	9	...........
	51	0.693333	8.79086E-001	9.99958E-005	0.00000E+000	8.79049E-005	5.99601E-002	8.79411E-001	3.57780E+000	9	...........
	52	0.706667	8.85285E-001	1.00755E-004	0.00000E+000	8.91971E-005	5.99601E-002	8.85614E-001	3.57780E+000	9	...........
	53	0.72	8.91296E-001	1.02055E-004	0.00000E+000	9.09608E-005	5.99601E-002	8.91585E-001	3.57780E+000	9	...........
	54	0.733333	8.97122E-001	1.00821E-004	0.00000E+000	9.04487E-005	5.99601E-002	8.97459E-001	3.57780E+000	9	...........
	55	0.746667	9.02821E-001	1.00812E-004	0.00000E+000	9.10148E-005	5.99601E-002	9.03125E-001	3.57780E+000	9	...........
	56	0.76	9.08317E-001	1.00913E-004	0.00000E+000	9.16607E-005	5.99601E-002	9.08633E-001	3.57780E+000	9	...........
	57	0.773333	9.13650E-001	1.01440E-004	0.00000E+000	9.26805E-005	5.99601E-002	9.13977E-001	3.57780E+000	9	...........
	58	0.786667	9.18839E-001	1.00645E-004	0.00000E+000	9.24764E-005	5.99601E-002	9.19165E-001	3.57780E+000	9	...........
	59	0.8	9.23944E-001	1.01125E-004	0.00000E+000	9.34340E-005	5.99601E-002	9.24260E-001	3.57780E+000	9	...........
	60	0.813333	9.28842E-001	1.01469E-004	0.00000E+000	9.42487E-005	5.99601E-002	9.29160E-001	3.57780E+000	9	...........
	61	0.826667	9.33614E-001	1.01689E-004	0.00000E+000	9.49381E-005	5.99601E-002	9.33970E-001	3.57780E+000	9	...........
	62	0.84	9.38283E-001	1.00812E-004	0.00000E+000	9.45898E-005	5.99601E-002	9.38652E-001	3.57780E+000	9	...........
	63	0.853333	9.42825E-001	1.01132E-004	0.00000E+000	9.53502E-005	5.99601E-002	9.43174E-001	3.57780E+000	9	...........
	64	0.866667	9.47313E-001	1.00352E-004	0.00000E+000	9.50648E-005	5.99601E-002	9.47681E-001	3.57780E+000	9	...........
	65	0.88	9.51676E-001	1.00974E-004	0.00000E+000	9.60946E-005	5.99601E-002	9.52023E-001	3.57780E+000	9	...........
	66	0.893333	9.55912E-001	1.00231E-004	0.00000E+000	9.58123E-005	5.99601E-002	9.56263E-001	3.57780E+000	9	...........
	67	0.906667	9.60086E-001	1.01262E-004	0.00000E+000	9.72199E-005	5.99601E-002	9.60433E-001	3.57780E+000	9	...........
	68	0.92	9.64170E-001	1.01175E-004	0.00000E+000	9.75501E-005	5.99601E-002	9.64521E-001	3.57780E+000	9	...........
	69	0.933333	9.68159E-001	1.01287E-004	0.00000E+000	9.80616E-005	5.99601E-002	9.68506E-001	3.57798E+000	9	...........
	70	0.946667	9.72071E-001	1.00117E-004	0.00000E+000	9.73204E-005	5.99601E-002	9.72450E-001	3.57850E+000	9	...........
	71	0.96	9.75922E-001	1.01164E-004	0.00000E+000	9.87279E-005	5.99601E-002	9.76270E-001	3.57850E+000	9	...........
	72	0.97333	9.79655E-001	1.01128E-004	0.00000E+000	9.90708E-005	5.99601E-002	9.80009E-001	3.57850E+000	9	...........
	73	0.98667	9.83319E-001	1.00969E-004	0.00000E+000	9.92846E-005	5.99601E-002	9.83681E-001	3.57850E+000	9	...........
	74	1	9.86884E-001	1.00982E-004	0.00000E+000	9.96579E-005	5.99601E-002	9.87285E-001	3.57850E+000	9	...........
	75	1.01333	9.90389E-001	1.01054E-004	0.00000E+000	1.00083E-004	5.99601E-002	9.90759E-001	3.57850E+000	9	...........
	76	1.02667	9.93778E-001	1.00901E-004	0.00000E+000	1.00273E-004	5.99601E-002	9.94165E-001	3.57850E+000	9	...........
	77	1.04	9.97132E-001	1.00682E-004	0.00000E+000	1.00394E-004	5.99601E-002	9.97516E-001	3.57850E+000	9	...........
	78	1.04667	9.99578E-001	9.94040E-005	0.00000E+000	9.93621E-005	5.99601E-002	9.99937E-001	3.57850E+000	9	...........
STARTTIMEOFFSET	QUANT	344.865	Start Time Offset (s)
