EXPLAIN
TAG	PWR800_CHARGE
TITLE	LABEL	PWR Cyclic Charge Discharge (Cell) - Charge Step	Test &Identifier
DATE	LABEL	12-7-2017	Date
TIME	LABEL	16:53:17	Time
NOTES	NOTES	2	&Notes...
	supercap test cell
	6M KOH
PSTAT	PSTAT	IFC5000-01520	Potentiostat
CAPACITY	QUANT	1.00000E-003	Capacity (A-hr)
CELLTYPE	SELECTOR	1	&Cell Type
WORKINGCONNECTION	SELECTOR	0	&Working Lead
MAXCHARGETIME	VARIABLEANDUNITS	1.00000E+002	s	1.00000E+002	second(s)	Max &Charge Time
CHARGECURRENT	QUANT	1.00000E-004	&Charge Current (A) 
VOLTAGEFINISH	TWOPARAM	F	1.00000E-003	3.60000E+003	&Voltage Finish	 I (A) < 	Max Time(s)
SAMPLETIME	QUANT	1.00000E-002	Sa&mple Period (s)
CHARGESTOPAT1	MULTIPARAM	4	1.00000E+000	Charge Stop At &1	Voltage > Limit	V
CHARGESTOPAT2	MULTIPARAM	0	0.00000E+000	Charge Stop At &2	None	N/A
AESBHCSELECTOR	TOGGLE	F	Save Both Half Cells
IRCOMP	TOGGLE	F	IR &Measure
EOC	QUANT	0	Open Circuit (V)
SEQUENCER	TOGGLE	TRUE	Run as Sequence
PSTATMODEL	IQUANT	53	Pstat Model
PSTATSECTION	LABEL	IFC5000-01520	Pstat Section
PSTATSERIALNO	LABEL	01520	Pstat Serial Number
CTRLMODE	IQUANT	0	Control Mode
ELECTROMETER	IQUANT	1	RE=0 or CS=1
IESTAB	IQUANT	0	I/E Stability
CASPEED	IQUANT	4	Control Amp Speed
CONVENTION	IQUANT	1	Current Convention
ICHRANGE	IQUANT	2	Ich Range
ICHRANGEMODE	TOGGLE	T	Ich Auto Range
ICHOFFSETENABLE	TOGGLE	F	Ich Offset Enable
ICHOFFSET	QUANT	0	Ich Offset (V)
ICHFILTER	IQUANT	1	Ich Filter
VCHRANGE	IQUANT	2	Vch Range
VCHRANGEMODE	TOGGLE	T	Vch Auto Range
VCHOFFSETENABLE	TOGGLE	F	Vch Offset Enable
VCHOFFSET	QUANT	0	Vch Offset (V)
VCHFILTER	IQUANT	1	Vch Filter
IERANGELOWERLIMIT	IQUANT	9	I/E Range Lower Limit
IERANGEMODE	TOGGLE	F	I/E AutoRange
IERANGE	IQUANT	9	I/E Range
ACHSELECT	IQUANT	1	Ach Select
ACHRANGE	IQUANT	2	Ach Range
ACHOFFSETENABLE	TOGGLE	F	Ach Offset Enable
ACHOFFSET	QUANT	0	Ach Offset (V)
ACHFILTER	IQUANT	1	Ach Filter
CABLEID	IQUANT	14	Cable ID
DCCALDATE	LABEL	5-7-2017	DC Calibration Date
ACCALDATE	LABEL	12/3/2015	AC Calibration Date
FRAMEWORKVERSION	QUANT	7.01	Framework Version
INSTRUMENTVERSION	LABEL	4.00	Instrument Version
CURVE	TABLE	74
	Pt	T	Vf	Im	Vu	Pwr	Sig	Ach	Temp	IERange	Over
	#	s	V	A	V	W	V	V	deg C	#	bits
	0	0.013333	2.58101E-001	1.00550E-004	0.00000E+000	2.59521E-005	5.99601E-002	2.58170E-001	3.57780E+000	9	...........
	1	0.026667	2.81220E-001	1.01168E-004	0.00000E+000	2.84504E-005	5.99601E-002	2.81277E-001	3.57780E+000	9	...........
	2	0.04	3.03102E-001	9.98197E-005	0.00000E+000	3.02556E-005	5.99601E-002	3.03165E-001	3.57780E+000	9	...........
	3	0.053333	3.24105E-001	1.01402E-004	0.00000E+000	3.28650E-005	5.99601E-002	3.24172E-001	3.57780E+000	9	...........
	4	0.066667	3.44397E-001	1.00749E-004	0.00000E+000	3.46977E-005	5.99601E-002	3.44471E-001	3.57780E+000	9	...........
	5	0.08	3.64094E-001	1.00748E-004	0.00000E+000	3.66817E-005	5.99601E-002	3.64174E-001	3.57780E+000	9	...........
	6	0.093333	3.83280E-001	1.00651E-004	0.00000E+000	3.85775E-005	5.99601E-002	3.83355E-001	3.57780E+000	9	...........
	7	0.106667	4.01983E-001	1.00906E-004	0.00000E+000	4.05626E-005	5.99601E-002	4.02063E-001	3.57780E+000	9	...........
	8	0.12	4.20259E-001	1.01941E-004	0.00000E+000	4.28416E-005	5.99601E-002	4.20347E-001	3.57780E+000	9	...........
	9	0.133333	4.38126E-001	9.99478E-005	0.00000E+000	4.37897E-005	5.99601E-002	4.38220E-001	3.57780E+000	9	...........
	10	0.146667	4.55597E-001	1.01759E-004	0.00000E+000	4.63609E-005	5.99601E-002	4.55697E-001	3.57780E+000	9	...........
	11	0.16	4.72692E-001	1.00655E-004	0.00000E+000	4.75790E-005	5.99601E-002	4.72789E-001	3.57780E+000	9	...........
	12	0.173333	4.89428E-001	1.00768E-004	0.00000E+000	4.93186E-005	5.99601E-002	4.89527E-001	3.57780E+000	9	...........
	13	0.186667	5.05786E-001	1.00779E-004	0.00000E+000	5.09727E-005	5.99601E-002	5.05891E-001	3.57780E+000	9	...........
	14	0.2	5.21793E-001	1.00746E-004	0.00000E+000	5.25685E-005	5.99601E-002	5.21902E-001	3.57780E+000	9	...........
	15	0.213333	5.37250E-001	1.00428E-004	0.00000E+000	5.39550E-005	5.99601E-002	5.37419E-001	3.57780E+000	9	...........
	16	0.226667	5.52394E-001	1.01334E-004	0.00000E+000	5.59761E-005	5.99601E-002	5.52672E-001	3.57780E+000	9	...........
	17	0.24	5.67397E-001	1.02720E-004	0.00000E+000	5.82832E-005	5.99601E-002	5.67657E-001	3.57780E+000	9	...........
	18	0.253333	5.81979E-001	1.00200E-004	0.00000E+000	5.83143E-005	5.99601E-002	5.82266E-001	3.57780E+000	9	...........
	19	0.266667	5.96263E-001	1.01202E-004	0.00000E+000	6.03432E-005	5.99601E-002	5.96553E-001	3.57780E+000	9	...........
	20	0.28	6.10201E-001	9.96248E-005	0.00000E+000	6.07912E-005	5.99601E-002	6.10477E-001	3.57780E+000	9	...........
	21	0.293333	6.23829E-001	1.01030E-004	0.00000E+000	6.30257E-005	5.99601E-002	6.24087E-001	3.57780E+000	9	...........
	22	0.306667	6.37102E-001	1.01790E-004	0.00000E+000	6.48505E-005	5.99601E-002	6.37351E-001	3.57780E+000	9	...........
	23	0.32	6.50062E-001	9.97676E-005	0.00000E+000	6.48551E-005	5.99601E-002	6.50304E-001	3.57780E+000	9	...........
	24	0.333333	6.62691E-001	1.00314E-004	0.00000E+000	6.64769E-005	5.99601E-002	6.62922E-001	3.57780E+000	9	...........
	25	0.346667	6.75007E-001	1.00445E-004	0.00000E+000	6.78010E-005	5.99601E-002	6.75223E-001	3.57780E+000	9	...........
	26	0.36	6.86973E-001	9.92175E-005	0.00000E+000	6.81597E-005	5.99601E-002	6.87203E-001	3.57780E+000	9	...........
	27	0.373333	6.98648E-001	1.00933E-004	0.00000E+000	7.05170E-005	5.99601E-002	6.98882E-001	3.57780E+000	9	...........
	28	0.386667	7.10020E-001	1.00791E-004	0.00000E+000	7.15634E-005	5.99601E-002	7.10251E-001	3.57780E+000	9	...........
	29	0.4	7.21107E-001	1.00733E-004	0.00000E+000	7.26395E-005	5.99601E-002	7.21325E-001	3.57780E+000	9	...........
	30	0.413333	7.31842E-001	1.01398E-004	0.00000E+000	7.42074E-005	5.99601E-002	7.32080E-001	3.57780E+000	9	...........
	31	0.426667	7.42282E-001	1.00159E-004	0.00000E+000	7.43465E-005	5.99601E-002	7.42536E-001	3.57780E+000	9	...........
	32	0.44	7.52481E-001	1.01117E-004	0.00000E+000	7.60885E-005	5.99601E-002	7.52731E-001	3.57780E+000	9	...........
	33	0.453333	7.62364E-001	9.97301E-005	0.00000E+000	7.60307E-005	5.99601E-002	7.62592E-001	3.57780E+000	9	...........
	34	0.466667	7.71934E-001	1.00744E-004	0.00000E+000	7.77676E-005	5.99601E-002	7.72214E-001	3.57780E+000	9	...........
	35	0.48	7.81260E-001	1.01749E-004	0.00000E+000	7.94926E-005	5.99601E-002	7.81526E-001	3.57780E+000	9	...........
	36	0.493333	7.90301E-001	1.01372E-004	0.00000E+000	8.01145E-005	5.99601E-002	7.90574E-001	3.57780E+000	9	...........
	37	0.506667	7.99098E-001	1.02039E-004	0.00000E+000	8.15391E-005	5.99601E-002	7.99347E-001	3.57780E+000	9	...........
	38	0.52	8.07587E-001	9.96780E-005	0.00000E+000	8.04987E-005	5.99601E-002	8.07857E-001	3.57780E+000	9	...........
	39	0.533333	8.15829E-001	1.00330E-004	0.00000E+000	8.18523E-005	5.99601E-002	8.16078E-001	3.57780E+000	9	...........
	40	0.546667	8.23833E-001	1.00777E-004	0.00000E+000	8.30236E-005	5.99601E-002	8.24097E-001	3.57710E+000	9	...........
	41	0.56	8.31544E-001	9.98395E-005	0.00000E+000	8.30209E-005	5.99601E-002	8.31808E-001	3.57700E+000	9	...........
	42	0.573333	8.39047E-001	1.02474E-004	0.00000E+000	8.59808E-005	5.99601E-002	8.39305E-001	3.57700E+000	9	...........
	43	0.586667	8.46308E-001	1.00063E-004	0.00000E+000	8.46845E-005	5.99601E-002	8.46582E-001	3.57700E+000	9	...........
	44	0.6	8.53323E-001	1.01966E-004	0.00000E+000	8.70099E-005	5.99601E-002	8.53607E-001	3.57700E+000	9	...........
	45	0.613333	8.60143E-001	1.02756E-004	0.00000E+000	8.83846E-005	5.99601E-002	8.60432E-001	3.57700E+000	9	...........
	46	0.626667	8.66719E-001	1.01152E-004	0.00000E+000	8.76706E-005	5.99601E-002	8.67042E-001	3.57700E+000	9	...........
	47	0.64	8.73174E-001	1.01459E-004	0.00000E+000	8.85910E-005	5.99601E-002	8.73476E-001	3.57700E+000	9	...........
	48	0.653333	8.79379E-001	1.01436E-004	0.00000E+000	8.92004E-005	5.99601E-002	8.79676E-001	3.57700E+000	9	...........
	49	0.666667	8.85449E-001	1.01724E-004	0.00000E+000	9.00716E-005	5.99601E-002	8.85736E-001	3.57700E+000	9	...........
	50	0.68	8.91331E-001	1.02096E-004	0.00000E+000	9.10015E-005	5.99601E-002	8.91623E-001	3.57700E+000	9	...........
	51	0.693333	8.97088E-001	1.00720E-004	0.00000E+000	9.03546E-005	5.99601E-002	8.97398E-001	3.57700E+000	9	...........
	52	0.706667	9.02688E-001	1.00987E-004	0.00000E+000	9.11593E-005	5.99601E-002	9.03008E-001	3.57700E+000	9	...........
	53	0.72	9.08165E-001	1.00576E-004	0.00000E+000	9.13396E-005	5.99601E-002	9.08494E-001	3.57700E+000	9	...........
	54	0.733333	9.13537E-001	1.00113E-004	0.00000E+000	9.14573E-005	5.99601E-002	9.13858E-001	3.57700E+000	9	...........
	55	0.746667	9.18792E-001	1.01151E-004	0.00000E+000	9.29369E-005	5.99601E-002	9.19129E-001	3.57700E+000	9	...........
	56	0.76	9.24013E-001	1.01341E-004	0.00000E+000	9.36402E-005	5.99601E-002	9.24290E-001	3.57700E+000	9	...........
	57	0.773333	9.29077E-001	1.00901E-004	0.00000E+000	9.37450E-005	5.99601E-002	9.29383E-001	3.57700E+000	9	...........
	58	0.786667	9.34054E-001	1.00385E-004	0.00000E+000	9.37654E-005	5.99601E-002	9.34358E-001	3.57700E+000	9	...........
	59	0.8	9.38918E-001	1.01164E-004	0.00000E+000	9.49845E-005	5.99601E-002	9.39245E-001	3.57700E+000	9	...........
	60	0.813333	9.43735E-001	1.02985E-004	0.00000E+000	9.71905E-005	5.99601E-002	9.44063E-001	3.57700E+000	9	...........
	61	0.826667	9.48526E-001	1.02550E-004	0.00000E+000	9.72718E-005	5.99601E-002	9.48853E-001	3.57700E+000	9	...........
	62	0.84	9.53192E-001	1.01163E-004	0.00000E+000	9.64275E-005	5.99601E-002	9.53505E-001	3.57700E+000	9	...........
	63	0.853333	9.57777E-001	1.01768E-004	0.00000E+000	9.74710E-005	5.99601E-002	9.58126E-001	3.57700E+000	9	...........
	64	0.866667	9.62278E-001	1.01462E-004	0.00000E+000	9.76344E-005	5.99601E-002	9.62656E-001	3.57700E+000	9	...........
	65	0.88	9.66739E-001	1.01471E-004	0.00000E+000	9.80960E-005	5.99601E-002	9.67086E-001	3.57700E+000	9	...........
	66	0.893333	9.71120E-001	1.01106E-004	0.00000E+000	9.81865E-005	5.99601E-002	9.71476E-001	3.57700E+000	9	...........
	67	0.906667	9.75459E-001	1.00624E-004	0.00000E+000	9.81547E-005	5.99601E-002	9.75783E-001	3.57700E+000	9	...........
	68	0.92	9.79663E-001	1.01373E-004	0.00000E+000	9.93116E-005	5.99601E-002	9.79994E-001	3.57700E+000	9	...........
	69	0.933333	9.83791E-001	1.01721E-004	0.00000E+000	1.00072E-004	5.99601E-002	9.84127E-001	3.57700E+000	9	...........
	70	0.946667	9.87857E-001	1.00507E-004	0.00000E+000	9.92868E-005	5.99601E-002	9.88166E-001	3.57700E+000	9	...........
	71	0.96	9.91811E-001	1.00120E-004	0.00000E+000	9.92998E-005	5.99601E-002	9.92145E-001	3.57700E+000	9	...........
	72	0.97333	9.95672E-001	1.00972E-004	0.00000E+000	1.00535E-004	5.99601E-002	9.96041E-001	3.57700E+000	9	...........
	73	0.98333	9.99046E-001	1.00303E-004	0.00000E+000	1.00208E-004	5.99601E-002	9.99369E-001	3.57700E+000	9	...........
STARTTIMEOFFSET	QUANT	1842.228	Start Time Offset (s)
