EXPLAIN
TAG	PWR800_CHARGE
TITLE	LABEL	PWR Cyclic Charge Discharge (Cell) - Charge Step	Test &Identifier
DATE	LABEL	12-7-2017	Date
TIME	LABEL	16:23:03	Time
NOTES	NOTES	2	&Notes...
	supercap test cell
	6M KOH
PSTAT	PSTAT	IFC5000-01520	Potentiostat
CAPACITY	QUANT	1.00000E-003	Capacity (A-hr)
CELLTYPE	SELECTOR	1	&Cell Type
WORKINGCONNECTION	SELECTOR	0	&Working Lead
MAXCHARGETIME	VARIABLEANDUNITS	1.00000E+002	s	1.00000E+002	second(s)	Max &Charge Time
CHARGECURRENT	QUANT	1.00000E-004	&Charge Current (A) 
VOLTAGEFINISH	TWOPARAM	F	1.00000E-003	3.60000E+003	&Voltage Finish	 I (A) < 	Max Time(s)
SAMPLETIME	QUANT	1.00000E-002	Sa&mple Period (s)
CHARGESTOPAT1	MULTIPARAM	4	1.00000E+000	Charge Stop At &1	Voltage > Limit	V
CHARGESTOPAT2	MULTIPARAM	0	0.00000E+000	Charge Stop At &2	None	N/A
AESBHCSELECTOR	TOGGLE	F	Save Both Half Cells
IRCOMP	TOGGLE	F	IR &Measure
EOC	QUANT	0	Open Circuit (V)
SEQUENCER	TOGGLE	TRUE	Run as Sequence
PSTATMODEL	IQUANT	53	Pstat Model
PSTATSECTION	LABEL	IFC5000-01520	Pstat Section
PSTATSERIALNO	LABEL	01520	Pstat Serial Number
CTRLMODE	IQUANT	0	Control Mode
ELECTROMETER	IQUANT	1	RE=0 or CS=1
IESTAB	IQUANT	0	I/E Stability
CASPEED	IQUANT	4	Control Amp Speed
CONVENTION	IQUANT	1	Current Convention
ICHRANGE	IQUANT	2	Ich Range
ICHRANGEMODE	TOGGLE	T	Ich Auto Range
ICHOFFSETENABLE	TOGGLE	F	Ich Offset Enable
ICHOFFSET	QUANT	0	Ich Offset (V)
ICHFILTER	IQUANT	1	Ich Filter
VCHRANGE	IQUANT	2	Vch Range
VCHRANGEMODE	TOGGLE	T	Vch Auto Range
VCHOFFSETENABLE	TOGGLE	F	Vch Offset Enable
VCHOFFSET	QUANT	0	Vch Offset (V)
VCHFILTER	IQUANT	1	Vch Filter
IERANGELOWERLIMIT	IQUANT	9	I/E Range Lower Limit
IERANGEMODE	TOGGLE	F	I/E AutoRange
IERANGE	IQUANT	9	I/E Range
ACHSELECT	IQUANT	1	Ach Select
ACHRANGE	IQUANT	2	Ach Range
ACHOFFSETENABLE	TOGGLE	F	Ach Offset Enable
ACHOFFSET	QUANT	0	Ach Offset (V)
ACHFILTER	IQUANT	1	Ach Filter
CABLEID	IQUANT	14	Cable ID
DCCALDATE	LABEL	5-7-2017	DC Calibration Date
ACCALDATE	LABEL	12/3/2015	AC Calibration Date
FRAMEWORKVERSION	QUANT	7.01	Framework Version
INSTRUMENTVERSION	LABEL	4.00	Instrument Version
CURVE	TABLE	78
	Pt	T	Vf	Im	Vu	Pwr	Sig	Ach	Temp	IERange	Over
	#	s	V	A	V	W	V	V	deg C	#	bits
	0	0.013333	2.61395E-001	1.00231E-004	0.00000E+000	2.62000E-005	5.99601E-002	2.61480E-001	3.57720E+000	9	...........
	1	0.026667	2.84164E-001	1.01235E-004	0.00000E+000	2.87672E-005	5.99601E-002	2.84230E-001	3.57720E+000	9	...........
	2	0.04	3.05494E-001	1.00990E-004	0.00000E+000	3.08518E-005	5.99601E-002	3.05559E-001	3.57720E+000	9	...........
	3	0.053333	3.25780E-001	1.00538E-004	0.00000E+000	3.27531E-005	5.99601E-002	3.25852E-001	3.57720E+000	9	...........
	4	0.066667	3.45234E-001	1.01337E-004	0.00000E+000	3.49848E-005	5.99601E-002	3.45308E-001	3.57720E+000	9	...........
	5	0.08	3.63999E-001	1.00694E-004	0.00000E+000	3.66524E-005	5.99601E-002	3.64071E-001	3.57720E+000	9	...........
	6	0.093333	3.82157E-001	1.01993E-004	0.00000E+000	3.89773E-005	5.99601E-002	3.82237E-001	3.57720E+000	9	...........
	7	0.106667	3.99792E-001	1.00494E-004	0.00000E+000	4.01766E-005	5.99601E-002	3.99880E-001	3.57720E+000	9	...........
	8	0.12	4.16959E-001	1.00104E-004	0.00000E+000	4.17393E-005	5.99601E-002	4.17053E-001	3.57720E+000	9	...........
	9	0.133333	4.33710E-001	1.00963E-004	0.00000E+000	4.37885E-005	5.99601E-002	4.33806E-001	3.57720E+000	9	...........
	10	0.146667	4.50052E-001	1.00320E-004	0.00000E+000	4.51492E-005	5.99601E-002	4.50151E-001	3.57720E+000	9	...........
	11	0.16	4.66020E-001	1.01280E-004	0.00000E+000	4.71987E-005	5.99601E-002	4.66122E-001	3.57720E+000	9	...........
	12	0.173333	4.81635E-001	1.00415E-004	0.00000E+000	4.83632E-005	5.99601E-002	4.81741E-001	3.57720E+000	9	...........
	13	0.186667	4.96925E-001	1.00664E-004	0.00000E+000	5.00222E-005	5.99601E-002	4.97028E-001	3.57720E+000	9	...........
	14	0.2	5.11875E-001	1.00921E-004	0.00000E+000	5.16589E-005	5.99601E-002	5.11990E-001	3.57720E+000	9	...........
	15	0.213333	5.26527E-001	1.00374E-004	0.00000E+000	5.28496E-005	5.99601E-002	5.26645E-001	3.57720E+000	9	...........
	16	0.226667	5.40601E-001	1.00825E-004	0.00000E+000	5.45061E-005	5.99601E-002	5.40811E-001	3.57720E+000	9	...........
	17	0.24	5.54639E-001	1.00590E-004	0.00000E+000	5.57909E-005	5.99601E-002	5.54881E-001	3.57720E+000	9	...........
	18	0.253333	5.68473E-001	1.00921E-004	0.00000E+000	5.73708E-005	5.99601E-002	5.68707E-001	3.57720E+000	9	...........
	19	0.266667	5.81949E-001	1.00515E-004	0.00000E+000	5.84944E-005	5.99601E-002	5.82215E-001	3.57720E+000	9	...........
	20	0.28	5.95209E-001	9.94936E-005	0.00000E+000	5.92195E-005	5.99601E-002	5.95468E-001	3.57720E+000	9	...........
	21	0.293333	6.08162E-001	1.00937E-004	0.00000E+000	6.13858E-005	5.99601E-002	6.08458E-001	3.57720E+000	9	...........
	22	0.306667	6.20970E-001	1.00830E-004	0.00000E+000	6.26126E-005	5.99601E-002	6.21212E-001	3.57720E+000	9	...........
	23	0.32	6.33422E-001	1.01616E-004	0.00000E+000	6.43657E-005	5.99601E-002	6.33702E-001	3.57720E+000	9	...........
	24	0.333333	6.45646E-001	1.01918E-004	0.00000E+000	6.58030E-005	5.99601E-002	6.45919E-001	3.57720E+000	9	...........
	25	0.346667	6.57638E-001	1.00892E-004	0.00000E+000	6.63503E-005	5.99601E-002	6.57894E-001	3.57720E+000	9	...........
	26	0.36	6.69371E-001	1.00767E-004	0.00000E+000	6.74504E-005	5.99601E-002	6.69639E-001	3.57720E+000	9	...........
	27	0.373333	6.80856E-001	1.01703E-004	0.00000E+000	6.92453E-005	5.99601E-002	6.81137E-001	3.57720E+000	9	...........
	28	0.386667	6.92095E-001	1.01629E-004	0.00000E+000	7.03372E-005	5.99601E-002	6.92355E-001	3.57720E+000	9	...........
	29	0.4	7.03085E-001	1.01520E-004	0.00000E+000	7.13772E-005	5.99601E-002	7.03348E-001	3.57720E+000	9	...........
	30	0.413333	7.13815E-001	1.01615E-004	0.00000E+000	7.25342E-005	5.99601E-002	7.14109E-001	3.57720E+000	9	...........
	31	0.426667	7.24365E-001	1.01007E-004	0.00000E+000	7.31663E-005	5.99601E-002	7.24649E-001	3.57720E+000	9	...........
	32	0.44	7.34625E-001	1.00682E-004	0.00000E+000	7.39638E-005	5.99601E-002	7.34891E-001	3.57720E+000	9	...........
	33	0.453333	7.44653E-001	1.01435E-004	0.00000E+000	7.55336E-005	5.99601E-002	7.44946E-001	3.57720E+000	9	...........
	34	0.466667	7.54460E-001	1.01808E-004	0.00000E+000	7.68098E-005	5.99601E-002	7.54721E-001	3.57720E+000	9	...........
	35	0.48	7.64014E-001	9.93904E-005	0.00000E+000	7.59357E-005	5.99601E-002	7.64294E-001	3.57720E+000	9	...........
	36	0.493333	7.73347E-001	1.01533E-004	0.00000E+000	7.85199E-005	5.99601E-002	7.73646E-001	3.57720E+000	9	...........
	37	0.506667	7.82426E-001	1.00653E-004	0.00000E+000	7.87536E-005	5.99601E-002	7.82717E-001	3.57720E+000	9	...........
	38	0.52	7.91291E-001	1.01970E-004	0.00000E+000	8.06881E-005	5.99601E-002	7.91598E-001	3.57720E+000	9	...........
	39	0.533333	7.99933E-001	1.01403E-004	0.00000E+000	8.11159E-005	5.99601E-002	8.00212E-001	3.57720E+000	9	...........
	40	0.546667	8.08314E-001	1.01702E-004	0.00000E+000	8.22074E-005	5.99601E-002	8.08600E-001	3.57720E+000	9	...........
	41	0.56	8.16501E-001	1.00815E-004	0.00000E+000	8.23153E-005	5.99601E-002	8.16783E-001	3.57720E+000	9	...........
	42	0.573333	8.24457E-001	1.01941E-004	0.00000E+000	8.40460E-005	5.99601E-002	8.24743E-001	3.57720E+000	9	...........
	43	0.586667	8.32159E-001	1.01292E-004	0.00000E+000	8.42909E-005	5.99601E-002	8.32467E-001	3.57720E+000	9	...........
	44	0.6	8.39653E-001	1.00471E-004	0.00000E+000	8.43607E-005	5.99601E-002	8.39976E-001	3.57720E+000	9	...........
	45	0.613333	8.46972E-001	1.00749E-004	0.00000E+000	8.53316E-005	5.99601E-002	8.47306E-001	3.57720E+000	9	...........
	46	0.626667	8.54061E-001	1.00186E-004	0.00000E+000	8.55653E-005	5.99601E-002	8.54374E-001	3.57900E+000	9	...........
	47	0.64	8.60926E-001	1.01982E-004	0.00000E+000	8.77986E-005	5.99601E-002	8.61284E-001	3.57900E+000	9	...........
	48	0.653333	8.67613E-001	1.00655E-004	0.00000E+000	8.73299E-005	5.99601E-002	8.67947E-001	3.57900E+000	9	...........
	49	0.666667	8.74076E-001	9.98645E-005	0.00000E+000	8.72891E-005	5.99601E-002	8.74426E-001	3.57900E+000	9	...........
	50	0.68	8.80349E-001	1.02093E-004	0.00000E+000	8.98776E-005	5.99601E-002	8.80696E-001	3.57900E+000	9	...........
	51	0.693333	8.86412E-001	1.00793E-004	0.00000E+000	8.93439E-005	5.99601E-002	8.86786E-001	3.57900E+000	9	...........
	52	0.706667	8.92302E-001	1.01312E-004	0.00000E+000	9.04006E-005	5.99601E-002	8.92647E-001	3.57900E+000	9	...........
	53	0.72	8.98033E-001	1.00832E-004	0.00000E+000	9.05508E-005	5.99601E-002	8.98375E-001	3.57900E+000	9	...........
	54	0.733333	9.03575E-001	1.01412E-004	0.00000E+000	9.16331E-005	5.99601E-002	9.03943E-001	3.57900E+000	9	...........
	55	0.746667	9.08991E-001	1.00157E-004	0.00000E+000	9.10421E-005	5.99601E-002	9.09339E-001	3.57900E+000	9	...........
	56	0.76	9.14239E-001	1.01021E-004	0.00000E+000	9.23573E-005	5.99601E-002	9.14578E-001	3.57900E+000	9	...........
	57	0.773333	9.19340E-001	1.01095E-004	0.00000E+000	9.29406E-005	5.99601E-002	9.19707E-001	3.57900E+000	9	...........
	58	0.786667	9.24376E-001	1.00921E-004	0.00000E+000	9.32889E-005	5.99601E-002	9.24719E-001	3.57900E+000	9	...........
	59	0.8	9.29256E-001	1.00879E-004	0.00000E+000	9.37427E-005	5.99601E-002	9.29582E-001	3.57900E+000	9	...........
	60	0.813333	9.33993E-001	1.01230E-004	0.00000E+000	9.45485E-005	5.99601E-002	9.34334E-001	3.57900E+000	9	...........
	61	0.826667	9.38631E-001	1.00379E-004	0.00000E+000	9.42190E-005	5.99601E-002	9.38990E-001	3.57900E+000	9	...........
	62	0.84	9.43189E-001	1.00584E-004	0.00000E+000	9.48701E-005	5.99601E-002	9.43518E-001	3.57900E+000	9	...........
	63	0.853333	9.47699E-001	1.00553E-004	0.00000E+000	9.52942E-005	5.99601E-002	9.48011E-001	3.57900E+000	9	...........
	64	0.866667	9.52066E-001	1.00404E-004	0.00000E+000	9.55914E-005	5.99601E-002	9.52411E-001	3.57900E+000	9	...........
	65	0.88	9.56367E-001	1.01734E-004	0.00000E+000	9.72947E-005	5.99601E-002	9.56671E-001	3.57900E+000	9	...........
	66	0.893333	9.60558E-001	1.00573E-004	0.00000E+000	9.66061E-005	5.99601E-002	9.60908E-001	3.57900E+000	9	...........
	67	0.906667	9.64687E-001	1.01016E-004	0.00000E+000	9.74486E-005	5.99601E-002	9.65014E-001	3.57900E+000	9	...........
	68	0.92	9.68741E-001	1.00560E-004	0.00000E+000	9.74170E-005	5.99601E-002	9.69081E-001	3.57900E+000	9	...........
	69	0.933333	9.72728E-001	1.00563E-004	0.00000E+000	9.78200E-005	5.99601E-002	9.73086E-001	3.57900E+000	9	...........
	70	0.946667	9.76649E-001	1.01325E-004	0.00000E+000	9.89591E-005	5.99601E-002	9.76981E-001	3.57900E+000	9	...........
	71	0.96	9.80469E-001	1.00551E-004	0.00000E+000	9.85872E-005	5.99601E-002	9.80785E-001	3.57900E+000	9	...........
	72	0.97333	9.84174E-001	1.01072E-004	0.00000E+000	9.94725E-005	5.99601E-002	9.84520E-001	3.57900E+000	9	...........
	73	0.98667	9.87837E-001	1.00913E-004	0.00000E+000	9.96852E-005	5.99601E-002	9.88176E-001	3.57900E+000	9	...........
	74	1	9.91370E-001	1.01295E-004	0.00000E+000	1.00421E-004	5.99601E-002	9.91744E-001	3.57900E+000	9	...........
	75	1.01333	9.94868E-001	1.01282E-004	0.00000E+000	1.00763E-004	5.99601E-002	9.95206E-001	3.57900E+000	9	...........
	76	1.02667	9.98298E-001	1.02099E-004	0.00000E+000	1.01926E-004	5.99601E-002	9.98642E-001	3.57900E+000	9	...........
	77	1.02833	1.00019E+000	1.02673E-004	0.00000E+000	1.02692E-004	5.99601E-002	1.00050E+000	3.57900E+000	9	...........
STARTTIMEOFFSET	QUANT	555.2368	Start Time Offset (s)
