EXPLAIN
TAG	PWR800_CHARGE
TITLE	LABEL	PWR Cyclic Charge Discharge (Cell) - Charge Step	Test &Identifier
DATE	LABEL	12-7-2017	Date
TIME	LABEL	16:48:38	Time
NOTES	NOTES	2	&Notes...
	supercap test cell
	6M KOH
PSTAT	PSTAT	IFC5000-01520	Potentiostat
CAPACITY	QUANT	1.00000E-003	Capacity (A-hr)
CELLTYPE	SELECTOR	1	&Cell Type
WORKINGCONNECTION	SELECTOR	0	&Working Lead
MAXCHARGETIME	VARIABLEANDUNITS	1.00000E+002	s	1.00000E+002	second(s)	Max &Charge Time
CHARGECURRENT	QUANT	1.00000E-004	&Charge Current (A) 
VOLTAGEFINISH	TWOPARAM	F	1.00000E-003	3.60000E+003	&Voltage Finish	 I (A) < 	Max Time(s)
SAMPLETIME	QUANT	1.00000E-002	Sa&mple Period (s)
CHARGESTOPAT1	MULTIPARAM	4	1.00000E+000	Charge Stop At &1	Voltage > Limit	V
CHARGESTOPAT2	MULTIPARAM	0	0.00000E+000	Charge Stop At &2	None	N/A
AESBHCSELECTOR	TOGGLE	F	Save Both Half Cells
IRCOMP	TOGGLE	F	IR &Measure
EOC	QUANT	0	Open Circuit (V)
SEQUENCER	TOGGLE	TRUE	Run as Sequence
PSTATMODEL	IQUANT	53	Pstat Model
PSTATSECTION	LABEL	IFC5000-01520	Pstat Section
PSTATSERIALNO	LABEL	01520	Pstat Serial Number
CTRLMODE	IQUANT	0	Control Mode
ELECTROMETER	IQUANT	1	RE=0 or CS=1
IESTAB	IQUANT	0	I/E Stability
CASPEED	IQUANT	4	Control Amp Speed
CONVENTION	IQUANT	1	Current Convention
ICHRANGE	IQUANT	2	Ich Range
ICHRANGEMODE	TOGGLE	T	Ich Auto Range
ICHOFFSETENABLE	TOGGLE	F	Ich Offset Enable
ICHOFFSET	QUANT	0	Ich Offset (V)
ICHFILTER	IQUANT	1	Ich Filter
VCHRANGE	IQUANT	2	Vch Range
VCHRANGEMODE	TOGGLE	T	Vch Auto Range
VCHOFFSETENABLE	TOGGLE	F	Vch Offset Enable
VCHOFFSET	QUANT	0	Vch Offset (V)
VCHFILTER	IQUANT	1	Vch Filter
IERANGELOWERLIMIT	IQUANT	9	I/E Range Lower Limit
IERANGEMODE	TOGGLE	F	I/E AutoRange
IERANGE	IQUANT	9	I/E Range
ACHSELECT	IQUANT	1	Ach Select
ACHRANGE	IQUANT	2	Ach Range
ACHOFFSETENABLE	TOGGLE	F	Ach Offset Enable
ACHOFFSET	QUANT	0	Ach Offset (V)
ACHFILTER	IQUANT	1	Ach Filter
CABLEID	IQUANT	14	Cable ID
DCCALDATE	LABEL	5-7-2017	DC Calibration Date
ACCALDATE	LABEL	12/3/2015	AC Calibration Date
FRAMEWORKVERSION	QUANT	7.01	Framework Version
INSTRUMENTVERSION	LABEL	4.00	Instrument Version
CURVE	TABLE	75
	Pt	T	Vf	Im	Vu	Pwr	Sig	Ach	Temp	IERange	Over
	#	s	V	A	V	W	V	V	deg C	#	bits
	0	0.013333	2.63380E-001	1.00034E-004	0.00000E+000	2.63471E-005	5.99601E-002	2.63452E-001	3.57790E+000	9	...........
	1	0.026667	2.86376E-001	1.01888E-004	0.00000E+000	2.91782E-005	5.99601E-002	2.86440E-001	3.57790E+000	9	...........
	2	0.04	3.08118E-001	1.00527E-004	0.00000E+000	3.09742E-005	5.99601E-002	3.08182E-001	3.57790E+000	9	...........
	3	0.053333	3.28961E-001	9.98864E-005	0.00000E+000	3.28587E-005	5.99601E-002	3.29028E-001	3.57790E+000	9	...........
	4	0.066667	3.49077E-001	1.01474E-004	0.00000E+000	3.54223E-005	5.99601E-002	3.49153E-001	3.57790E+000	9	...........
	5	0.08	3.68596E-001	1.00734E-004	0.00000E+000	3.71303E-005	5.99601E-002	3.68671E-001	3.57790E+000	9	...........
	6	0.093333	3.87581E-001	1.01088E-004	0.00000E+000	3.91797E-005	5.99601E-002	3.87663E-001	3.57790E+000	9	...........
	7	0.106667	4.06102E-001	1.01436E-004	0.00000E+000	4.11932E-005	5.99601E-002	4.06184E-001	3.57790E+000	9	...........
	8	0.12	4.24180E-001	1.00187E-004	0.00000E+000	4.24976E-005	5.99601E-002	4.24271E-001	3.57790E+000	9	...........
	9	0.133333	4.41861E-001	1.02381E-004	0.00000E+000	4.52380E-005	5.99601E-002	4.41957E-001	3.57790E+000	9	...........
	10	0.146667	4.59141E-001	1.00740E-004	0.00000E+000	4.62537E-005	5.99601E-002	4.59233E-001	3.57790E+000	9	...........
	11	0.16	4.76028E-001	1.01657E-004	0.00000E+000	4.83914E-005	5.99601E-002	4.76127E-001	3.57790E+000	9	...........
	12	0.173333	4.92551E-001	1.00899E-004	0.00000E+000	4.96980E-005	5.99601E-002	4.92655E-001	3.57790E+000	9	...........
	13	0.186667	5.08714E-001	1.01694E-004	0.00000E+000	5.17332E-005	5.99601E-002	5.08822E-001	3.57790E+000	9	...........
	14	0.2	5.24520E-001	1.01028E-004	0.00000E+000	5.29913E-005	5.99601E-002	5.24629E-001	3.57790E+000	9	...........
	15	0.213333	5.39724E-001	1.00755E-004	0.00000E+000	5.43800E-005	5.99601E-002	5.39964E-001	3.57790E+000	9	...........
	16	0.226667	5.54829E-001	1.00488E-004	0.00000E+000	5.57534E-005	5.99601E-002	5.55050E-001	3.57790E+000	9	...........
	17	0.24	5.69617E-001	9.98937E-005	0.00000E+000	5.69011E-005	5.99601E-002	5.69848E-001	3.57790E+000	9	...........
	18	0.253333	5.84062E-001	1.00821E-004	0.00000E+000	5.88857E-005	5.99601E-002	5.84311E-001	3.57790E+000	9	...........
	19	0.266667	5.98177E-001	1.01299E-004	0.00000E+000	6.05949E-005	5.99601E-002	5.98426E-001	3.57790E+000	9	...........
	20	0.28	6.11946E-001	1.02068E-004	0.00000E+000	6.24602E-005	5.99601E-002	6.12213E-001	3.57790E+000	9	...........
	21	0.293333	6.25414E-001	1.01495E-004	0.00000E+000	6.34764E-005	5.99601E-002	6.25676E-001	3.57790E+000	9	...........
	22	0.306667	6.38560E-001	1.01170E-004	0.00000E+000	6.46031E-005	5.99601E-002	6.38812E-001	3.57790E+000	9	...........
	23	0.32	6.51383E-001	1.00808E-004	0.00000E+000	6.56649E-005	5.99601E-002	6.51634E-001	3.57790E+000	9	...........
	24	0.333333	6.63881E-001	1.00290E-004	0.00000E+000	6.65803E-005	5.99601E-002	6.64119E-001	3.57790E+000	9	...........
	25	0.346667	6.76073E-001	1.00568E-004	0.00000E+000	6.79911E-005	5.99601E-002	6.76289E-001	3.57790E+000	9	...........
	26	0.36	6.87928E-001	1.01637E-004	0.00000E+000	6.99188E-005	5.99601E-002	6.88178E-001	3.57790E+000	9	...........
	27	0.373333	6.99504E-001	1.00724E-004	0.00000E+000	7.04568E-005	5.99601E-002	6.99767E-001	3.57790E+000	9	...........
	28	0.386667	7.10743E-001	1.00516E-004	0.00000E+000	7.14408E-005	5.99601E-002	7.11000E-001	3.57790E+000	9	...........
	29	0.4	7.21744E-001	1.01253E-004	0.00000E+000	7.30790E-005	5.99601E-002	7.21978E-001	3.57790E+000	9	...........
	30	0.413333	7.32413E-001	1.01139E-004	0.00000E+000	7.40753E-005	5.99601E-002	7.32669E-001	3.57790E+000	9	...........
	31	0.426667	7.42790E-001	1.02018E-004	0.00000E+000	7.57780E-005	5.99601E-002	7.43059E-001	3.57790E+000	9	...........
	32	0.44	7.52888E-001	1.01510E-004	0.00000E+000	7.64254E-005	5.99601E-002	7.53155E-001	3.57746E+000	9	...........
	33	0.453333	7.62693E-001	1.00679E-004	0.00000E+000	7.67874E-005	5.99601E-002	7.62970E-001	3.57720E+000	9	...........
	34	0.466667	7.72234E-001	9.93706E-005	0.00000E+000	7.67374E-005	5.99601E-002	7.72497E-001	3.57720E+000	9	...........
	35	0.48	7.81503E-001	1.00123E-004	0.00000E+000	7.82463E-005	5.99601E-002	7.81766E-001	3.57720E+000	9	...........
	36	0.493333	7.90504E-001	1.00900E-004	0.00000E+000	7.97619E-005	5.99601E-002	7.90759E-001	3.57720E+000	9	...........
	37	0.506667	7.99242E-001	1.01234E-004	0.00000E+000	8.09101E-005	5.99601E-002	7.99501E-001	3.57720E+000	9	...........
	38	0.52	8.07691E-001	1.01594E-004	0.00000E+000	8.20566E-005	5.99601E-002	8.07962E-001	3.57720E+000	9	...........
	39	0.533333	8.15894E-001	1.00800E-004	0.00000E+000	8.22422E-005	5.99601E-002	8.16172E-001	3.57720E+000	9	...........
	40	0.546667	8.23838E-001	1.00234E-004	0.00000E+000	8.25769E-005	5.99601E-002	8.24112E-001	3.57720E+000	9	...........
	41	0.56	8.31519E-001	1.00522E-004	0.00000E+000	8.35859E-005	5.99601E-002	8.31815E-001	3.57720E+000	9	...........
	42	0.573333	8.38974E-001	1.00913E-004	0.00000E+000	8.46631E-005	5.99601E-002	8.39273E-001	3.57720E+000	9	...........
	43	0.586667	8.46217E-001	9.95592E-005	0.00000E+000	8.42487E-005	5.99601E-002	8.46510E-001	3.57720E+000	9	...........
	44	0.6	8.53193E-001	1.00732E-004	0.00000E+000	8.59442E-005	5.99601E-002	8.53518E-001	3.57720E+000	9	...........
	45	0.613333	8.59992E-001	1.00890E-004	0.00000E+000	8.67643E-005	5.99601E-002	8.60304E-001	3.57720E+000	9	...........
	46	0.626667	8.66537E-001	1.00606E-004	0.00000E+000	8.71791E-005	5.99601E-002	8.66869E-001	3.57720E+000	9	...........
	47	0.64	8.72947E-001	1.01035E-004	0.00000E+000	8.81977E-005	5.99601E-002	8.73291E-001	3.57720E+000	9	...........
	48	0.653333	8.79138E-001	9.99874E-005	0.00000E+000	8.79027E-005	5.99601E-002	8.79472E-001	3.57720E+000	9	...........
	49	0.666667	8.85172E-001	1.01280E-004	0.00000E+000	8.96506E-005	5.99601E-002	8.85500E-001	3.57720E+000	9	...........
	50	0.68	8.91024E-001	1.01433E-004	0.00000E+000	9.03789E-005	5.99601E-002	8.91352E-001	3.57720E+000	9	...........
	51	0.693333	8.96737E-001	1.00987E-004	0.00000E+000	9.05584E-005	5.99601E-002	8.97085E-001	3.57720E+000	9	...........
	52	0.706667	9.02315E-001	1.01152E-004	0.00000E+000	9.12712E-005	5.99601E-002	9.02654E-001	3.57720E+000	9	...........
	53	0.72	9.07778E-001	1.00891E-004	0.00000E+000	9.15864E-005	5.99601E-002	9.08118E-001	3.57720E+000	9	...........
	54	0.733333	9.13110E-001	1.01190E-004	0.00000E+000	9.23974E-005	5.99601E-002	9.13420E-001	3.57720E+000	9	...........
	55	0.746667	9.18326E-001	1.01604E-004	0.00000E+000	9.33060E-005	5.99601E-002	9.18690E-001	3.57720E+000	9	...........
	56	0.76	9.23504E-001	1.00651E-004	0.00000E+000	9.29517E-005	5.99601E-002	9.23792E-001	3.57720E+000	9	...........
	57	0.773333	9.28513E-001	1.01334E-004	0.00000E+000	9.40895E-005	5.99601E-002	9.28838E-001	3.57720E+000	9	...........
	58	0.786667	9.33464E-001	1.00379E-004	0.00000E+000	9.37003E-005	5.99601E-002	9.33755E-001	3.57720E+000	9	...........
	59	0.8	9.38302E-001	1.00656E-004	0.00000E+000	9.44460E-005	5.99601E-002	9.38627E-001	3.57720E+000	9	...........
	60	0.813333	9.43079E-001	1.00736E-004	0.00000E+000	9.50015E-005	5.99601E-002	9.43399E-001	3.57720E+000	9	...........
	61	0.826667	9.47815E-001	1.00405E-004	0.00000E+000	9.51656E-005	5.99601E-002	9.48134E-001	3.57720E+000	9	...........
	62	0.84	9.52447E-001	1.00370E-004	0.00000E+000	9.55969E-005	5.99601E-002	9.52761E-001	3.57720E+000	9	...........
	63	0.853333	9.56989E-001	1.02640E-004	0.00000E+000	9.82254E-005	5.99601E-002	9.57304E-001	3.57720E+000	9	...........
	64	0.866667	9.61456E-001	9.95342E-005	0.00000E+000	9.56977E-005	5.99601E-002	9.61794E-001	3.57720E+000	9	...........
	65	0.88	9.65853E-001	1.01287E-004	0.00000E+000	9.78281E-005	5.99601E-002	9.66198E-001	3.57720E+000	9	...........
	66	0.893333	9.70171E-001	1.02012E-004	0.00000E+000	9.89689E-005	5.99601E-002	9.70536E-001	3.57720E+000	9	...........
	67	0.906667	9.74483E-001	1.02037E-004	0.00000E+000	9.94331E-005	5.99601E-002	9.74798E-001	3.57720E+000	9	...........
	68	0.92	9.78627E-001	1.01341E-004	0.00000E+000	9.91749E-005	5.99601E-002	9.78954E-001	3.57720E+000	9	...........
	69	0.933333	9.82718E-001	1.01072E-004	0.00000E+000	9.93253E-005	5.99601E-002	9.83049E-001	3.57720E+000	9	...........
	70	0.946667	9.86744E-001	1.02181E-004	0.00000E+000	1.00826E-004	5.99601E-002	9.87089E-001	3.57720E+000	9	...........
	71	0.96	9.90668E-001	9.96030E-005	0.00000E+000	9.86734E-005	5.99601E-002	9.91011E-001	3.57720E+000	9	...........
	72	0.97333	9.94507E-001	1.01953E-004	0.00000E+000	1.01393E-004	5.99601E-002	9.94867E-001	3.57720E+000	9	...........
	73	0.98667	9.98285E-001	1.00565E-004	0.00000E+000	1.00392E-004	5.99601E-002	9.98654E-001	3.57720E+000	9	...........
	74	0.98833	1.00038E+000	1.00373E-004	0.00000E+000	1.00411E-004	5.99601E-002	1.00074E+000	3.57720E+000	9	...........
STARTTIMEOFFSET	QUANT	1644.899	Start Time Offset (s)
