EXPLAIN
TAG	PWR800_CHARGE
TITLE	LABEL	PWR Cyclic Charge Discharge (Cell) - Charge Step	Test &Identifier
DATE	LABEL	12-7-2017	Date
TIME	LABEL	16:15:02	Time
NOTES	NOTES	2	&Notes...
	supercap test cell
	6M KOH
PSTAT	PSTAT	IFC5000-01520	Potentiostat
CAPACITY	QUANT	1.00000E-003	Capacity (A-hr)
CELLTYPE	SELECTOR	1	&Cell Type
WORKINGCONNECTION	SELECTOR	0	&Working Lead
MAXCHARGETIME	VARIABLEANDUNITS	1.00000E+002	s	1.00000E+002	second(s)	Max &Charge Time
CHARGECURRENT	QUANT	1.00000E-004	&Charge Current (A) 
VOLTAGEFINISH	TWOPARAM	F	1.00000E-003	3.60000E+003	&Voltage Finish	 I (A) < 	Max Time(s)
SAMPLETIME	QUANT	1.00000E-002	Sa&mple Period (s)
CHARGESTOPAT1	MULTIPARAM	4	1.00000E+000	Charge Stop At &1	Voltage > Limit	V
CHARGESTOPAT2	MULTIPARAM	0	0.00000E+000	Charge Stop At &2	None	N/A
AESBHCSELECTOR	TOGGLE	F	Save Both Half Cells
IRCOMP	TOGGLE	F	IR &Measure
EOC	QUANT	0	Open Circuit (V)
SEQUENCER	TOGGLE	TRUE	Run as Sequence
PSTATMODEL	IQUANT	53	Pstat Model
PSTATSECTION	LABEL	IFC5000-01520	Pstat Section
PSTATSERIALNO	LABEL	01520	Pstat Serial Number
CTRLMODE	IQUANT	0	Control Mode
ELECTROMETER	IQUANT	1	RE=0 or CS=1
IESTAB	IQUANT	0	I/E Stability
CASPEED	IQUANT	4	Control Amp Speed
CONVENTION	IQUANT	1	Current Convention
ICHRANGE	IQUANT	2	Ich Range
ICHRANGEMODE	TOGGLE	T	Ich Auto Range
ICHOFFSETENABLE	TOGGLE	F	Ich Offset Enable
ICHOFFSET	QUANT	0	Ich Offset (V)
ICHFILTER	IQUANT	1	Ich Filter
VCHRANGE	IQUANT	2	Vch Range
VCHRANGEMODE	TOGGLE	T	Vch Auto Range
VCHOFFSETENABLE	TOGGLE	F	Vch Offset Enable
VCHOFFSET	QUANT	0	Vch Offset (V)
VCHFILTER	IQUANT	1	Vch Filter
IERANGELOWERLIMIT	IQUANT	9	I/E Range Lower Limit
IERANGEMODE	TOGGLE	F	I/E AutoRange
IERANGE	IQUANT	9	I/E Range
ACHSELECT	IQUANT	1	Ach Select
ACHRANGE	IQUANT	2	Ach Range
ACHOFFSETENABLE	TOGGLE	F	Ach Offset Enable
ACHOFFSET	QUANT	0	Ach Offset (V)
ACHFILTER	IQUANT	1	Ach Filter
CABLEID	IQUANT	14	Cable ID
DCCALDATE	LABEL	5-7-2017	DC Calibration Date
ACCALDATE	LABEL	12/3/2015	AC Calibration Date
FRAMEWORKVERSION	QUANT	7.01	Framework Version
INSTRUMENTVERSION	LABEL	4.00	Instrument Version
CURVE	TABLE	80
	Pt	T	Vf	Im	Vu	Pwr	Sig	Ach	Temp	IERange	Over
	#	s	V	A	V	W	V	V	deg C	#	bits
	0	0.013333	2.63091E-001	1.01029E-004	0.00000E+000	2.65799E-005	5.99601E-002	2.63166E-001	3.57940E+000	9	...........
	1	0.026667	2.85750E-001	1.00416E-004	0.00000E+000	2.86938E-005	5.99601E-002	2.85807E-001	3.57940E+000	9	...........
	2	0.04	3.06807E-001	1.01243E-004	0.00000E+000	3.10621E-005	5.99601E-002	3.06876E-001	3.57940E+000	9	...........
	3	0.053333	3.26661E-001	1.00940E-004	0.00000E+000	3.29731E-005	5.99601E-002	3.26730E-001	3.57940E+000	9	...........
	4	0.066667	3.45527E-001	1.01223E-004	0.00000E+000	3.49753E-005	5.99601E-002	3.45595E-001	3.57940E+000	9	...........
	5	0.08	3.63563E-001	1.00476E-004	0.00000E+000	3.65294E-005	5.99601E-002	3.63638E-001	3.57940E+000	9	...........
	6	0.093333	3.80904E-001	1.00660E-004	0.00000E+000	3.83420E-005	5.99601E-002	3.80982E-001	3.57940E+000	9	...........
	7	0.106667	3.97629E-001	1.01133E-004	0.00000E+000	4.02136E-005	5.99601E-002	3.97707E-001	3.57940E+000	9	...........
	8	0.12	4.13812E-001	1.01203E-004	0.00000E+000	4.18791E-005	5.99601E-002	4.13899E-001	3.57940E+000	9	...........
	9	0.133333	4.29528E-001	1.00653E-004	0.00000E+000	4.32334E-005	5.99601E-002	4.29617E-001	3.57940E+000	9	...........
	10	0.146667	4.44825E-001	1.01044E-004	0.00000E+000	4.49468E-005	5.99601E-002	4.44916E-001	3.57940E+000	9	...........
	11	0.16	4.59733E-001	1.00266E-004	0.00000E+000	4.60954E-005	5.99601E-002	4.59827E-001	3.57940E+000	9	...........
	12	0.173333	4.74288E-001	1.00986E-004	0.00000E+000	4.78963E-005	5.99601E-002	4.74389E-001	3.57940E+000	9	...........
	13	0.186667	4.88515E-001	1.00745E-004	0.00000E+000	4.92154E-005	5.99601E-002	4.88620E-001	3.57940E+000	9	...........
	14	0.2	5.02433E-001	9.94269E-005	0.00000E+000	4.99554E-005	5.99601E-002	5.02541E-001	3.57940E+000	9	...........
	15	0.213333	5.16074E-001	1.01204E-004	0.00000E+000	5.22289E-005	5.99601E-002	5.16189E-001	3.57940E+000	9	...........
	16	0.226667	5.29404E-001	1.00340E-004	0.00000E+000	5.31202E-005	5.99601E-002	5.29530E-001	3.57940E+000	9	...........
	17	0.24	5.42261E-001	1.01435E-004	0.00000E+000	5.50040E-005	5.99601E-002	5.42505E-001	3.57940E+000	9	...........
	18	0.253333	5.55154E-001	1.01460E-004	0.00000E+000	5.63257E-005	5.99601E-002	5.55381E-001	3.57907E+000	9	...........
	19	0.266667	5.67833E-001	1.00568E-004	0.00000E+000	5.71056E-005	5.99601E-002	5.68058E-001	3.57810E+000	9	...........
	20	0.28	5.80235E-001	1.00859E-004	0.00000E+000	5.85222E-005	5.99601E-002	5.80496E-001	3.57810E+000	9	...........
	21	0.293333	5.92464E-001	1.01436E-004	0.00000E+000	6.00970E-005	5.99601E-002	5.92741E-001	3.57810E+000	9	...........
	22	0.306667	6.04434E-001	1.01327E-004	0.00000E+000	6.12456E-005	5.99601E-002	6.04748E-001	3.57810E+000	9	...........
	23	0.32	6.16278E-001	1.01955E-004	0.00000E+000	6.28323E-005	5.99601E-002	6.16572E-001	3.57810E+000	9	...........
	24	0.333333	6.27905E-001	1.01429E-004	0.00000E+000	6.36880E-005	5.99601E-002	6.28149E-001	3.57810E+000	9	...........
	25	0.346667	6.39324E-001	1.00823E-004	0.00000E+000	6.44586E-005	5.99601E-002	6.39539E-001	3.57810E+000	9	...........
	26	0.36	6.50549E-001	1.00673E-004	0.00000E+000	6.54927E-005	5.99601E-002	6.50767E-001	3.57810E+000	9	...........
	27	0.373333	6.61575E-001	1.00499E-004	0.00000E+000	6.64876E-005	5.99601E-002	6.61812E-001	3.57810E+000	9	...........
	28	0.386667	6.72456E-001	1.01312E-004	0.00000E+000	6.81277E-005	5.99601E-002	6.72692E-001	3.57810E+000	9	...........
	29	0.4	6.83104E-001	1.01053E-004	0.00000E+000	6.90299E-005	5.99601E-002	6.83347E-001	3.57810E+000	9	...........
	30	0.413333	6.93588E-001	1.00963E-004	0.00000E+000	7.00264E-005	5.99601E-002	6.93824E-001	3.57810E+000	9	...........
	31	0.426667	7.03887E-001	1.01464E-004	0.00000E+000	7.14190E-005	5.99601E-002	7.04124E-001	3.57810E+000	9	...........
	32	0.44	7.13988E-001	1.00941E-004	0.00000E+000	7.20705E-005	5.99601E-002	7.14241E-001	3.57810E+000	9	...........
	33	0.453333	7.23954E-001	1.00423E-004	0.00000E+000	7.27016E-005	5.99601E-002	7.24211E-001	3.57810E+000	9	...........
	34	0.466667	7.33683E-001	1.00612E-004	0.00000E+000	7.38169E-005	5.99601E-002	7.33969E-001	3.57810E+000	9	...........
	35	0.48	7.43251E-001	1.00081E-004	0.00000E+000	7.43855E-005	5.99601E-002	7.43530E-001	3.57810E+000	9	...........
	36	0.493333	7.52625E-001	1.01151E-004	0.00000E+000	7.61289E-005	5.99601E-002	7.52916E-001	3.57810E+000	9	...........
	37	0.506667	7.61824E-001	1.00492E-004	0.00000E+000	7.65570E-005	5.99601E-002	7.62117E-001	3.57810E+000	9	...........
	38	0.52	7.70864E-001	1.00664E-004	0.00000E+000	7.75979E-005	5.99601E-002	7.71170E-001	3.57810E+000	9	...........
	39	0.533333	7.79690E-001	1.01313E-004	0.00000E+000	7.89925E-005	5.99601E-002	7.79990E-001	3.57810E+000	9	...........
	40	0.546667	7.88325E-001	1.00961E-004	0.00000E+000	7.95898E-005	5.99601E-002	7.88624E-001	3.57810E+000	9	...........
	41	0.56	7.96803E-001	1.00659E-004	0.00000E+000	8.02058E-005	5.99601E-002	7.97099E-001	3.57810E+000	9	...........
	42	0.573333	8.05034E-001	1.00795E-004	0.00000E+000	8.11433E-005	5.99601E-002	8.05355E-001	3.57810E+000	9	...........
	43	0.586667	8.13112E-001	1.00714E-004	0.00000E+000	8.18914E-005	5.99601E-002	8.13438E-001	3.57810E+000	9	...........
	44	0.6	8.21010E-001	1.01676E-004	0.00000E+000	8.34773E-005	5.99601E-002	8.21338E-001	3.57810E+000	9	...........
	45	0.613333	8.28700E-001	1.01315E-004	0.00000E+000	8.39596E-005	5.99601E-002	8.29007E-001	3.57810E+000	9	...........
	46	0.626667	8.36203E-001	1.01299E-004	0.00000E+000	8.47067E-005	5.99601E-002	8.36507E-001	3.57810E+000	9	...........
	47	0.64	8.43549E-001	1.00704E-004	0.00000E+000	8.49490E-005	5.99601E-002	8.43862E-001	3.57810E+000	9	...........
	48	0.653333	8.50715E-001	1.01008E-004	0.00000E+000	8.59294E-005	5.99601E-002	8.51002E-001	3.57810E+000	9	...........
	49	0.666667	8.57673E-001	1.02088E-004	0.00000E+000	8.75580E-005	5.99601E-002	8.57997E-001	3.57810E+000	9	...........
	50	0.68	8.64472E-001	1.00857E-004	0.00000E+000	8.71884E-005	5.99601E-002	8.64799E-001	3.57810E+000	9	...........
	51	0.693333	8.71127E-001	1.00921E-004	0.00000E+000	8.79150E-005	5.99601E-002	8.71447E-001	3.57810E+000	9	...........
	52	0.706667	8.77566E-001	1.01157E-004	0.00000E+000	8.87723E-005	5.99601E-002	8.77857E-001	3.57810E+000	9	...........
	53	0.72	8.83838E-001	1.01242E-004	0.00000E+000	8.94814E-005	5.99601E-002	8.84168E-001	3.57810E+000	9	...........
	54	0.733333	8.89924E-001	1.00027E-004	0.00000E+000	8.90165E-005	5.99601E-002	8.90251E-001	3.57810E+000	9	...........
	55	0.746667	8.95836E-001	1.01036E-004	0.00000E+000	9.05113E-005	5.99601E-002	8.96214E-001	3.57810E+000	9	...........
	56	0.76	9.01607E-001	1.00846E-004	0.00000E+000	9.09234E-005	5.99601E-002	9.01949E-001	3.57810E+000	9	...........
	57	0.773333	9.07213E-001	1.00558E-004	0.00000E+000	9.12279E-005	5.99601E-002	9.07552E-001	3.57810E+000	9	...........
	58	0.786667	9.12667E-001	1.01677E-004	0.00000E+000	9.27976E-005	5.99601E-002	9.12999E-001	3.57810E+000	9	...........
	59	0.8	9.17939E-001	1.01751E-004	0.00000E+000	9.34016E-005	5.99601E-002	9.18293E-001	3.57810E+000	9	...........
	60	0.813333	9.23134E-001	1.00821E-004	0.00000E+000	9.30712E-005	5.99601E-002	9.23448E-001	3.57810E+000	9	...........
	61	0.826667	9.28107E-001	1.00533E-004	0.00000E+000	9.33057E-005	5.99601E-002	9.28429E-001	3.57810E+000	9	...........
	62	0.84	9.32955E-001	1.01327E-004	0.00000E+000	9.45338E-005	5.99601E-002	9.33278E-001	3.57810E+000	9	...........
	63	0.853333	9.37678E-001	1.01404E-004	0.00000E+000	9.50847E-005	5.99601E-002	9.38004E-001	3.57810E+000	9	...........
	64	0.866667	9.42282E-001	1.01083E-004	0.00000E+000	9.52492E-005	5.99601E-002	9.42593E-001	3.57810E+000	9	...........
	65	0.88	9.46769E-001	1.01440E-004	0.00000E+000	9.60401E-005	5.99601E-002	9.47115E-001	3.57810E+000	9	...........
	66	0.893333	9.51158E-001	1.01349E-004	0.00000E+000	9.63991E-005	5.99601E-002	9.51509E-001	3.57810E+000	9	...........
	67	0.906667	9.55397E-001	9.99270E-005	0.00000E+000	9.54699E-005	5.99601E-002	9.55768E-001	3.57810E+000	9	...........
	68	0.92	9.59566E-001	1.00550E-004	0.00000E+000	9.64844E-005	5.99601E-002	9.59918E-001	3.57810E+000	9	...........
	69	0.933333	9.63619E-001	1.00763E-004	0.00000E+000	9.70967E-005	5.99601E-002	9.63983E-001	3.57810E+000	9	...........
	70	0.946667	9.67599E-001	1.01039E-004	0.00000E+000	9.77649E-005	5.99601E-002	9.67958E-001	3.57810E+000	9	...........
	71	0.96	9.71494E-001	1.00457E-004	0.00000E+000	9.75937E-005	5.99601E-002	9.71866E-001	3.57810E+000	9	...........
	72	0.97333	9.75326E-001	1.00363E-004	0.00000E+000	9.78861E-005	5.99601E-002	9.75656E-001	3.57810E+000	9	...........
	73	0.98667	9.79038E-001	1.01366E-004	0.00000E+000	9.92410E-005	5.99601E-002	9.79376E-001	3.57810E+000	9	...........
	74	1	9.82662E-001	9.98937E-005	0.00000E+000	9.81617E-005	5.99601E-002	9.82981E-001	3.57810E+000	9	...........
	75	1.01333	9.86213E-001	1.01535E-004	0.00000E+000	1.00135E-004	5.99601E-002	9.86555E-001	3.57810E+000	9	...........
	76	1.02667	9.89658E-001	1.00952E-004	0.00000E+000	9.99082E-005	5.99601E-002	9.90026E-001	3.57810E+000	9	...........
	77	1.04	9.93001E-001	1.00897E-004	0.00000E+000	1.00191E-004	5.99601E-002	9.93381E-001	3.57810E+000	9	...........
	78	1.05333	9.96307E-001	1.01094E-004	0.00000E+000	1.00721E-004	5.99601E-002	9.96649E-001	3.57810E+000	9	...........
	79	1.06333	9.99111E-001	1.01719E-004	0.00000E+000	1.01629E-004	5.99601E-002	9.99484E-001	3.57810E+000	9	...........
STARTTIMEOFFSET	QUANT	212.4016	Start Time Offset (s)
