EXPLAIN
TAG	PWR800_CHARGE
TITLE	LABEL	PWR Cyclic Charge Discharge (Cell) - Charge Step	Test &Identifier
DATE	LABEL	12-7-2017	Date
TIME	LABEL	16:33:27	Time
NOTES	NOTES	2	&Notes...
	supercap test cell
	6M KOH
PSTAT	PSTAT	IFC5000-01520	Potentiostat
CAPACITY	QUANT	1.00000E-003	Capacity (A-hr)
CELLTYPE	SELECTOR	1	&Cell Type
WORKINGCONNECTION	SELECTOR	0	&Working Lead
MAXCHARGETIME	VARIABLEANDUNITS	1.00000E+002	s	1.00000E+002	second(s)	Max &Charge Time
CHARGECURRENT	QUANT	1.00000E-004	&Charge Current (A) 
VOLTAGEFINISH	TWOPARAM	F	1.00000E-003	3.60000E+003	&Voltage Finish	 I (A) < 	Max Time(s)
SAMPLETIME	QUANT	1.00000E-002	Sa&mple Period (s)
CHARGESTOPAT1	MULTIPARAM	4	1.00000E+000	Charge Stop At &1	Voltage > Limit	V
CHARGESTOPAT2	MULTIPARAM	0	0.00000E+000	Charge Stop At &2	None	N/A
AESBHCSELECTOR	TOGGLE	F	Save Both Half Cells
IRCOMP	TOGGLE	F	IR &Measure
EOC	QUANT	0	Open Circuit (V)
SEQUENCER	TOGGLE	TRUE	Run as Sequence
PSTATMODEL	IQUANT	53	Pstat Model
PSTATSECTION	LABEL	IFC5000-01520	Pstat Section
PSTATSERIALNO	LABEL	01520	Pstat Serial Number
CTRLMODE	IQUANT	0	Control Mode
ELECTROMETER	IQUANT	1	RE=0 or CS=1
IESTAB	IQUANT	0	I/E Stability
CASPEED	IQUANT	4	Control Amp Speed
CONVENTION	IQUANT	1	Current Convention
ICHRANGE	IQUANT	2	Ich Range
ICHRANGEMODE	TOGGLE	T	Ich Auto Range
ICHOFFSETENABLE	TOGGLE	F	Ich Offset Enable
ICHOFFSET	QUANT	0	Ich Offset (V)
ICHFILTER	IQUANT	1	Ich Filter
VCHRANGE	IQUANT	2	Vch Range
VCHRANGEMODE	TOGGLE	T	Vch Auto Range
VCHOFFSETENABLE	TOGGLE	F	Vch Offset Enable
VCHOFFSET	QUANT	0	Vch Offset (V)
VCHFILTER	IQUANT	1	Vch Filter
IERANGELOWERLIMIT	IQUANT	9	I/E Range Lower Limit
IERANGEMODE	TOGGLE	F	I/E AutoRange
IERANGE	IQUANT	9	I/E Range
ACHSELECT	IQUANT	1	Ach Select
ACHRANGE	IQUANT	2	Ach Range
ACHOFFSETENABLE	TOGGLE	F	Ach Offset Enable
ACHOFFSET	QUANT	0	Ach Offset (V)
ACHFILTER	IQUANT	1	Ach Filter
CABLEID	IQUANT	14	Cable ID
DCCALDATE	LABEL	5-7-2017	DC Calibration Date
ACCALDATE	LABEL	12/3/2015	AC Calibration Date
FRAMEWORKVERSION	QUANT	7.01	Framework Version
INSTRUMENTVERSION	LABEL	4.00	Instrument Version
CURVE	TABLE	76
	Pt	T	Vf	Im	Vu	Pwr	Sig	Ach	Temp	IERange	Over
	#	s	V	A	V	W	V	V	deg C	#	bits
	0	0.013333	2.58124E-001	1.01326E-004	0.00000E+000	2.61547E-005	5.99601E-002	2.58209E-001	3.57690E+000	9	...........
	1	0.026667	2.81064E-001	9.98905E-005	0.00000E+000	2.80757E-005	5.99601E-002	2.81133E-001	3.57690E+000	9	...........
	2	0.04	3.02698E-001	1.01511E-004	0.00000E+000	3.07271E-005	5.99601E-002	3.02764E-001	3.57690E+000	9	...........
	3	0.053333	3.23391E-001	1.00207E-004	0.00000E+000	3.24061E-005	5.99601E-002	3.23460E-001	3.57690E+000	9	...........
	4	0.066667	3.43331E-001	1.01038E-004	0.00000E+000	3.46893E-005	5.99601E-002	3.43406E-001	3.57690E+000	9	...........
	5	0.08	3.62645E-001	1.00569E-004	0.00000E+000	3.64708E-005	5.99601E-002	3.62723E-001	3.57690E+000	9	...........
	6	0.093333	3.81420E-001	1.01897E-004	0.00000E+000	3.88656E-005	5.99601E-002	3.81493E-001	3.57690E+000	9	...........
	7	0.106667	3.99696E-001	1.01003E-004	0.00000E+000	4.03706E-005	5.99601E-002	3.99777E-001	3.57690E+000	9	...........
	8	0.12	4.17518E-001	1.00143E-004	0.00000E+000	4.18114E-005	5.99601E-002	4.17607E-001	3.57690E+000	9	...........
	9	0.133333	4.34927E-001	1.01078E-004	0.00000E+000	4.39616E-005	5.99601E-002	4.35022E-001	3.57770E+000	9	...........
	10	0.146667	4.51950E-001	1.01461E-004	0.00000E+000	4.58551E-005	5.99601E-002	4.52039E-001	3.57770E+000	9	...........
	11	0.16	4.68582E-001	1.00781E-004	0.00000E+000	4.72243E-005	5.99601E-002	4.68685E-001	3.57770E+000	9	...........
	12	0.173333	4.84865E-001	1.00866E-004	0.00000E+000	4.89063E-005	5.99601E-002	4.84962E-001	3.57770E+000	9	...........
	13	0.186667	5.00785E-001	1.00685E-004	0.00000E+000	5.04218E-005	5.99601E-002	5.00891E-001	3.57770E+000	9	...........
	14	0.2	5.16362E-001	1.00468E-004	0.00000E+000	5.18777E-005	5.99601E-002	5.16473E-001	3.57770E+000	9	...........
	15	0.213333	5.31546E-001	1.01672E-004	0.00000E+000	5.40434E-005	5.99601E-002	5.31654E-001	3.57770E+000	9	...........
	16	0.226667	5.46265E-001	9.94706E-005	0.00000E+000	5.43373E-005	5.99601E-002	5.46469E-001	3.57770E+000	9	...........
	17	0.24	5.60865E-001	1.01285E-004	0.00000E+000	5.68070E-005	5.99601E-002	5.61100E-001	3.57770E+000	9	...........
	18	0.253333	5.75183E-001	1.01003E-004	0.00000E+000	5.80953E-005	5.99601E-002	5.75402E-001	3.57770E+000	9	...........
	19	0.266667	5.89155E-001	1.01551E-004	0.00000E+000	5.98295E-005	5.99601E-002	5.89410E-001	3.57770E+000	9	...........
	20	0.28	6.02832E-001	1.00055E-004	0.00000E+000	6.03164E-005	5.99601E-002	6.03078E-001	3.57770E+000	9	...........
	21	0.293333	6.16204E-001	1.02316E-004	0.00000E+000	6.30476E-005	5.99601E-002	6.16471E-001	3.57770E+000	9	...........
	22	0.306667	6.29319E-001	1.01323E-004	0.00000E+000	6.37646E-005	5.99601E-002	6.29537E-001	3.57770E+000	9	...........
	23	0.32	6.42102E-001	1.01876E-004	0.00000E+000	6.54151E-005	5.99601E-002	6.42337E-001	3.57770E+000	9	...........
	24	0.333333	6.54566E-001	1.01221E-004	0.00000E+000	6.62558E-005	5.99601E-002	6.54839E-001	3.57770E+000	9	...........
	25	0.346667	6.66784E-001	1.01225E-004	0.00000E+000	6.74953E-005	5.99601E-002	6.67039E-001	3.57770E+000	9	...........
	26	0.36	6.78706E-001	1.01882E-004	0.00000E+000	6.91476E-005	5.99601E-002	6.78964E-001	3.57770E+000	9	...........
	27	0.373333	6.90318E-001	1.00723E-004	0.00000E+000	6.95309E-005	5.99601E-002	6.90587E-001	3.57770E+000	9	...........
	28	0.386667	7.01662E-001	1.01778E-004	0.00000E+000	7.14141E-005	5.99601E-002	7.01927E-001	3.57770E+000	9	...........
	29	0.4	7.12706E-001	1.01562E-004	0.00000E+000	7.23837E-005	5.99601E-002	7.12996E-001	3.57770E+000	9	...........
	30	0.413333	7.23529E-001	1.01972E-004	0.00000E+000	7.37798E-005	5.99601E-002	7.23811E-001	3.57770E+000	9	...........
	31	0.426667	7.34025E-001	1.00345E-004	0.00000E+000	7.36556E-005	5.99601E-002	7.34313E-001	3.57770E+000	9	...........
	32	0.44	7.44262E-001	1.01486E-004	0.00000E+000	7.55319E-005	5.99601E-002	7.44552E-001	3.57770E+000	9	...........
	33	0.453333	7.54251E-001	1.01195E-004	0.00000E+000	7.63264E-005	5.99601E-002	7.54525E-001	3.57770E+000	9	...........
	34	0.466667	7.63934E-001	1.01399E-004	0.00000E+000	7.74623E-005	5.99601E-002	7.64232E-001	3.57770E+000	9	...........
	35	0.48	7.73387E-001	1.01265E-004	0.00000E+000	7.83169E-005	5.99601E-002	7.73695E-001	3.57770E+000	9	...........
	36	0.493333	7.82588E-001	1.00349E-004	0.00000E+000	7.85319E-005	5.99601E-002	7.82867E-001	3.57770E+000	9	...........
	37	0.506667	7.91529E-001	1.00309E-004	0.00000E+000	7.93978E-005	5.99601E-002	7.91800E-001	3.57770E+000	9	...........
	38	0.52	8.00218E-001	1.02434E-004	0.00000E+000	8.19694E-005	5.99601E-002	8.00487E-001	3.57770E+000	9	...........
	39	0.533333	8.08609E-001	1.00231E-004	0.00000E+000	8.10479E-005	5.99601E-002	8.08895E-001	3.57770E+000	9	...........
	40	0.546667	8.16760E-001	1.01764E-004	0.00000E+000	8.31166E-005	5.99601E-002	8.17093E-001	3.57770E+000	9	...........
	41	0.56	8.24723E-001	1.01136E-004	0.00000E+000	8.34088E-005	5.99601E-002	8.25018E-001	3.57770E+000	9	...........
	42	0.573333	8.32385E-001	1.00503E-004	0.00000E+000	8.36574E-005	5.99601E-002	8.32701E-001	3.57770E+000	9	...........
	43	0.586667	8.39836E-001	1.01101E-004	0.00000E+000	8.49084E-005	5.99601E-002	8.40131E-001	3.57770E+000	9	...........
	44	0.6	8.47067E-001	1.00559E-004	0.00000E+000	8.51806E-005	5.99601E-002	8.47383E-001	3.57770E+000	9	...........
	45	0.613333	8.54052E-001	1.00369E-004	0.00000E+000	8.57201E-005	5.99601E-002	8.54378E-001	3.57770E+000	9	...........
	46	0.626667	8.60813E-001	1.01792E-004	0.00000E+000	8.76239E-005	5.99601E-002	8.61176E-001	3.57770E+000	9	...........
	47	0.64	8.67374E-001	1.02242E-004	0.00000E+000	8.86822E-005	5.99601E-002	8.67741E-001	3.57770E+000	9	...........
	48	0.653333	8.73752E-001	1.01595E-004	0.00000E+000	8.87689E-005	5.99601E-002	8.74104E-001	3.57770E+000	9	...........
	49	0.666667	8.79925E-001	9.94196E-005	0.00000E+000	8.74818E-005	5.99601E-002	8.80278E-001	3.57770E+000	9	...........
	50	0.68	8.85918E-001	1.00331E-004	0.00000E+000	8.88852E-005	5.99601E-002	8.86275E-001	3.57770E+000	9	...........
	51	0.693333	8.91755E-001	1.01877E-004	0.00000E+000	9.08497E-005	5.99601E-002	8.92062E-001	3.57770E+000	9	...........
	52	0.706667	8.97417E-001	1.01840E-004	0.00000E+000	9.13928E-005	5.99601E-002	8.97780E-001	3.57770E+000	9	...........
	53	0.72	9.02919E-001	1.01130E-004	0.00000E+000	9.13125E-005	5.99601E-002	9.03285E-001	3.57770E+000	9	...........
	54	0.733333	9.08322E-001	1.01182E-004	0.00000E+000	9.19063E-005	5.99601E-002	9.08673E-001	3.57770E+000	9	...........
	55	0.746667	9.13590E-001	1.00805E-004	0.00000E+000	9.20948E-005	5.99601E-002	9.13933E-001	3.57770E+000	9	...........
	56	0.76	9.18725E-001	1.01786E-004	0.00000E+000	9.35131E-005	5.99601E-002	9.19082E-001	3.57770E+000	9	...........
	57	0.773333	9.23812E-001	1.01311E-004	0.00000E+000	9.35919E-005	5.99601E-002	9.24114E-001	3.57770E+000	9	...........
	58	0.786667	9.28733E-001	1.00668E-004	0.00000E+000	9.34935E-005	5.99601E-002	9.29027E-001	3.57770E+000	9	...........
	59	0.8	9.33576E-001	1.00007E-004	0.00000E+000	9.33644E-005	5.99601E-002	9.33868E-001	3.57770E+000	9	...........
	60	0.813333	9.38322E-001	1.00946E-004	0.00000E+000	9.47198E-005	5.99601E-002	9.38618E-001	3.57770E+000	9	...........
	61	0.826667	9.42941E-001	1.01120E-004	0.00000E+000	9.53502E-005	5.99601E-002	9.43256E-001	3.57770E+000	9	...........
	62	0.84	9.47543E-001	1.00651E-004	0.00000E+000	9.53712E-005	5.99601E-002	9.47865E-001	3.57770E+000	9	...........
	63	0.853333	9.52032E-001	1.00932E-004	0.00000E+000	9.60909E-005	5.99601E-002	9.52350E-001	3.57770E+000	9	...........
	64	0.866667	9.56444E-001	1.00837E-004	0.00000E+000	9.64445E-005	5.99601E-002	9.56771E-001	3.57770E+000	9	...........
	65	0.88	9.60783E-001	9.98634E-005	0.00000E+000	9.59471E-005	5.99601E-002	9.61111E-001	3.57770E+000	9	...........
	66	0.893333	9.65024E-001	1.00009E-004	0.00000E+000	9.65114E-005	5.99601E-002	9.65369E-001	3.57770E+000	9	...........
	67	0.906667	9.69217E-001	1.01350E-004	0.00000E+000	9.82304E-005	5.99601E-002	9.69554E-001	3.57770E+000	9	...........
	68	0.92	9.73357E-001	9.93915E-005	0.00000E+000	9.67434E-005	5.99601E-002	9.73710E-001	3.57770E+000	9	...........
	69	0.933333	9.77388E-001	9.96248E-005	0.00000E+000	9.73721E-005	5.99601E-002	9.77704E-001	3.57770E+000	9	...........
	70	0.946667	9.81347E-001	1.01272E-004	0.00000E+000	9.93830E-005	5.99601E-002	9.81656E-001	3.57770E+000	9	...........
	71	0.96	9.85216E-001	1.02404E-004	0.00000E+000	1.00890E-004	5.99601E-002	9.85552E-001	3.57770E+000	9	...........
	72	0.97333	9.89028E-001	1.00873E-004	0.00000E+000	9.97663E-005	5.99601E-002	9.89350E-001	3.57770E+000	9	...........
	73	0.98667	9.92712E-001	1.00544E-004	0.00000E+000	9.98110E-005	5.99601E-002	9.93042E-001	3.57770E+000	9	...........
	74	1	9.96353E-001	1.00784E-004	0.00000E+000	1.00417E-004	5.99601E-002	9.96694E-001	3.57770E+000	9	...........
	75	1.00833	9.99238E-001	1.01103E-004	0.00000E+000	1.01026E-004	5.99601E-002	9.99595E-001	3.57770E+000	9	...........
STARTTIMEOFFSET	QUANT	1000.611	Start Time Offset (s)
