EXPLAIN
TAG	PWR800_CHARGE
TITLE	LABEL	PWR Cyclic Charge Discharge (Cell) - Charge Step	Test &Identifier
DATE	LABEL	12-7-2017	Date
TIME	LABEL	16:37:01	Time
NOTES	NOTES	2	&Notes...
	supercap test cell
	6M KOH
PSTAT	PSTAT	IFC5000-01520	Potentiostat
CAPACITY	QUANT	1.00000E-003	Capacity (A-hr)
CELLTYPE	SELECTOR	1	&Cell Type
WORKINGCONNECTION	SELECTOR	0	&Working Lead
MAXCHARGETIME	VARIABLEANDUNITS	1.00000E+002	s	1.00000E+002	second(s)	Max &Charge Time
CHARGECURRENT	QUANT	1.00000E-004	&Charge Current (A) 
VOLTAGEFINISH	TWOPARAM	F	1.00000E-003	3.60000E+003	&Voltage Finish	 I (A) < 	Max Time(s)
SAMPLETIME	QUANT	1.00000E-002	Sa&mple Period (s)
CHARGESTOPAT1	MULTIPARAM	4	1.00000E+000	Charge Stop At &1	Voltage > Limit	V
CHARGESTOPAT2	MULTIPARAM	0	0.00000E+000	Charge Stop At &2	None	N/A
AESBHCSELECTOR	TOGGLE	F	Save Both Half Cells
IRCOMP	TOGGLE	F	IR &Measure
EOC	QUANT	0	Open Circuit (V)
SEQUENCER	TOGGLE	TRUE	Run as Sequence
PSTATMODEL	IQUANT	53	Pstat Model
PSTATSECTION	LABEL	IFC5000-01520	Pstat Section
PSTATSERIALNO	LABEL	01520	Pstat Serial Number
CTRLMODE	IQUANT	0	Control Mode
ELECTROMETER	IQUANT	1	RE=0 or CS=1
IESTAB	IQUANT	0	I/E Stability
CASPEED	IQUANT	4	Control Amp Speed
CONVENTION	IQUANT	1	Current Convention
ICHRANGE	IQUANT	2	Ich Range
ICHRANGEMODE	TOGGLE	T	Ich Auto Range
ICHOFFSETENABLE	TOGGLE	F	Ich Offset Enable
ICHOFFSET	QUANT	0	Ich Offset (V)
ICHFILTER	IQUANT	1	Ich Filter
VCHRANGE	IQUANT	2	Vch Range
VCHRANGEMODE	TOGGLE	T	Vch Auto Range
VCHOFFSETENABLE	TOGGLE	F	Vch Offset Enable
VCHOFFSET	QUANT	0	Vch Offset (V)
VCHFILTER	IQUANT	1	Vch Filter
IERANGELOWERLIMIT	IQUANT	9	I/E Range Lower Limit
IERANGEMODE	TOGGLE	F	I/E AutoRange
IERANGE	IQUANT	9	I/E Range
ACHSELECT	IQUANT	1	Ach Select
ACHRANGE	IQUANT	2	Ach Range
ACHOFFSETENABLE	TOGGLE	F	Ach Offset Enable
ACHOFFSET	QUANT	0	Ach Offset (V)
ACHFILTER	IQUANT	1	Ach Filter
CABLEID	IQUANT	14	Cable ID
DCCALDATE	LABEL	5-7-2017	DC Calibration Date
ACCALDATE	LABEL	12/3/2015	AC Calibration Date
FRAMEWORKVERSION	QUANT	7.01	Framework Version
INSTRUMENTVERSION	LABEL	4.00	Instrument Version
CURVE	TABLE	76
	Pt	T	Vf	Im	Vu	Pwr	Sig	Ach	Temp	IERange	Over
	#	s	V	A	V	W	V	V	deg C	#	bits
	0	0.013333	2.58636E-001	9.97342E-005	0.00000E+000	2.57949E-005	5.99601E-002	2.58704E-001	3.57660E+000	9	...........
	1	0.026667	2.81589E-001	1.01221E-004	0.00000E+000	2.85027E-005	5.99601E-002	2.81648E-001	3.57660E+000	9	...........
	2	0.04	3.03249E-001	9.97103E-005	0.00000E+000	3.02371E-005	5.99601E-002	3.03311E-001	3.57660E+000	9	...........
	3	0.053333	3.23994E-001	9.98937E-005	0.00000E+000	3.23650E-005	5.99601E-002	3.24065E-001	3.57660E+000	9	...........
	4	0.066667	3.43994E-001	1.00308E-004	0.00000E+000	3.45054E-005	5.99601E-002	3.44065E-001	3.57660E+000	9	...........
	5	0.08	3.63394E-001	1.00868E-004	0.00000E+000	3.66548E-005	5.99601E-002	3.63460E-001	3.57660E+000	9	...........
	6	0.093333	3.82240E-001	1.00719E-004	0.00000E+000	3.84987E-005	5.99601E-002	3.82316E-001	3.57660E+000	9	...........
	7	0.106667	4.00608E-001	1.01035E-004	0.00000E+000	4.04752E-005	5.99601E-002	4.00685E-001	3.57660E+000	9	...........
	8	0.12	4.18521E-001	1.00146E-004	0.00000E+000	4.19131E-005	5.99601E-002	4.18610E-001	3.57660E+000	9	...........
	9	0.133333	4.36026E-001	1.01619E-004	0.00000E+000	4.43085E-005	5.99601E-002	4.36112E-001	3.57660E+000	9	...........
	10	0.146667	4.53136E-001	1.01191E-004	0.00000E+000	4.58532E-005	5.99601E-002	4.53228E-001	3.57660E+000	9	...........
	11	0.16	4.69871E-001	1.02273E-004	0.00000E+000	4.80552E-005	5.99601E-002	4.69968E-001	3.57660E+000	9	...........
	12	0.173333	4.86241E-001	1.01383E-004	0.00000E+000	4.92963E-005	5.99601E-002	4.86340E-001	3.57660E+000	9	...........
	13	0.186667	5.02255E-001	1.00602E-004	0.00000E+000	5.05279E-005	5.99601E-002	5.02363E-001	3.57660E+000	9	...........
	14	0.2	5.17927E-001	1.00672E-004	0.00000E+000	5.21408E-005	5.99601E-002	5.18042E-001	3.57660E+000	9	...........
	15	0.213333	5.33138E-001	1.00739E-004	0.00000E+000	5.37076E-005	5.99601E-002	5.33303E-001	3.57660E+000	9	...........
	16	0.226667	5.47930E-001	1.00323E-004	0.00000E+000	5.49700E-005	5.99601E-002	5.48194E-001	3.57660E+000	9	...........
	17	0.24	5.62638E-001	1.01653E-004	0.00000E+000	5.71941E-005	5.99601E-002	5.62886E-001	3.57660E+000	9	...........
	18	0.253333	5.76992E-001	1.00922E-004	0.00000E+000	5.82312E-005	5.99601E-002	5.77236E-001	3.57660E+000	9	...........
	19	0.266667	5.91034E-001	1.00723E-004	0.00000E+000	5.95307E-005	5.99601E-002	5.91303E-001	3.57660E+000	9	...........
	20	0.28	6.04739E-001	1.02431E-004	0.00000E+000	6.19438E-005	5.99601E-002	6.05033E-001	3.57660E+000	9	...........
	21	0.293333	6.18204E-001	1.00160E-004	0.00000E+000	6.19195E-005	5.99601E-002	6.18454E-001	3.57660E+000	9	...........
	22	0.306667	6.31284E-001	1.00373E-004	0.00000E+000	6.33638E-005	5.99601E-002	6.31542E-001	3.57660E+000	9	...........
	23	0.32	6.44099E-001	1.00552E-004	0.00000E+000	6.47656E-005	5.99601E-002	6.44372E-001	3.57660E+000	9	...........
	24	0.333333	6.56605E-001	1.00716E-004	0.00000E+000	6.61305E-005	5.99601E-002	6.56862E-001	3.57660E+000	9	...........
	25	0.346667	6.68829E-001	1.01441E-004	0.00000E+000	6.78465E-005	5.99601E-002	6.69102E-001	3.57660E+000	9	...........
	26	0.36	6.80766E-001	1.02117E-004	0.00000E+000	6.95178E-005	5.99601E-002	6.81009E-001	3.57660E+000	9	...........
	27	0.373333	6.92369E-001	1.01420E-004	0.00000E+000	7.02200E-005	5.99601E-002	6.92640E-001	3.57660E+000	9	...........
	28	0.386667	7.03704E-001	1.00518E-004	0.00000E+000	7.07347E-005	5.99601E-002	7.03963E-001	3.57660E+000	9	...........
	29	0.4	7.14743E-001	1.00623E-004	0.00000E+000	7.19196E-005	5.99601E-002	7.15008E-001	3.57660E+000	9	...........
	30	0.413333	7.25522E-001	9.98228E-005	0.00000E+000	7.24236E-005	5.99601E-002	7.25780E-001	3.57660E+000	9	...........
	31	0.426667	7.35986E-001	1.00617E-004	0.00000E+000	7.40525E-005	5.99601E-002	7.36260E-001	3.57660E+000	9	...........
	32	0.44	7.46210E-001	1.01021E-004	0.00000E+000	7.53828E-005	5.99601E-002	7.46474E-001	3.57660E+000	9	...........
	33	0.453333	7.56170E-001	9.98905E-005	0.00000E+000	7.55342E-005	5.99601E-002	7.56395E-001	3.57660E+000	9	...........
	34	0.466667	7.65811E-001	1.00965E-004	0.00000E+000	7.73199E-005	5.99601E-002	7.66084E-001	3.57660E+000	9	...........
	35	0.48	7.75208E-001	1.01003E-004	0.00000E+000	7.82985E-005	5.99601E-002	7.75491E-001	3.57660E+000	9	...........
	36	0.493333	7.84355E-001	9.98436E-005	0.00000E+000	7.83129E-005	5.99601E-002	7.84600E-001	3.57660E+000	9	...........
	37	0.506667	7.93211E-001	1.02642E-004	0.00000E+000	8.14169E-005	5.99601E-002	7.93491E-001	3.57660E+000	9	...........
	38	0.52	8.01858E-001	1.01254E-004	0.00000E+000	8.11916E-005	5.99601E-002	8.02117E-001	3.57660E+000	9	...........
	39	0.533333	8.10197E-001	1.00819E-004	0.00000E+000	8.16831E-005	5.99601E-002	8.10466E-001	3.57660E+000	9	...........
	40	0.546667	8.18299E-001	1.00974E-004	0.00000E+000	8.26270E-005	5.99601E-002	8.18601E-001	3.57660E+000	9	...........
	41	0.56	8.26167E-001	1.01806E-004	0.00000E+000	8.41083E-005	5.99601E-002	8.26461E-001	3.57660E+000	9	...........
	42	0.573333	8.33780E-001	1.01643E-004	0.00000E+000	8.47478E-005	5.99601E-002	8.34067E-001	3.57660E+000	9	...........
	43	0.586667	8.41144E-001	1.01294E-004	0.00000E+000	8.52028E-005	5.99601E-002	8.41456E-001	3.57660E+000	9	...........
	44	0.6	8.48329E-001	1.01630E-004	0.00000E+000	8.62161E-005	5.99601E-002	8.48624E-001	3.57660E+000	9	...........
	45	0.613333	8.55236E-001	1.01193E-004	0.00000E+000	8.65438E-005	5.99601E-002	8.55552E-001	3.57660E+000	9	...........
	46	0.626667	8.61959E-001	1.00799E-004	0.00000E+000	8.68846E-005	5.99601E-002	8.62277E-001	3.57660E+000	9	...........
	47	0.64	8.68450E-001	9.98874E-005	0.00000E+000	8.67472E-005	5.99601E-002	8.68776E-001	3.57660E+000	9	...........
	48	0.653333	8.74789E-001	1.00803E-004	0.00000E+000	8.81815E-005	5.99601E-002	8.75093E-001	3.57660E+000	9	...........
	49	0.666667	8.80889E-001	1.01127E-004	0.00000E+000	8.90819E-005	5.99601E-002	8.81222E-001	3.57660E+000	9	...........
	50	0.68	8.86852E-001	1.00247E-004	0.00000E+000	8.89041E-005	5.99601E-002	8.87166E-001	3.57660E+000	9	...........
	51	0.693333	8.92628E-001	1.00287E-004	0.00000E+000	8.95194E-005	5.99601E-002	8.92944E-001	3.57660E+000	9	...........
	52	0.706667	8.98276E-001	1.00481E-004	0.00000E+000	9.02599E-005	5.99601E-002	8.98604E-001	3.57660E+000	9	...........
	53	0.72	9.03767E-001	9.92852E-005	0.00000E+000	8.97307E-005	5.99601E-002	9.04098E-001	3.57660E+000	9	...........
	54	0.733333	9.09120E-001	1.00399E-004	0.00000E+000	9.12747E-005	5.99601E-002	9.09453E-001	3.57660E+000	9	...........
	55	0.746667	9.14386E-001	1.00394E-004	0.00000E+000	9.17986E-005	5.99601E-002	9.14697E-001	3.57660E+000	9	...........
	56	0.76	9.19515E-001	1.01201E-004	0.00000E+000	9.30560E-005	5.99601E-002	9.19838E-001	3.57660E+000	9	...........
	57	0.773333	9.24586E-001	1.01452E-004	0.00000E+000	9.38014E-005	5.99601E-002	9.24849E-001	3.57660E+000	9	...........
	58	0.786667	9.29518E-001	1.00848E-004	0.00000E+000	9.37400E-005	5.99601E-002	9.29803E-001	3.57660E+000	9	...........
	59	0.8	9.34337E-001	1.01413E-004	0.00000E+000	9.47536E-005	5.99601E-002	9.34629E-001	3.57660E+000	9	...........
	60	0.813333	9.39080E-001	1.00734E-004	0.00000E+000	9.45977E-005	5.99601E-002	9.39380E-001	3.57660E+000	9	...........
	61	0.826667	9.43739E-001	1.00351E-004	0.00000E+000	9.47052E-005	5.99601E-002	9.44050E-001	3.57660E+000	9	...........
	62	0.84	9.48336E-001	1.01042E-004	0.00000E+000	9.58216E-005	5.99601E-002	9.48673E-001	3.57660E+000	9	...........
	63	0.853333	9.52845E-001	1.00047E-004	0.00000E+000	9.53291E-005	5.99601E-002	9.53193E-001	3.57660E+000	9	...........
	64	0.866667	9.57296E-001	1.01914E-004	0.00000E+000	9.75618E-005	5.99601E-002	9.57611E-001	3.57660E+000	9	...........
	65	0.88	9.61641E-001	1.00124E-004	0.00000E+000	9.62832E-005	5.99601E-002	9.61990E-001	3.57660E+000	9	...........
	66	0.893333	9.65928E-001	1.01350E-004	0.00000E+000	9.78970E-005	5.99601E-002	9.66280E-001	3.57765E+000	9	...........
	67	0.906667	9.70127E-001	1.01934E-004	0.00000E+000	9.88887E-005	5.99601E-002	9.70488E-001	3.57800E+000	9	...........
	68	0.92	9.74313E-001	1.00059E-004	0.00000E+000	9.74891E-005	5.99601E-002	9.74623E-001	3.57800E+000	9	...........
	69	0.933333	9.78343E-001	1.01252E-004	0.00000E+000	9.90595E-005	5.99601E-002	9.78701E-001	3.57800E+000	9	...........
	70	0.946667	9.82329E-001	1.00953E-004	0.00000E+000	9.91694E-005	5.99601E-002	9.82660E-001	3.57800E+000	9	...........
	71	0.96	9.86203E-001	1.00870E-004	0.00000E+000	9.94782E-005	5.99601E-002	9.86554E-001	3.57800E+000	9	...........
	72	0.97333	9.90032E-001	1.01747E-004	0.00000E+000	1.00733E-004	5.99601E-002	9.90370E-001	3.57800E+000	9	...........
	73	0.98667	9.93750E-001	9.98155E-005	0.00000E+000	9.91917E-005	5.99601E-002	9.94106E-001	3.57800E+000	9	...........
	74	1	9.97423E-001	1.01383E-004	0.00000E+000	1.01121E-004	5.99601E-002	9.97775E-001	3.57800E+000	9	...........
	75	1.005	9.99863E-001	1.02515E-004	0.00000E+000	1.02501E-004	5.99601E-002	1.00024E+000	3.57800E+000	9	...........
STARTTIMEOFFSET	QUANT	1152.444	Start Time Offset (s)
