EXPLAIN
TAG	PWR800_CHARGE
TITLE	LABEL	PWR Cyclic Charge Discharge (Cell) - Charge Step	Test &Identifier
DATE	LABEL	12-7-2017	Date
TIME	LABEL	16:16:07	Time
NOTES	NOTES	2	&Notes...
	supercap test cell
	6M KOH
PSTAT	PSTAT	IFC5000-01520	Potentiostat
CAPACITY	QUANT	1.00000E-003	Capacity (A-hr)
CELLTYPE	SELECTOR	1	&Cell Type
WORKINGCONNECTION	SELECTOR	0	&Working Lead
MAXCHARGETIME	VARIABLEANDUNITS	1.00000E+002	s	1.00000E+002	second(s)	Max &Charge Time
CHARGECURRENT	QUANT	1.00000E-004	&Charge Current (A) 
VOLTAGEFINISH	TWOPARAM	F	1.00000E-003	3.60000E+003	&Voltage Finish	 I (A) < 	Max Time(s)
SAMPLETIME	QUANT	1.00000E-002	Sa&mple Period (s)
CHARGESTOPAT1	MULTIPARAM	4	1.00000E+000	Charge Stop At &1	Voltage > Limit	V
CHARGESTOPAT2	MULTIPARAM	0	0.00000E+000	Charge Stop At &2	None	N/A
AESBHCSELECTOR	TOGGLE	F	Save Both Half Cells
IRCOMP	TOGGLE	F	IR &Measure
EOC	QUANT	0	Open Circuit (V)
SEQUENCER	TOGGLE	TRUE	Run as Sequence
PSTATMODEL	IQUANT	53	Pstat Model
PSTATSECTION	LABEL	IFC5000-01520	Pstat Section
PSTATSERIALNO	LABEL	01520	Pstat Serial Number
CTRLMODE	IQUANT	0	Control Mode
ELECTROMETER	IQUANT	1	RE=0 or CS=1
IESTAB	IQUANT	0	I/E Stability
CASPEED	IQUANT	4	Control Amp Speed
CONVENTION	IQUANT	1	Current Convention
ICHRANGE	IQUANT	2	Ich Range
ICHRANGEMODE	TOGGLE	T	Ich Auto Range
ICHOFFSETENABLE	TOGGLE	F	Ich Offset Enable
ICHOFFSET	QUANT	0	Ich Offset (V)
ICHFILTER	IQUANT	1	Ich Filter
VCHRANGE	IQUANT	2	Vch Range
VCHRANGEMODE	TOGGLE	T	Vch Auto Range
VCHOFFSETENABLE	TOGGLE	F	Vch Offset Enable
VCHOFFSET	QUANT	0	Vch Offset (V)
VCHFILTER	IQUANT	1	Vch Filter
IERANGELOWERLIMIT	IQUANT	9	I/E Range Lower Limit
IERANGEMODE	TOGGLE	F	I/E AutoRange
IERANGE	IQUANT	9	I/E Range
ACHSELECT	IQUANT	1	Ach Select
ACHRANGE	IQUANT	2	Ach Range
ACHOFFSETENABLE	TOGGLE	F	Ach Offset Enable
ACHOFFSET	QUANT	0	Ach Offset (V)
ACHFILTER	IQUANT	1	Ach Filter
CABLEID	IQUANT	14	Cable ID
DCCALDATE	LABEL	5-7-2017	DC Calibration Date
ACCALDATE	LABEL	12/3/2015	AC Calibration Date
FRAMEWORKVERSION	QUANT	7.01	Framework Version
INSTRUMENTVERSION	LABEL	4.00	Instrument Version
CURVE	TABLE	80
	Pt	T	Vf	Im	Vu	Pwr	Sig	Ach	Temp	IERange	Over
	#	s	V	A	V	W	V	V	deg C	#	bits
	0	0.013333	2.62828E-001	1.00967E-004	0.00000E+000	2.65369E-005	5.99601E-002	2.62914E-001	3.57860E+000	9	...........
	1	0.026667	2.85481E-001	1.00851E-004	0.00000E+000	2.87911E-005	5.99601E-002	2.85548E-001	3.57860E+000	9	...........
	2	0.04	3.06579E-001	1.00741E-004	0.00000E+000	3.08850E-005	5.99601E-002	3.06642E-001	3.57860E+000	9	...........
	3	0.053333	3.26485E-001	1.01815E-004	0.00000E+000	3.32410E-005	5.99601E-002	3.26556E-001	3.57860E+000	9	...........
	4	0.066667	3.45432E-001	1.00585E-004	0.00000E+000	3.47455E-005	5.99601E-002	3.45500E-001	3.57860E+000	9	...........
	5	0.08	3.63583E-001	1.01764E-004	0.00000E+000	3.69996E-005	5.99601E-002	3.63661E-001	3.57860E+000	9	...........
	6	0.093333	3.81059E-001	1.00457E-004	0.00000E+000	3.82801E-005	5.99601E-002	3.81134E-001	3.57860E+000	9	...........
	7	0.106667	3.97938E-001	1.00888E-004	0.00000E+000	4.01470E-005	5.99601E-002	3.98014E-001	3.57860E+000	9	...........
	8	0.12	4.14296E-001	1.01175E-004	0.00000E+000	4.19165E-005	5.99601E-002	4.14377E-001	3.57860E+000	9	...........
	9	0.133333	4.30192E-001	1.00745E-004	0.00000E+000	4.33396E-005	5.99601E-002	4.30284E-001	3.57860E+000	9	...........
	10	0.146667	4.45672E-001	1.01077E-004	0.00000E+000	4.50473E-005	5.99601E-002	4.45770E-001	3.57860E+000	9	...........
	11	0.16	4.60774E-001	1.01133E-004	0.00000E+000	4.65997E-005	5.99601E-002	4.60870E-001	3.57860E+000	9	...........
	12	0.173333	4.75529E-001	1.00788E-004	0.00000E+000	4.79274E-005	5.99601E-002	4.75633E-001	3.57860E+000	9	...........
	13	0.186667	4.89957E-001	1.01310E-004	0.00000E+000	4.96373E-005	5.99601E-002	4.90064E-001	3.57860E+000	9	...........
	14	0.2	5.04082E-001	1.01448E-004	0.00000E+000	5.11381E-005	5.99601E-002	5.04184E-001	3.57860E+000	9	...........
	15	0.213333	5.17917E-001	1.01442E-004	0.00000E+000	5.25384E-005	5.99601E-002	5.18027E-001	3.57860E+000	9	...........
	16	0.226667	5.31401E-001	1.00745E-004	0.00000E+000	5.35359E-005	5.99601E-002	5.31538E-001	3.57860E+000	9	...........
	17	0.24	5.44488E-001	1.00833E-004	0.00000E+000	5.49026E-005	5.99601E-002	5.44714E-001	3.57860E+000	9	...........
	18	0.253333	5.57552E-001	1.00705E-004	0.00000E+000	5.61485E-005	5.99601E-002	5.57766E-001	3.57860E+000	9	...........
	19	0.266667	5.70403E-001	1.00789E-004	0.00000E+000	5.74902E-005	5.99601E-002	5.70612E-001	3.57860E+000	9	...........
	20	0.28	5.82984E-001	1.00660E-004	0.00000E+000	5.86835E-005	5.99601E-002	5.83197E-001	3.57860E+000	9	...........
	21	0.293333	5.95369E-001	1.00151E-004	0.00000E+000	5.96268E-005	5.99601E-002	5.95606E-001	3.57860E+000	9	...........
	22	0.306667	6.07521E-001	1.01033E-004	0.00000E+000	6.13799E-005	5.99601E-002	6.07797E-001	3.57860E+000	9	...........
	23	0.32	6.19532E-001	1.00467E-004	0.00000E+000	6.22423E-005	5.99601E-002	6.19746E-001	3.57860E+000	9	...........
	24	0.333333	6.31262E-001	1.02163E-004	0.00000E+000	6.44916E-005	5.99601E-002	6.31507E-001	3.57789E+000	9	...........
	25	0.346667	6.42805E-001	1.00174E-004	0.00000E+000	6.43923E-005	5.99601E-002	6.43058E-001	3.57760E+000	9	...........
	26	0.36	6.54164E-001	1.00887E-004	0.00000E+000	6.59964E-005	5.99601E-002	6.54409E-001	3.57760E+000	9	...........
	27	0.373333	6.65324E-001	1.01519E-004	0.00000E+000	6.75430E-005	5.99601E-002	6.65582E-001	3.57760E+000	9	...........
	28	0.386667	6.76261E-001	1.01350E-004	0.00000E+000	6.85392E-005	5.99601E-002	6.76507E-001	3.57760E+000	9	...........
	29	0.4	6.87017E-001	1.00747E-004	0.00000E+000	6.92148E-005	5.99601E-002	6.87280E-001	3.57760E+000	9	...........
	30	0.413333	6.97585E-001	1.01345E-004	0.00000E+000	7.06968E-005	5.99601E-002	6.97840E-001	3.57760E+000	9	...........
	31	0.426667	7.07939E-001	1.01188E-004	0.00000E+000	7.16347E-005	5.99601E-002	7.08224E-001	3.57760E+000	9	...........
	32	0.44	7.18132E-001	1.00365E-004	0.00000E+000	7.20750E-005	5.99601E-002	7.18393E-001	3.57760E+000	9	...........
	33	0.453333	7.28101E-001	1.01676E-004	0.00000E+000	7.40306E-005	5.99601E-002	7.28375E-001	3.57760E+000	9	...........
	34	0.466667	7.37878E-001	1.01175E-004	0.00000E+000	7.46549E-005	5.99601E-002	7.38158E-001	3.57760E+000	9	...........
	35	0.48	7.47478E-001	1.01392E-004	0.00000E+000	7.57882E-005	5.99601E-002	7.47751E-001	3.57760E+000	9	...........
	36	0.493333	7.56892E-001	1.01290E-004	0.00000E+000	7.66655E-005	5.99601E-002	7.57160E-001	3.57760E+000	9	...........
	37	0.506667	7.66087E-001	1.01085E-004	0.00000E+000	7.74396E-005	5.99601E-002	7.66372E-001	3.57760E+000	9	...........
	38	0.52	7.75110E-001	1.01280E-004	0.00000E+000	7.85035E-005	5.99601E-002	7.75374E-001	3.57760E+000	9	...........
	39	0.533333	7.83915E-001	1.01493E-004	0.00000E+000	7.95618E-005	5.99601E-002	7.84184E-001	3.57760E+000	9	...........
	40	0.546667	7.92537E-001	1.01338E-004	0.00000E+000	8.03139E-005	5.99601E-002	7.92810E-001	3.57760E+000	9	...........
	41	0.56	8.00952E-001	1.00574E-004	0.00000E+000	8.05550E-005	5.99601E-002	8.01240E-001	3.57760E+000	9	...........
	42	0.573333	8.09153E-001	1.00925E-004	0.00000E+000	8.16639E-005	5.99601E-002	8.09462E-001	3.57760E+000	9	...........
	43	0.586667	8.17200E-001	1.02355E-004	0.00000E+000	8.36441E-005	5.99601E-002	8.17495E-001	3.57760E+000	9	...........
	44	0.6	8.25049E-001	1.02284E-004	0.00000E+000	8.43891E-005	5.99601E-002	8.25326E-001	3.57760E+000	9	...........
	45	0.613333	8.32669E-001	1.01160E-004	0.00000E+000	8.42324E-005	5.99601E-002	8.32952E-001	3.57760E+000	9	...........
	46	0.626667	8.40101E-001	1.00718E-004	0.00000E+000	8.46131E-005	5.99601E-002	8.40389E-001	3.57760E+000	9	...........
	47	0.64	8.47392E-001	1.00875E-004	0.00000E+000	8.54808E-005	5.99601E-002	8.47673E-001	3.57760E+000	9	...........
	48	0.653333	8.54465E-001	1.00892E-004	0.00000E+000	8.62085E-005	5.99601E-002	8.54738E-001	3.57760E+000	9	...........
	49	0.666667	8.61351E-001	9.99687E-005	0.00000E+000	8.61081E-005	5.99601E-002	8.61662E-001	3.57760E+000	9	...........
	50	0.68	8.68055E-001	1.00497E-004	0.00000E+000	8.72368E-005	5.99601E-002	8.68378E-001	3.57760E+000	9	...........
	51	0.693333	8.74598E-001	1.00848E-004	0.00000E+000	8.82015E-005	5.99601E-002	8.74929E-001	3.57760E+000	9	...........
	52	0.706667	8.80931E-001	1.00201E-004	0.00000E+000	8.82702E-005	5.99601E-002	8.81272E-001	3.57760E+000	9	...........
	53	0.72	8.87116E-001	1.00966E-004	0.00000E+000	8.95683E-005	5.99601E-002	8.87438E-001	3.57760E+000	9	...........
	54	0.733333	8.93084E-001	1.00790E-004	0.00000E+000	9.00137E-005	5.99601E-002	8.93429E-001	3.57760E+000	9	...........
	55	0.746667	8.98899E-001	1.00505E-004	0.00000E+000	9.03440E-005	5.99601E-002	8.99264E-001	3.57760E+000	9	...........
	56	0.76	9.04563E-001	1.00493E-004	0.00000E+000	9.09020E-005	5.99601E-002	9.04917E-001	3.57760E+000	9	...........
	57	0.773333	9.10065E-001	1.00542E-004	0.00000E+000	9.14995E-005	5.99601E-002	9.10397E-001	3.57760E+000	9	...........
	58	0.786667	9.15371E-001	1.01231E-004	0.00000E+000	9.26643E-005	5.99601E-002	9.15709E-001	3.57760E+000	9	...........
	59	0.8	9.20602E-001	1.01088E-004	0.00000E+000	9.30615E-005	5.99601E-002	9.20918E-001	3.57760E+000	9	...........
	60	0.813333	9.25662E-001	1.00960E-004	0.00000E+000	9.34544E-005	5.99601E-002	9.25958E-001	3.57760E+000	9	...........
	61	0.826667	9.30563E-001	1.00752E-004	0.00000E+000	9.37562E-005	5.99601E-002	9.30850E-001	3.57760E+000	9	...........
	62	0.84	9.35317E-001	1.01455E-004	0.00000E+000	9.48930E-005	5.99601E-002	9.35647E-001	3.57760E+000	9	...........
	63	0.853333	9.39949E-001	1.01372E-004	0.00000E+000	9.52846E-005	5.99601E-002	9.40276E-001	3.57760E+000	9	...........
	64	0.866667	9.44469E-001	1.01206E-004	0.00000E+000	9.55864E-005	5.99601E-002	9.44805E-001	3.57760E+000	9	...........
	65	0.88	9.48922E-001	1.01169E-004	0.00000E+000	9.60014E-005	5.99601E-002	9.49246E-001	3.57760E+000	9	...........
	66	0.893333	9.53231E-001	1.01418E-004	0.00000E+000	9.66747E-005	5.99601E-002	9.53556E-001	3.57760E+000	9	...........
	67	0.906667	9.57425E-001	1.00196E-004	0.00000E+000	9.59300E-005	5.99601E-002	9.57749E-001	3.57760E+000	9	...........
	68	0.92	9.61522E-001	1.00365E-004	0.00000E+000	9.65027E-005	5.99601E-002	9.61885E-001	3.57760E+000	9	...........
	69	0.933333	9.65538E-001	1.00585E-004	0.00000E+000	9.71191E-005	5.99601E-002	9.65920E-001	3.57760E+000	9	...........
	70	0.946667	9.69487E-001	1.01854E-004	0.00000E+000	9.87466E-005	5.99601E-002	9.69848E-001	3.57760E+000	9	...........
	71	0.96	9.73356E-001	1.00697E-004	0.00000E+000	9.80140E-005	5.99601E-002	9.73728E-001	3.57760E+000	9	...........
	72	0.97333	9.77146E-001	1.00858E-004	0.00000E+000	9.85534E-005	5.99601E-002	9.77503E-001	3.57760E+000	9	...........
	73	0.98667	9.80805E-001	1.00133E-004	0.00000E+000	9.82112E-005	5.99601E-002	9.81165E-001	3.57760E+000	9	...........
	74	1	9.84398E-001	1.00365E-004	0.00000E+000	9.87987E-005	5.99601E-002	9.84771E-001	3.57760E+000	9	...........
	75	1.01333	9.87937E-001	1.01325E-004	0.00000E+000	1.00103E-004	5.99601E-002	9.88290E-001	3.57760E+000	9	...........
	76	1.02667	9.91329E-001	1.00019E-004	0.00000E+000	9.91514E-005	5.99601E-002	9.91709E-001	3.57760E+000	9	...........
	77	1.04	9.94673E-001	1.01950E-004	0.00000E+000	1.01407E-004	5.99601E-002	9.95046E-001	3.57760E+000	9	...........
	78	1.05333	9.97959E-001	1.01577E-004	0.00000E+000	1.01370E-004	5.99601E-002	9.98320E-001	3.57760E+000	9	...........
	79	1.05667	9.99951E-001	1.00265E-004	0.00000E+000	1.00260E-004	5.99601E-002	1.00031E+000	3.57760E+000	9	...........
STARTTIMEOFFSET	QUANT	258.7383	Start Time Offset (s)
