EXPLAIN
TAG	PWR800_CHARGE
TITLE	LABEL	PWR Cyclic Charge Discharge (Cell) - Charge Step	Test &Identifier
DATE	LABEL	12-7-2017	Date
TIME	LABEL	16:34:50	Time
NOTES	NOTES	2	&Notes...
	supercap test cell
	6M KOH
PSTAT	PSTAT	IFC5000-01520	Potentiostat
CAPACITY	QUANT	1.00000E-003	Capacity (A-hr)
CELLTYPE	SELECTOR	1	&Cell Type
WORKINGCONNECTION	SELECTOR	0	&Working Lead
MAXCHARGETIME	VARIABLEANDUNITS	1.00000E+002	s	1.00000E+002	second(s)	Max &Charge Time
CHARGECURRENT	QUANT	1.00000E-004	&Charge Current (A) 
VOLTAGEFINISH	TWOPARAM	F	1.00000E-003	3.60000E+003	&Voltage Finish	 I (A) < 	Max Time(s)
SAMPLETIME	QUANT	1.00000E-002	Sa&mple Period (s)
CHARGESTOPAT1	MULTIPARAM	4	1.00000E+000	Charge Stop At &1	Voltage > Limit	V
CHARGESTOPAT2	MULTIPARAM	0	0.00000E+000	Charge Stop At &2	None	N/A
AESBHCSELECTOR	TOGGLE	F	Save Both Half Cells
IRCOMP	TOGGLE	F	IR &Measure
EOC	QUANT	0	Open Circuit (V)
SEQUENCER	TOGGLE	TRUE	Run as Sequence
PSTATMODEL	IQUANT	53	Pstat Model
PSTATSECTION	LABEL	IFC5000-01520	Pstat Section
PSTATSERIALNO	LABEL	01520	Pstat Serial Number
CTRLMODE	IQUANT	0	Control Mode
ELECTROMETER	IQUANT	1	RE=0 or CS=1
IESTAB	IQUANT	0	I/E Stability
CASPEED	IQUANT	4	Control Amp Speed
CONVENTION	IQUANT	1	Current Convention
ICHRANGE	IQUANT	2	Ich Range
ICHRANGEMODE	TOGGLE	T	Ich Auto Range
ICHOFFSETENABLE	TOGGLE	F	Ich Offset Enable
ICHOFFSET	QUANT	0	Ich Offset (V)
ICHFILTER	IQUANT	1	Ich Filter
VCHRANGE	IQUANT	2	Vch Range
VCHRANGEMODE	TOGGLE	T	Vch Auto Range
VCHOFFSETENABLE	TOGGLE	F	Vch Offset Enable
VCHOFFSET	QUANT	0	Vch Offset (V)
VCHFILTER	IQUANT	1	Vch Filter
IERANGELOWERLIMIT	IQUANT	9	I/E Range Lower Limit
IERANGEMODE	TOGGLE	F	I/E AutoRange
IERANGE	IQUANT	9	I/E Range
ACHSELECT	IQUANT	1	Ach Select
ACHRANGE	IQUANT	2	Ach Range
ACHOFFSETENABLE	TOGGLE	F	Ach Offset Enable
ACHOFFSET	QUANT	0	Ach Offset (V)
ACHFILTER	IQUANT	1	Ach Filter
CABLEID	IQUANT	14	Cable ID
DCCALDATE	LABEL	5-7-2017	DC Calibration Date
ACCALDATE	LABEL	12/3/2015	AC Calibration Date
FRAMEWORKVERSION	QUANT	7.01	Framework Version
INSTRUMENTVERSION	LABEL	4.00	Instrument Version
CURVE	TABLE	76
	Pt	T	Vf	Im	Vu	Pwr	Sig	Ach	Temp	IERange	Over
	#	s	V	A	V	W	V	V	deg C	#	bits
	0	0.013333	2.56958E-001	1.01301E-004	0.00000E+000	2.60301E-005	5.99601E-002	2.57044E-001	3.57670E+000	9	...........
	1	0.026667	2.79934E-001	1.00314E-004	0.00000E+000	2.80812E-005	5.99601E-002	2.80001E-001	3.57670E+000	9	...........
	2	0.04	3.01603E-001	1.01157E-004	0.00000E+000	3.05094E-005	5.99601E-002	3.01670E-001	3.57670E+000	9	...........
	3	0.053333	3.22333E-001	1.01178E-004	0.00000E+000	3.26131E-005	5.99601E-002	3.22402E-001	3.57670E+000	9	...........
	4	0.066667	3.42313E-001	1.01587E-004	0.00000E+000	3.47744E-005	5.99601E-002	3.42384E-001	3.57670E+000	9	...........
	5	0.08	3.61660E-001	1.02302E-004	0.00000E+000	3.69988E-005	5.99601E-002	3.61743E-001	3.57670E+000	9	...........
	6	0.093333	3.80474E-001	9.97874E-005	0.00000E+000	3.79665E-005	5.99601E-002	3.80551E-001	3.57670E+000	9	...........
	7	0.106667	3.98797E-001	1.00593E-004	0.00000E+000	4.01161E-005	5.99601E-002	3.98880E-001	3.57670E+000	9	...........
	8	0.12	4.16674E-001	1.01968E-004	0.00000E+000	4.24874E-005	5.99601E-002	4.16761E-001	3.57670E+000	9	...........
	9	0.133333	4.34144E-001	1.01253E-004	0.00000E+000	4.39585E-005	5.99601E-002	4.34237E-001	3.57670E+000	9	...........
	10	0.146667	4.51215E-001	1.00219E-004	0.00000E+000	4.52201E-005	5.99601E-002	4.51305E-001	3.57670E+000	9	...........
	11	0.16	4.67907E-001	1.00929E-004	0.00000E+000	4.72255E-005	5.99601E-002	4.68006E-001	3.57670E+000	9	...........
	12	0.173333	4.84246E-001	1.00914E-004	0.00000E+000	4.88670E-005	5.99601E-002	4.84352E-001	3.57670E+000	9	...........
	13	0.186667	5.00232E-001	9.95769E-005	0.00000E+000	4.98116E-005	5.99601E-002	5.00342E-001	3.57670E+000	9	...........
	14	0.2	5.15872E-001	1.01760E-004	0.00000E+000	5.24949E-005	5.99601E-002	5.15988E-001	3.57670E+000	9	...........
	15	0.213333	5.31095E-001	1.00060E-004	0.00000E+000	5.31416E-005	5.99601E-002	5.31241E-001	3.57710E+000	9	...........
	16	0.226667	5.45843E-001	1.01441E-004	0.00000E+000	5.53708E-005	5.99601E-002	5.46101E-001	3.57710E+000	9	...........
	17	0.24	5.60501E-001	1.01769E-004	0.00000E+000	5.70417E-005	5.99601E-002	5.60750E-001	3.57710E+000	9	...........
	18	0.253333	5.74854E-001	1.00334E-004	0.00000E+000	5.76776E-005	5.99601E-002	5.75100E-001	3.57710E+000	9	...........
	19	0.266667	5.88890E-001	1.02604E-004	0.00000E+000	6.04223E-005	5.99601E-002	5.89137E-001	3.57710E+000	9	...........
	20	0.28	6.02584E-001	1.01137E-004	0.00000E+000	6.09433E-005	5.99601E-002	6.02828E-001	3.57710E+000	9	...........
	21	0.293333	6.16032E-001	1.01167E-004	0.00000E+000	6.23220E-005	5.99601E-002	6.16247E-001	3.57710E+000	9	...........
	22	0.306667	6.29134E-001	1.01096E-004	0.00000E+000	6.36029E-005	5.99601E-002	6.29341E-001	3.57710E+000	9	...........
	23	0.32	6.41946E-001	1.00879E-004	0.00000E+000	6.47591E-005	5.99601E-002	6.42121E-001	3.57710E+000	9	...........
	24	0.333333	6.54436E-001	1.01028E-004	0.00000E+000	6.61165E-005	5.99601E-002	6.54621E-001	3.57710E+000	9	...........
	25	0.346667	6.66650E-001	1.00036E-004	0.00000E+000	6.66893E-005	5.99601E-002	6.66857E-001	3.57710E+000	9	...........
	26	0.36	6.78581E-001	1.00805E-004	0.00000E+000	6.84046E-005	5.99601E-002	6.78780E-001	3.57710E+000	9	...........
	27	0.373333	6.90210E-001	1.01090E-004	0.00000E+000	6.97732E-005	5.99601E-002	6.90408E-001	3.57710E+000	9	...........
	28	0.386667	7.01559E-001	1.00843E-004	0.00000E+000	7.07472E-005	5.99601E-002	7.01788E-001	3.57710E+000	9	...........
	29	0.4	7.12606E-001	1.01188E-004	0.00000E+000	7.21069E-005	5.99601E-002	7.12855E-001	3.57710E+000	9	...........
	30	0.413333	7.23441E-001	1.01203E-004	0.00000E+000	7.32147E-005	5.99601E-002	7.23650E-001	3.57710E+000	9	...........
	31	0.426667	7.33905E-001	1.00119E-004	0.00000E+000	7.34776E-005	5.99601E-002	7.34163E-001	3.57710E+000	9	...........
	32	0.44	7.44141E-001	1.01253E-004	0.00000E+000	7.53468E-005	5.99601E-002	7.44401E-001	3.57710E+000	9	...........
	33	0.453333	7.54088E-001	1.00508E-004	0.00000E+000	7.57921E-005	5.99601E-002	7.54394E-001	3.57710E+000	9	...........
	34	0.466667	7.63779E-001	1.00633E-004	0.00000E+000	7.68616E-005	5.99601E-002	7.64077E-001	3.57710E+000	9	...........
	35	0.48	7.73218E-001	1.00101E-004	0.00000E+000	7.73999E-005	5.99601E-002	7.73530E-001	3.57710E+000	9	...........
	36	0.493333	7.82386E-001	1.01851E-004	0.00000E+000	7.96870E-005	5.99601E-002	7.82684E-001	3.57710E+000	9	...........
	37	0.506667	7.91304E-001	1.00469E-004	0.00000E+000	7.95013E-005	5.99601E-002	7.91606E-001	3.57710E+000	9	...........
	38	0.52	7.99981E-001	1.01219E-004	0.00000E+000	8.09732E-005	5.99601E-002	8.00257E-001	3.57710E+000	9	...........
	39	0.533333	8.08358E-001	1.01268E-004	0.00000E+000	8.18607E-005	5.99601E-002	8.08655E-001	3.57710E+000	9	...........
	40	0.546667	8.16511E-001	9.93977E-005	0.00000E+000	8.11593E-005	5.99601E-002	8.16812E-001	3.57710E+000	9	...........
	41	0.56	8.24427E-001	1.01759E-004	0.00000E+000	8.38926E-005	5.99601E-002	8.24733E-001	3.57710E+000	9	...........
	42	0.573333	8.32079E-001	1.00440E-004	0.00000E+000	8.35737E-005	5.99601E-002	8.32391E-001	3.57710E+000	9	...........
	43	0.586667	8.39483E-001	1.01955E-004	0.00000E+000	8.55891E-005	5.99601E-002	8.39817E-001	3.57710E+000	9	...........
	44	0.6	8.46683E-001	1.00309E-004	0.00000E+000	8.49302E-005	5.99601E-002	8.47033E-001	3.57710E+000	9	...........
	45	0.613333	8.53656E-001	1.01636E-004	0.00000E+000	8.67619E-005	5.99601E-002	8.54006E-001	3.57710E+000	9	...........
	46	0.626667	8.60409E-001	1.01513E-004	0.00000E+000	8.73425E-005	5.99601E-002	8.60734E-001	3.57710E+000	9	...........
	47	0.64	8.66952E-001	1.00502E-004	0.00000E+000	8.71305E-005	5.99601E-002	8.67282E-001	3.57710E+000	9	...........
	48	0.653333	8.73313E-001	1.01166E-004	0.00000E+000	8.83494E-005	5.99601E-002	8.73654E-001	3.57710E+000	9	...........
	49	0.666667	8.79486E-001	1.01646E-004	0.00000E+000	8.93964E-005	5.99601E-002	8.79808E-001	3.57710E+000	9	...........
	50	0.68	8.85479E-001	1.00626E-004	0.00000E+000	8.91023E-005	5.99601E-002	8.85810E-001	3.57710E+000	9	...........
	51	0.693333	8.91273E-001	1.00779E-004	0.00000E+000	8.98219E-005	5.99601E-002	8.91597E-001	3.57710E+000	9	...........
	52	0.706667	8.96937E-001	1.01136E-004	0.00000E+000	9.07122E-005	5.99601E-002	8.97269E-001	3.57710E+000	9	...........
	53	0.72	9.02457E-001	1.00013E-004	0.00000E+000	9.02579E-005	5.99601E-002	9.02784E-001	3.57710E+000	9	...........
	54	0.733333	9.07836E-001	9.95957E-005	0.00000E+000	9.04165E-005	5.99601E-002	9.08154E-001	3.57710E+000	9	...........
	55	0.746667	9.13116E-001	1.00254E-004	0.00000E+000	9.15437E-005	5.99601E-002	9.13432E-001	3.57710E+000	9	...........
	56	0.76	9.18257E-001	1.00048E-004	0.00000E+000	9.18696E-005	5.99601E-002	9.18582E-001	3.57710E+000	9	...........
	57	0.773333	9.23366E-001	1.00999E-004	0.00000E+000	9.32592E-005	5.99601E-002	9.23640E-001	3.57710E+000	9	...........
	58	0.786667	9.28287E-001	1.00225E-004	0.00000E+000	9.30375E-005	5.99601E-002	9.28570E-001	3.57710E+000	9	...........
	59	0.8	9.33136E-001	1.01279E-004	0.00000E+000	9.45074E-005	5.99601E-002	9.33450E-001	3.57710E+000	9	...........
	60	0.813333	9.37866E-001	1.01204E-004	0.00000E+000	9.49161E-005	5.99601E-002	9.38209E-001	3.57710E+000	9	...........
	61	0.826667	9.42547E-001	1.00117E-004	0.00000E+000	9.43647E-005	5.99601E-002	9.42880E-001	3.57710E+000	9	...........
	62	0.84	9.47161E-001	1.01528E-004	0.00000E+000	9.61638E-005	5.99601E-002	9.47498E-001	3.57710E+000	9	...........
	63	0.853333	9.51706E-001	1.00958E-004	0.00000E+000	9.60827E-005	5.99601E-002	9.52029E-001	3.57710E+000	9	...........
	64	0.866667	9.56122E-001	1.00676E-004	0.00000E+000	9.62587E-005	5.99601E-002	9.56438E-001	3.57710E+000	9	...........
	65	0.88	9.60458E-001	1.01602E-004	0.00000E+000	9.75848E-005	5.99601E-002	9.60819E-001	3.57710E+000	9	...........
	66	0.893333	9.64736E-001	1.02518E-004	0.00000E+000	9.89029E-005	5.99601E-002	9.65111E-001	3.57710E+000	9	...........
	67	0.906667	9.68970E-001	1.00274E-004	0.00000E+000	9.71624E-005	5.99601E-002	9.69304E-001	3.57710E+000	9	...........
	68	0.92	9.73125E-001	1.01039E-004	0.00000E+000	9.83233E-005	5.99601E-002	9.73460E-001	3.57710E+000	9	...........
	69	0.933333	9.77195E-001	1.01364E-004	0.00000E+000	9.90522E-005	5.99601E-002	9.77538E-001	3.57710E+000	9	...........
	70	0.946667	9.81169E-001	1.01697E-004	0.00000E+000	9.97821E-005	5.99601E-002	9.81481E-001	3.57710E+000	9	...........
	71	0.96	9.85059E-001	1.01563E-004	0.00000E+000	1.00045E-004	5.99601E-002	9.85387E-001	3.57710E+000	9	...........
	72	0.97333	9.88876E-001	1.01309E-004	0.00000E+000	1.00182E-004	5.99601E-002	9.89206E-001	3.57710E+000	9	...........
	73	0.98667	9.92583E-001	1.00649E-004	0.00000E+000	9.99025E-005	5.99601E-002	9.92915E-001	3.57710E+000	9	...........
	74	1	9.96232E-001	1.00546E-004	0.00000E+000	1.00167E-004	5.99601E-002	9.96580E-001	3.57710E+000	9	...........
	75	1.00833	9.99156E-001	1.03694E-004	0.00000E+000	1.03606E-004	5.99601E-002	9.99525E-001	3.57710E+000	9	...........
STARTTIMEOFFSET	QUANT	1059.014	Start Time Offset (s)
