EXPLAIN
TAG	PWR800_CHARGE
TITLE	LABEL	PWR Cyclic Charge Discharge (Cell) - Charge Step	Test &Identifier
DATE	LABEL	12-7-2017	Date
TIME	LABEL	16:22:49	Time
NOTES	NOTES	2	&Notes...
	supercap test cell
	6M KOH
PSTAT	PSTAT	IFC5000-01520	Potentiostat
CAPACITY	QUANT	1.00000E-003	Capacity (A-hr)
CELLTYPE	SELECTOR	1	&Cell Type
WORKINGCONNECTION	SELECTOR	0	&Working Lead
MAXCHARGETIME	VARIABLEANDUNITS	1.00000E+002	s	1.00000E+002	second(s)	Max &Charge Time
CHARGECURRENT	QUANT	1.00000E-004	&Charge Current (A) 
VOLTAGEFINISH	TWOPARAM	F	1.00000E-003	3.60000E+003	&Voltage Finish	 I (A) < 	Max Time(s)
SAMPLETIME	QUANT	1.00000E-002	Sa&mple Period (s)
CHARGESTOPAT1	MULTIPARAM	4	1.00000E+000	Charge Stop At &1	Voltage > Limit	V
CHARGESTOPAT2	MULTIPARAM	0	0.00000E+000	Charge Stop At &2	None	N/A
AESBHCSELECTOR	TOGGLE	F	Save Both Half Cells
IRCOMP	TOGGLE	F	IR &Measure
EOC	QUANT	0	Open Circuit (V)
SEQUENCER	TOGGLE	TRUE	Run as Sequence
PSTATMODEL	IQUANT	53	Pstat Model
PSTATSECTION	LABEL	IFC5000-01520	Pstat Section
PSTATSERIALNO	LABEL	01520	Pstat Serial Number
CTRLMODE	IQUANT	0	Control Mode
ELECTROMETER	IQUANT	1	RE=0 or CS=1
IESTAB	IQUANT	0	I/E Stability
CASPEED	IQUANT	4	Control Amp Speed
CONVENTION	IQUANT	1	Current Convention
ICHRANGE	IQUANT	2	Ich Range
ICHRANGEMODE	TOGGLE	T	Ich Auto Range
ICHOFFSETENABLE	TOGGLE	F	Ich Offset Enable
ICHOFFSET	QUANT	0	Ich Offset (V)
ICHFILTER	IQUANT	1	Ich Filter
VCHRANGE	IQUANT	2	Vch Range
VCHRANGEMODE	TOGGLE	T	Vch Auto Range
VCHOFFSETENABLE	TOGGLE	F	Vch Offset Enable
VCHOFFSET	QUANT	0	Vch Offset (V)
VCHFILTER	IQUANT	1	Vch Filter
IERANGELOWERLIMIT	IQUANT	9	I/E Range Lower Limit
IERANGEMODE	TOGGLE	F	I/E AutoRange
IERANGE	IQUANT	9	I/E Range
ACHSELECT	IQUANT	1	Ach Select
ACHRANGE	IQUANT	2	Ach Range
ACHOFFSETENABLE	TOGGLE	F	Ach Offset Enable
ACHOFFSET	QUANT	0	Ach Offset (V)
ACHFILTER	IQUANT	1	Ach Filter
CABLEID	IQUANT	14	Cable ID
DCCALDATE	LABEL	5-7-2017	DC Calibration Date
ACCALDATE	LABEL	12/3/2015	AC Calibration Date
FRAMEWORKVERSION	QUANT	7.01	Framework Version
INSTRUMENTVERSION	LABEL	4.00	Instrument Version
CURVE	TABLE	78
	Pt	T	Vf	Im	Vu	Pwr	Sig	Ach	Temp	IERange	Over
	#	s	V	A	V	W	V	V	deg C	#	bits
	0	0.013333	2.61638E-001	1.01338E-004	0.00000E+000	2.65138E-005	5.99601E-002	2.61723E-001	3.57830E+000	9	...........
	1	0.026667	2.84389E-001	1.00501E-004	0.00000E+000	2.85814E-005	5.99601E-002	2.84455E-001	3.57830E+000	9	...........
	2	0.04	3.05705E-001	1.01352E-004	0.00000E+000	3.09839E-005	5.99601E-002	3.05776E-001	3.57830E+000	9	...........
	3	0.053333	3.25975E-001	1.02117E-004	0.00000E+000	3.32876E-005	5.99601E-002	3.26043E-001	3.57830E+000	9	...........
	4	0.066667	3.45407E-001	9.98937E-005	0.00000E+000	3.45040E-005	5.99601E-002	3.45479E-001	3.57830E+000	9	...........
	5	0.08	3.64145E-001	1.00541E-004	0.00000E+000	3.66114E-005	5.99601E-002	3.64224E-001	3.57830E+000	9	...........
	6	0.093333	3.82288E-001	1.01448E-004	0.00000E+000	3.87824E-005	5.99601E-002	3.82368E-001	3.57830E+000	9	...........
	7	0.106667	3.99909E-001	1.00780E-004	0.00000E+000	4.03029E-005	5.99601E-002	3.99993E-001	3.57830E+000	9	...........
	8	0.12	4.17050E-001	1.00815E-004	0.00000E+000	4.20447E-005	5.99601E-002	4.17146E-001	3.57830E+000	9	...........
	9	0.133333	4.33775E-001	1.00932E-004	0.00000E+000	4.37820E-005	5.99601E-002	4.33866E-001	3.57830E+000	9	...........
	10	0.146667	4.50085E-001	1.00772E-004	0.00000E+000	4.53560E-005	5.99601E-002	4.50180E-001	3.57830E+000	9	...........
	11	0.16	4.66027E-001	1.01075E-004	0.00000E+000	4.71038E-005	5.99601E-002	4.66125E-001	3.57830E+000	9	...........
	12	0.173333	4.81618E-001	1.01558E-004	0.00000E+000	4.89120E-005	5.99601E-002	4.81722E-001	3.57830E+000	9	...........
	13	0.186667	4.96871E-001	1.00881E-004	0.00000E+000	5.01250E-005	5.99601E-002	4.96983E-001	3.57830E+000	9	...........
	14	0.2	5.11808E-001	1.00640E-004	0.00000E+000	5.15081E-005	5.99601E-002	5.11922E-001	3.57830E+000	9	...........
	15	0.213333	5.26439E-001	1.00557E-004	0.00000E+000	5.29373E-005	5.99601E-002	5.26554E-001	3.57830E+000	9	...........
	16	0.226667	5.40493E-001	1.00800E-004	0.00000E+000	5.44817E-005	5.99601E-002	5.40674E-001	3.57830E+000	9	...........
	17	0.24	5.54484E-001	1.00496E-004	0.00000E+000	5.57233E-005	5.99601E-002	5.54757E-001	3.57830E+000	9	...........
	18	0.253333	5.68263E-001	1.02240E-004	0.00000E+000	5.80992E-005	5.99601E-002	5.68516E-001	3.57830E+000	9	...........
	19	0.266667	5.81745E-001	1.01598E-004	0.00000E+000	5.91043E-005	5.99601E-002	5.82023E-001	3.57830E+000	9	...........
	20	0.28	5.94963E-001	9.95165E-005	0.00000E+000	5.92086E-005	5.99601E-002	5.95262E-001	3.57830E+000	9	...........
	21	0.293333	6.07931E-001	1.00430E-004	0.00000E+000	6.10547E-005	5.99601E-002	6.08235E-001	3.57830E+000	9	...........
	22	0.306667	6.20703E-001	1.01200E-004	0.00000E+000	6.28153E-005	5.99601E-002	6.20958E-001	3.57830E+000	9	...........
	23	0.32	6.33138E-001	1.00888E-004	0.00000E+000	6.38758E-005	5.99601E-002	6.33429E-001	3.57830E+000	9	...........
	24	0.333333	6.45371E-001	1.00929E-004	0.00000E+000	6.51369E-005	5.99601E-002	6.45652E-001	3.57830E+000	9	...........
	25	0.346667	6.57356E-001	9.99405E-005	0.00000E+000	6.56965E-005	5.99601E-002	6.57622E-001	3.57830E+000	9	...........
	26	0.36	6.69095E-001	1.00708E-004	0.00000E+000	6.73835E-005	5.99601E-002	6.69354E-001	3.57830E+000	9	...........
	27	0.373333	6.80568E-001	1.00646E-004	0.00000E+000	6.84964E-005	5.99601E-002	6.80812E-001	3.57830E+000	9	...........
	28	0.386667	6.91782E-001	1.01508E-004	0.00000E+000	7.02211E-005	5.99601E-002	6.92059E-001	3.57830E+000	9	...........
	29	0.4	7.02775E-001	1.00730E-004	0.00000E+000	7.07907E-005	5.99601E-002	7.03022E-001	3.57830E+000	9	...........
	30	0.413333	7.13509E-001	1.01489E-004	0.00000E+000	7.24132E-005	5.99601E-002	7.13771E-001	3.57830E+000	9	...........
	31	0.426667	7.24057E-001	1.00185E-004	0.00000E+000	7.25399E-005	5.99601E-002	7.24291E-001	3.57830E+000	9	...........
	32	0.44	7.34287E-001	1.00353E-004	0.00000E+000	7.36880E-005	5.99601E-002	7.34558E-001	3.57830E+000	9	...........
	33	0.453333	7.44338E-001	1.02727E-004	0.00000E+000	7.64632E-005	5.99601E-002	7.44611E-001	3.57830E+000	9	...........
	34	0.466667	7.54108E-001	9.97540E-005	0.00000E+000	7.52253E-005	5.99601E-002	7.54398E-001	3.57830E+000	9	...........
	35	0.48	7.63680E-001	1.00328E-004	0.00000E+000	7.66186E-005	5.99601E-002	7.63965E-001	3.57720E+000	9	...........
	36	0.493333	7.73002E-001	1.00269E-004	0.00000E+000	7.75079E-005	5.99601E-002	7.73305E-001	3.57720E+000	9	...........
	37	0.506667	7.82107E-001	1.01527E-004	0.00000E+000	7.94052E-005	5.99601E-002	7.82397E-001	3.57720E+000	9	...........
	38	0.52	7.90956E-001	1.00778E-004	0.00000E+000	7.97112E-005	5.99601E-002	7.91243E-001	3.57720E+000	9	...........
	39	0.533333	7.99614E-001	1.00979E-004	0.00000E+000	8.07445E-005	5.99601E-002	7.99883E-001	3.57720E+000	9	...........
	40	0.546667	8.07993E-001	1.00967E-004	0.00000E+000	8.15804E-005	5.99601E-002	8.08297E-001	3.57720E+000	9	...........
	41	0.56	8.16179E-001	1.00641E-004	0.00000E+000	8.21409E-005	5.99601E-002	8.16493E-001	3.57720E+000	9	...........
	42	0.573333	8.24122E-001	1.00252E-004	0.00000E+000	8.26200E-005	5.99601E-002	8.24461E-001	3.57720E+000	9	...........
	43	0.586667	8.31868E-001	1.01736E-004	0.00000E+000	8.46306E-005	5.99601E-002	8.32202E-001	3.57720E+000	9	...........
	44	0.6	8.39378E-001	1.01944E-004	0.00000E+000	8.55696E-005	5.99601E-002	8.39717E-001	3.57720E+000	9	...........
	45	0.613333	8.46687E-001	1.00594E-004	0.00000E+000	8.51715E-005	5.99601E-002	8.47041E-001	3.57720E+000	9	...........
	46	0.626667	8.53794E-001	1.00797E-004	0.00000E+000	8.60599E-005	5.99601E-002	8.54117E-001	3.57720E+000	9	...........
	47	0.64	8.60675E-001	1.00576E-004	0.00000E+000	8.65633E-005	5.99601E-002	8.60999E-001	3.57720E+000	9	...........
	48	0.653333	8.67343E-001	1.01597E-004	0.00000E+000	8.81196E-005	5.99601E-002	8.67672E-001	3.57720E+000	9	...........
	49	0.666667	8.73847E-001	1.01508E-004	0.00000E+000	8.87021E-005	5.99601E-002	8.74147E-001	3.57720E+000	9	...........
	50	0.68	8.80107E-001	1.01821E-004	0.00000E+000	8.96135E-005	5.99601E-002	8.80433E-001	3.57720E+000	9	...........
	51	0.693333	8.86196E-001	1.01472E-004	0.00000E+000	8.99242E-005	5.99601E-002	8.86502E-001	3.57720E+000	9	...........
	52	0.706667	8.92055E-001	1.00357E-004	0.00000E+000	8.95242E-005	5.99601E-002	8.92394E-001	3.57720E+000	9	...........
	53	0.72	8.97817E-001	1.00275E-004	0.00000E+000	9.00286E-005	5.99601E-002	8.98127E-001	3.57720E+000	9	...........
	54	0.733333	9.03368E-001	1.01590E-004	0.00000E+000	9.17730E-005	5.99601E-002	9.03700E-001	3.57720E+000	9	...........
	55	0.746667	9.08766E-001	1.00957E-004	0.00000E+000	9.17467E-005	5.99601E-002	9.09092E-001	3.57720E+000	9	...........
	56	0.76	9.14038E-001	1.00108E-004	0.00000E+000	9.15028E-005	5.99601E-002	9.14358E-001	3.57720E+000	9	...........
	57	0.773333	9.19162E-001	1.00327E-004	0.00000E+000	9.22169E-005	5.99601E-002	9.19498E-001	3.57720E+000	9	...........
	58	0.786667	9.24198E-001	1.00162E-004	0.00000E+000	9.25699E-005	5.99601E-002	9.24495E-001	3.57720E+000	9	...........
	59	0.8	9.29072E-001	1.00698E-004	0.00000E+000	9.35557E-005	5.99601E-002	9.29376E-001	3.57720E+000	9	...........
	60	0.813333	9.33818E-001	1.00840E-004	0.00000E+000	9.41659E-005	5.99601E-002	9.34148E-001	3.57720E+000	9	...........
	61	0.826667	9.38470E-001	1.01766E-004	0.00000E+000	9.55042E-005	5.99601E-002	9.38796E-001	3.57720E+000	9	...........
	62	0.84	9.43015E-001	1.00634E-004	0.00000E+000	9.48998E-005	5.99601E-002	9.43329E-001	3.57720E+000	9	...........
	63	0.853333	9.47510E-001	1.00788E-004	0.00000E+000	9.54973E-005	5.99601E-002	9.47823E-001	3.57720E+000	9	...........
	64	0.866667	9.51868E-001	1.01657E-004	0.00000E+000	9.67636E-005	5.99601E-002	9.52180E-001	3.57720E+000	9	...........
	65	0.88	9.56157E-001	1.01412E-004	0.00000E+000	9.69655E-005	5.99601E-002	9.56468E-001	3.57720E+000	9	...........
	66	0.893333	9.60353E-001	1.01416E-004	0.00000E+000	9.73950E-005	5.99601E-002	9.60681E-001	3.57720E+000	9	...........
	67	0.906667	9.64463E-001	1.00211E-004	0.00000E+000	9.66502E-005	5.99601E-002	9.64825E-001	3.57720E+000	9	...........
	68	0.92	9.68508E-001	1.01735E-004	0.00000E+000	9.85309E-005	5.99601E-002	9.68864E-001	3.57720E+000	9	...........
	69	0.933333	9.72485E-001	1.01449E-004	0.00000E+000	9.86578E-005	5.99601E-002	9.72874E-001	3.57720E+000	9	...........
	70	0.946667	9.76394E-001	1.00645E-004	0.00000E+000	9.82690E-005	5.99601E-002	9.76751E-001	3.57720E+000	9	...........
	71	0.96	9.80222E-001	1.01960E-004	0.00000E+000	9.99432E-005	5.99601E-002	9.80555E-001	3.57720E+000	9	...........
	72	0.97333	9.83954E-001	1.00550E-004	0.00000E+000	9.89366E-005	5.99601E-002	9.84290E-001	3.57720E+000	9	...........
	73	0.98667	9.87611E-001	1.02174E-004	0.00000E+000	1.00909E-004	5.99601E-002	9.87961E-001	3.57720E+000	9	...........
	74	1	9.91170E-001	1.01840E-004	0.00000E+000	1.00941E-004	5.99601E-002	9.91515E-001	3.57720E+000	9	...........
	75	1.01333	9.94657E-001	1.00564E-004	0.00000E+000	1.00026E-004	5.99601E-002	9.94997E-001	3.57720E+000	9	...........
	76	1.02667	9.98059E-001	1.00538E-004	0.00000E+000	1.00342E-004	5.99601E-002	9.98436E-001	3.57720E+000	9	...........
	77	1.03	1.00016E+000	1.01515E-004	0.00000E+000	1.01531E-004	5.99601E-002	1.00054E+000	3.57720E+000	9	...........
STARTTIMEOFFSET	QUANT	545.3635	Start Time Offset (s)
