EXPLAIN
TAG	PWR800_CHARGE
TITLE	LABEL	PWR Cyclic Charge Discharge (Cell) - Charge Step	Test &Identifier
DATE	LABEL	12-7-2017	Date
TIME	LABEL	16:55:21	Time
NOTES	NOTES	2	&Notes...
	supercap test cell
	6M KOH
PSTAT	PSTAT	IFC5000-01520	Potentiostat
CAPACITY	QUANT	1.00000E-003	Capacity (A-hr)
CELLTYPE	SELECTOR	1	&Cell Type
WORKINGCONNECTION	SELECTOR	0	&Working Lead
MAXCHARGETIME	VARIABLEANDUNITS	1.00000E+002	s	1.00000E+002	second(s)	Max &Charge Time
CHARGECURRENT	QUANT	1.00000E-004	&Charge Current (A) 
VOLTAGEFINISH	TWOPARAM	F	1.00000E-003	3.60000E+003	&Voltage Finish	 I (A) < 	Max Time(s)
SAMPLETIME	QUANT	1.00000E-002	Sa&mple Period (s)
CHARGESTOPAT1	MULTIPARAM	4	1.00000E+000	Charge Stop At &1	Voltage > Limit	V
CHARGESTOPAT2	MULTIPARAM	0	0.00000E+000	Charge Stop At &2	None	N/A
AESBHCSELECTOR	TOGGLE	F	Save Both Half Cells
IRCOMP	TOGGLE	F	IR &Measure
EOC	QUANT	0	Open Circuit (V)
SEQUENCER	TOGGLE	TRUE	Run as Sequence
PSTATMODEL	IQUANT	53	Pstat Model
PSTATSECTION	LABEL	IFC5000-01520	Pstat Section
PSTATSERIALNO	LABEL	01520	Pstat Serial Number
CTRLMODE	IQUANT	0	Control Mode
ELECTROMETER	IQUANT	1	RE=0 or CS=1
IESTAB	IQUANT	0	I/E Stability
CASPEED	IQUANT	4	Control Amp Speed
CONVENTION	IQUANT	1	Current Convention
ICHRANGE	IQUANT	2	Ich Range
ICHRANGEMODE	TOGGLE	T	Ich Auto Range
ICHOFFSETENABLE	TOGGLE	F	Ich Offset Enable
ICHOFFSET	QUANT	0	Ich Offset (V)
ICHFILTER	IQUANT	1	Ich Filter
VCHRANGE	IQUANT	2	Vch Range
VCHRANGEMODE	TOGGLE	T	Vch Auto Range
VCHOFFSETENABLE	TOGGLE	F	Vch Offset Enable
VCHOFFSET	QUANT	0	Vch Offset (V)
VCHFILTER	IQUANT	1	Vch Filter
IERANGELOWERLIMIT	IQUANT	9	I/E Range Lower Limit
IERANGEMODE	TOGGLE	F	I/E AutoRange
IERANGE	IQUANT	9	I/E Range
ACHSELECT	IQUANT	1	Ach Select
ACHRANGE	IQUANT	2	Ach Range
ACHOFFSETENABLE	TOGGLE	F	Ach Offset Enable
ACHOFFSET	QUANT	0	Ach Offset (V)
ACHFILTER	IQUANT	1	Ach Filter
CABLEID	IQUANT	14	Cable ID
DCCALDATE	LABEL	5-7-2017	DC Calibration Date
ACCALDATE	LABEL	12/3/2015	AC Calibration Date
FRAMEWORKVERSION	QUANT	7.01	Framework Version
INSTRUMENTVERSION	LABEL	4.00	Instrument Version
CURVE	TABLE	74
	Pt	T	Vf	Im	Vu	Pwr	Sig	Ach	Temp	IERange	Over
	#	s	V	A	V	W	V	V	deg C	#	bits
	0	0.013333	2.57911E-001	1.00410E-004	0.00000E+000	2.58969E-005	5.99601E-002	2.57992E-001	3.57770E+000	9	...........
	1	0.026667	2.81084E-001	1.01309E-004	0.00000E+000	2.84762E-005	5.99601E-002	2.81144E-001	3.57770E+000	9	...........
	2	0.04	3.03006E-001	1.00184E-004	0.00000E+000	3.03564E-005	5.99601E-002	3.03071E-001	3.57770E+000	9	...........
	3	0.053333	3.24049E-001	1.00930E-004	0.00000E+000	3.27064E-005	5.99601E-002	3.24115E-001	3.57770E+000	9	...........
	4	0.066667	3.44371E-001	1.00728E-004	0.00000E+000	3.46879E-005	5.99601E-002	3.44441E-001	3.57770E+000	9	...........
	5	0.08	3.64102E-001	1.01281E-004	0.00000E+000	3.68767E-005	5.99601E-002	3.64172E-001	3.57770E+000	9	...........
	6	0.093333	3.83312E-001	1.01179E-004	0.00000E+000	3.87832E-005	5.99601E-002	3.83386E-001	3.57770E+000	9	...........
	7	0.106667	4.02051E-001	1.01439E-004	0.00000E+000	4.07836E-005	5.99601E-002	4.02131E-001	3.57770E+000	9	...........
	8	0.12	4.20351E-001	1.01627E-004	0.00000E+000	4.27191E-005	5.99601E-002	4.20443E-001	3.57770E+000	9	...........
	9	0.133333	4.38263E-001	1.02347E-004	0.00000E+000	4.48550E-005	5.99601E-002	4.38347E-001	3.57770E+000	9	...........
	10	0.146667	4.55763E-001	1.01865E-004	0.00000E+000	4.64262E-005	5.99601E-002	4.55855E-001	3.57770E+000	9	...........
	11	0.16	4.72885E-001	1.00740E-004	0.00000E+000	4.76383E-005	5.99601E-002	4.72980E-001	3.57770E+000	9	...........
	12	0.173333	4.89640E-001	1.00485E-004	0.00000E+000	4.92016E-005	5.99601E-002	4.89741E-001	3.57770E+000	9	...........
	13	0.186667	5.06024E-001	1.00847E-004	0.00000E+000	5.10309E-005	5.99601E-002	5.06129E-001	3.57770E+000	9	...........
	14	0.2	5.22059E-001	1.01013E-004	0.00000E+000	5.27346E-005	5.99601E-002	5.22171E-001	3.57770E+000	9	...........
	15	0.213333	5.37546E-001	1.01003E-004	0.00000E+000	5.42939E-005	5.99601E-002	5.37731E-001	3.57770E+000	9	...........
	16	0.226667	5.52762E-001	1.00132E-004	0.00000E+000	5.53493E-005	5.99601E-002	5.53024E-001	3.57770E+000	9	...........
	17	0.24	5.67754E-001	1.00159E-004	0.00000E+000	5.68658E-005	5.99601E-002	5.68026E-001	3.57770E+000	9	...........
	18	0.253333	5.82373E-001	1.01657E-004	0.00000E+000	5.92020E-005	5.99601E-002	5.82645E-001	3.57770E+000	9	...........
	19	0.266667	5.96666E-001	1.01846E-004	0.00000E+000	6.07681E-005	5.99601E-002	5.96957E-001	3.57770E+000	9	...........
	20	0.28	6.10606E-001	1.00230E-004	0.00000E+000	6.12011E-005	5.99601E-002	6.10911E-001	3.57770E+000	9	...........
	21	0.293333	6.24257E-001	1.01211E-004	0.00000E+000	6.31814E-005	5.99601E-002	6.24514E-001	3.57770E+000	9	...........
	22	0.306667	6.37542E-001	1.00289E-004	0.00000E+000	6.39382E-005	5.99601E-002	6.37794E-001	3.57770E+000	9	...........
	23	0.32	6.50502E-001	1.01298E-004	0.00000E+000	6.58946E-005	5.99601E-002	6.50766E-001	3.57770E+000	9	...........
	24	0.333333	6.63148E-001	1.01587E-004	0.00000E+000	6.73670E-005	5.99601E-002	6.63374E-001	3.57770E+000	9	...........
	25	0.346667	6.75460E-001	1.00393E-004	0.00000E+000	6.78112E-005	5.99601E-002	6.75713E-001	3.57770E+000	9	...........
	26	0.36	6.87441E-001	1.01955E-004	0.00000E+000	7.00877E-005	5.99601E-002	6.87710E-001	3.57770E+000	9	...........
	27	0.373333	6.99119E-001	1.00447E-004	0.00000E+000	7.02243E-005	5.99601E-002	6.99389E-001	3.57770E+000	9	...........
	28	0.386667	7.10477E-001	1.00766E-004	0.00000E+000	7.15917E-005	5.99601E-002	7.10723E-001	3.57770E+000	9	...........
	29	0.4	7.21569E-001	1.01275E-004	0.00000E+000	7.30771E-005	5.99601E-002	7.21801E-001	3.57770E+000	9	...........
	30	0.413333	7.32320E-001	1.00352E-004	0.00000E+000	7.34898E-005	5.99601E-002	7.32556E-001	3.57665E+000	9	...........
	31	0.426667	7.42768E-001	1.02343E-004	0.00000E+000	7.60172E-005	5.99601E-002	7.43020E-001	3.57660E+000	9	...........
	32	0.44	7.52951E-001	1.00765E-004	0.00000E+000	7.58709E-005	5.99601E-002	7.53190E-001	3.57660E+000	9	...........
	33	0.453333	7.62805E-001	1.00809E-004	0.00000E+000	7.68979E-005	5.99601E-002	7.63077E-001	3.57660E+000	9	...........
	34	0.466667	7.72417E-001	9.99645E-005	0.00000E+000	7.72143E-005	5.99601E-002	7.72661E-001	3.57660E+000	9	...........
	35	0.48	7.81740E-001	1.01016E-004	0.00000E+000	7.89681E-005	5.99601E-002	7.82005E-001	3.57660E+000	9	...........
	36	0.493333	7.90771E-001	1.01367E-004	0.00000E+000	8.01580E-005	5.99601E-002	7.91037E-001	3.57660E+000	9	...........
	37	0.506667	7.99548E-001	1.01242E-004	0.00000E+000	8.09477E-005	5.99601E-002	7.99809E-001	3.57660E+000	9	...........
	38	0.52	8.08033E-001	1.00522E-004	0.00000E+000	8.12250E-005	5.99601E-002	8.08300E-001	3.57660E+000	9	...........
	39	0.533333	8.16276E-001	1.01535E-004	0.00000E+000	8.28802E-005	5.99601E-002	8.16542E-001	3.57660E+000	9	...........
	40	0.546667	8.24240E-001	1.00808E-004	0.00000E+000	8.30903E-005	5.99601E-002	8.24532E-001	3.57660E+000	9	...........
	41	0.56	8.31945E-001	1.01983E-004	0.00000E+000	8.48440E-005	5.99601E-002	8.32246E-001	3.57660E+000	9	...........
	42	0.573333	8.39415E-001	1.00050E-004	0.00000E+000	8.39835E-005	5.99601E-002	8.39696E-001	3.57660E+000	9	...........
	43	0.586667	8.46678E-001	1.02239E-004	0.00000E+000	8.65635E-005	5.99601E-002	8.46967E-001	3.57660E+000	9	...........
	44	0.6	8.53677E-001	1.02189E-004	0.00000E+000	8.72363E-005	5.99601E-002	8.53969E-001	3.57660E+000	9	...........
	45	0.613333	8.60474E-001	1.01623E-004	0.00000E+000	8.74442E-005	5.99601E-002	8.60803E-001	3.57660E+000	9	...........
	46	0.626667	8.67068E-001	1.00069E-004	0.00000E+000	8.67664E-005	5.99601E-002	8.67367E-001	3.57660E+000	9	...........
	47	0.64	8.73497E-001	1.00982E-004	0.00000E+000	8.82078E-005	5.99601E-002	8.73802E-001	3.57660E+000	9	...........
	48	0.653333	8.79718E-001	1.01194E-004	0.00000E+000	8.90221E-005	5.99601E-002	8.80016E-001	3.57660E+000	9	...........
	49	0.666667	8.85800E-001	1.01822E-004	0.00000E+000	9.01941E-005	5.99601E-002	8.86092E-001	3.57660E+000	9	...........
	50	0.68	8.91667E-001	1.00024E-004	0.00000E+000	8.91880E-005	5.99601E-002	8.91985E-001	3.57660E+000	9	...........
	51	0.693333	8.97423E-001	1.01046E-004	0.00000E+000	9.06810E-005	5.99601E-002	8.97772E-001	3.57660E+000	9	...........
	52	0.706667	9.03030E-001	1.00619E-004	0.00000E+000	9.08618E-005	5.99601E-002	9.03378E-001	3.57660E+000	9	...........
	53	0.72	9.08511E-001	1.01736E-004	0.00000E+000	9.24280E-005	5.99601E-002	9.08869E-001	3.57660E+000	9	...........
	54	0.733333	9.13892E-001	1.00961E-004	0.00000E+000	9.22670E-005	5.99601E-002	9.14232E-001	3.57660E+000	9	...........
	55	0.746667	9.19165E-001	1.01304E-004	0.00000E+000	9.31154E-005	5.99601E-002	9.19513E-001	3.57660E+000	9	...........
	56	0.76	9.24353E-001	1.00714E-004	0.00000E+000	9.30949E-005	5.99601E-002	9.24687E-001	3.57660E+000	9	...........
	57	0.773333	9.29425E-001	1.00694E-004	0.00000E+000	9.35873E-005	5.99601E-002	9.29744E-001	3.57660E+000	9	...........
	58	0.786667	9.34393E-001	1.01595E-004	0.00000E+000	9.49297E-005	5.99601E-002	9.34734E-001	3.57660E+000	9	...........
	59	0.8	9.39289E-001	1.00651E-004	0.00000E+000	9.45404E-005	5.99601E-002	9.39643E-001	3.57660E+000	9	...........
	60	0.813333	9.44122E-001	1.01232E-004	0.00000E+000	9.55758E-005	5.99601E-002	9.44451E-001	3.57660E+000	9	...........
	61	0.826667	9.48913E-001	1.02762E-004	0.00000E+000	9.75122E-005	5.99601E-002	9.49239E-001	3.57660E+000	9	...........
	62	0.84	9.53598E-001	1.00977E-004	0.00000E+000	9.62916E-005	5.99601E-002	9.53921E-001	3.57660E+000	9	...........
	63	0.853333	9.58191E-001	1.01384E-004	0.00000E+000	9.71448E-005	5.99601E-002	9.58515E-001	3.57660E+000	9	...........
	64	0.866667	9.62710E-001	1.01835E-004	0.00000E+000	9.80372E-005	5.99601E-002	9.63058E-001	3.57660E+000	9	...........
	65	0.88	9.67169E-001	1.01230E-004	0.00000E+000	9.79069E-005	5.99601E-002	9.67496E-001	3.57660E+000	9	...........
	66	0.893333	9.71581E-001	1.01752E-004	0.00000E+000	9.88606E-005	5.99601E-002	9.71900E-001	3.57660E+000	9	...........
	67	0.906667	9.75910E-001	1.00759E-004	0.00000E+000	9.83321E-005	5.99601E-002	9.76234E-001	3.57660E+000	9	...........
	68	0.92	9.80147E-001	9.97759E-005	0.00000E+000	9.77951E-005	5.99601E-002	9.80440E-001	3.57660E+000	9	...........
	69	0.933333	9.84260E-001	1.01522E-004	0.00000E+000	9.99242E-005	5.99601E-002	9.84569E-001	3.57660E+000	9	...........
	70	0.946667	9.88333E-001	1.01279E-004	0.00000E+000	1.00098E-004	5.99601E-002	9.88670E-001	3.57660E+000	9	...........
	71	0.96	9.92304E-001	1.00584E-004	0.00000E+000	9.98104E-005	5.99601E-002	9.92627E-001	3.57660E+000	9	...........
	72	0.97333	9.96188E-001	1.01000E-004	0.00000E+000	1.00615E-004	5.99601E-002	9.96532E-001	3.57660E+000	9	...........
	73	0.98167	9.99306E-001	1.00591E-004	0.00000E+000	1.00521E-004	5.99601E-002	9.99645E-001	3.57660E+000	9	...........
STARTTIMEOFFSET	QUANT	1930.124	Start Time Offset (s)
