EXPLAIN
TAG	PWR800_CHARGE
TITLE	LABEL	PWR Cyclic Charge Discharge (Cell) - Charge Step	Test &Identifier
DATE	LABEL	12-7-2017	Date
TIME	LABEL	16:10:31	Time
NOTES	NOTES	2	&Notes...
	supercap test cell
	6M KOH
PSTAT	PSTAT	IFC5000-01520	Potentiostat
CAPACITY	QUANT	1.00000E-003	Capacity (A-hr)
CELLTYPE	SELECTOR	1	&Cell Type
WORKINGCONNECTION	SELECTOR	0	&Working Lead
MAXCHARGETIME	VARIABLEANDUNITS	1.00000E+002	s	1.00000E+002	second(s)	Max &Charge Time
CHARGECURRENT	QUANT	1.00000E-004	&Charge Current (A) 
VOLTAGEFINISH	TWOPARAM	F	1.00000E-003	3.60000E+003	&Voltage Finish	 I (A) < 	Max Time(s)
SAMPLETIME	QUANT	1.00000E-002	Sa&mple Period (s)
CHARGESTOPAT1	MULTIPARAM	4	1.00000E+000	Charge Stop At &1	Voltage > Limit	V
CHARGESTOPAT2	MULTIPARAM	0	0.00000E+000	Charge Stop At &2	None	N/A
AESBHCSELECTOR	TOGGLE	F	Save Both Half Cells
IRCOMP	TOGGLE	F	IR &Measure
EOC	QUANT	0	Open Circuit (V)
SEQUENCER	TOGGLE	TRUE	Run as Sequence
PSTATMODEL	IQUANT	53	Pstat Model
PSTATSECTION	LABEL	IFC5000-01520	Pstat Section
PSTATSERIALNO	LABEL	01520	Pstat Serial Number
CTRLMODE	IQUANT	0	Control Mode
ELECTROMETER	IQUANT	1	RE=0 or CS=1
IESTAB	IQUANT	0	I/E Stability
CASPEED	IQUANT	4	Control Amp Speed
CONVENTION	IQUANT	1	Current Convention
ICHRANGE	IQUANT	2	Ich Range
ICHRANGEMODE	TOGGLE	T	Ich Auto Range
ICHOFFSETENABLE	TOGGLE	F	Ich Offset Enable
ICHOFFSET	QUANT	0	Ich Offset (V)
ICHFILTER	IQUANT	1	Ich Filter
VCHRANGE	IQUANT	2	Vch Range
VCHRANGEMODE	TOGGLE	T	Vch Auto Range
VCHOFFSETENABLE	TOGGLE	F	Vch Offset Enable
VCHOFFSET	QUANT	0	Vch Offset (V)
VCHFILTER	IQUANT	1	Vch Filter
IERANGELOWERLIMIT	IQUANT	9	I/E Range Lower Limit
IERANGEMODE	TOGGLE	F	I/E AutoRange
IERANGE	IQUANT	9	I/E Range
ACHSELECT	IQUANT	1	Ach Select
ACHRANGE	IQUANT	2	Ach Range
ACHOFFSETENABLE	TOGGLE	F	Ach Offset Enable
ACHOFFSET	QUANT	0	Ach Offset (V)
ACHFILTER	IQUANT	1	Ach Filter
CABLEID	IQUANT	14	Cable ID
DCCALDATE	LABEL	5-7-2017	DC Calibration Date
ACCALDATE	LABEL	12/3/2015	AC Calibration Date
FRAMEWORKVERSION	QUANT	7.01	Framework Version
INSTRUMENTVERSION	LABEL	4.00	Instrument Version
CURVE	TABLE	89
	Pt	T	Vf	Im	Vu	Pwr	Sig	Ach	Temp	IERange	Over
	#	s	V	A	V	W	V	V	deg C	#	bits
	0	0.013333	2.60186E-001	1.00945E-004	0.00000E+000	2.62644E-005	5.99601E-002	2.60266E-001	3.57860E+000	9	...........
	1	0.026667	2.82360E-001	1.00894E-004	0.00000E+000	2.84884E-005	5.99601E-002	2.82417E-001	3.57860E+000	9	...........
	2	0.04	3.02962E-001	1.01253E-004	0.00000E+000	3.06759E-005	5.99601E-002	3.03017E-001	3.57860E+000	9	...........
	3	0.053333	3.22355E-001	1.01173E-004	0.00000E+000	3.26136E-005	5.99601E-002	3.22420E-001	3.57860E+000	9	...........
	4	0.066667	3.40737E-001	1.01066E-004	0.00000E+000	3.44369E-005	5.99601E-002	3.40805E-001	3.57860E+000	9	...........
	5	0.08	3.58255E-001	1.00834E-004	0.00000E+000	3.61245E-005	5.99601E-002	3.58324E-001	3.57860E+000	9	...........
	6	0.093333	3.75006E-001	1.00786E-004	0.00000E+000	3.77951E-005	5.99601E-002	3.75072E-001	3.57860E+000	9	...........
	7	0.106667	3.91069E-001	1.00792E-004	0.00000E+000	3.94165E-005	5.99601E-002	3.91143E-001	3.57860E+000	9	...........
	8	0.12	4.06516E-001	1.01170E-004	0.00000E+000	4.11272E-005	5.99601E-002	4.06597E-001	3.57860E+000	9	...........
	9	0.133333	4.21396E-001	1.01171E-004	0.00000E+000	4.26331E-005	5.99601E-002	4.21487E-001	3.57860E+000	9	...........
	10	0.146667	4.35781E-001	1.00997E-004	0.00000E+000	4.40126E-005	5.99601E-002	4.35870E-001	3.57860E+000	9	...........
	11	0.16	4.49688E-001	1.00980E-004	0.00000E+000	4.54097E-005	5.99601E-002	4.49781E-001	3.57860E+000	9	...........
	12	0.173333	4.63160E-001	1.01465E-004	0.00000E+000	4.69945E-005	5.99601E-002	4.63255E-001	3.57860E+000	9	...........
	13	0.186667	4.76231E-001	1.00861E-004	0.00000E+000	4.80329E-005	5.99601E-002	4.76331E-001	3.57860E+000	9	...........
	14	0.2	4.88959E-001	1.01039E-004	0.00000E+000	4.94038E-005	5.99601E-002	4.89056E-001	3.57860E+000	9	...........
	15	0.213333	5.01349E-001	1.01401E-004	0.00000E+000	5.08374E-005	5.99601E-002	5.01457E-001	3.57860E+000	9	...........
	16	0.226667	5.13439E-001	1.00507E-004	0.00000E+000	5.16044E-005	5.99601E-002	5.13550E-001	3.57860E+000	9	...........
	17	0.24	5.25260E-001	1.00915E-004	0.00000E+000	5.30065E-005	5.99601E-002	5.25366E-001	3.57860E+000	9	...........
	18	0.253333	5.36582E-001	1.00504E-004	0.00000E+000	5.39288E-005	5.99601E-002	5.36784E-001	3.57860E+000	9	...........
	19	0.266667	5.47838E-001	1.01118E-004	0.00000E+000	5.53962E-005	5.99601E-002	5.48066E-001	3.57860E+000	9	...........
	20	0.28	5.58932E-001	1.00980E-004	0.00000E+000	5.64411E-005	5.99601E-002	5.59182E-001	3.57860E+000	9	...........
	21	0.293333	5.69841E-001	1.00838E-004	0.00000E+000	5.74614E-005	5.99601E-002	5.70100E-001	3.57860E+000	9	...........
	22	0.306667	5.80526E-001	1.00938E-004	0.00000E+000	5.85969E-005	5.99601E-002	5.80781E-001	3.57860E+000	9	...........
	23	0.32	5.91060E-001	1.00998E-004	0.00000E+000	5.96959E-005	5.99601E-002	5.91317E-001	3.57860E+000	9	...........
	24	0.333333	6.01382E-001	1.00902E-004	0.00000E+000	6.06808E-005	5.99601E-002	6.01660E-001	3.57860E+000	9	...........
	25	0.346667	6.11556E-001	1.01512E-004	0.00000E+000	6.20801E-005	5.99601E-002	6.11843E-001	3.57860E+000	9	...........
	26	0.36	6.21605E-001	1.01738E-004	0.00000E+000	6.32407E-005	5.99601E-002	6.21844E-001	3.57860E+000	9	...........
	27	0.373333	6.31437E-001	1.01113E-004	0.00000E+000	6.38463E-005	5.99601E-002	6.31712E-001	3.57830E+000	9	...........
	28	0.386667	6.41161E-001	1.00617E-004	0.00000E+000	6.45115E-005	5.99601E-002	6.41431E-001	3.57800E+000	9	...........
	29	0.4	6.50726E-001	1.00969E-004	0.00000E+000	6.57031E-005	5.99601E-002	6.50999E-001	3.57800E+000	9	...........
	30	0.413333	6.60122E-001	1.01272E-004	0.00000E+000	6.68519E-005	5.99601E-002	6.60409E-001	3.57800E+000	9	...........
	31	0.426667	6.69435E-001	1.01285E-004	0.00000E+000	6.78034E-005	5.99601E-002	6.69677E-001	3.57800E+000	9	...........
	32	0.44	6.78577E-001	1.01019E-004	0.00000E+000	6.85491E-005	5.99601E-002	6.78812E-001	3.57800E+000	9	...........
	33	0.453333	6.87586E-001	1.00820E-004	0.00000E+000	6.93223E-005	5.99601E-002	6.87819E-001	3.57800E+000	9	...........
	34	0.466667	6.96493E-001	1.00527E-004	0.00000E+000	7.00164E-005	5.99601E-002	6.96732E-001	3.57800E+000	9	...........
	35	0.48	7.05243E-001	1.00763E-004	0.00000E+000	7.10621E-005	5.99601E-002	7.05519E-001	3.57800E+000	9	...........
	36	0.493333	7.13877E-001	1.01534E-004	0.00000E+000	7.24824E-005	5.99601E-002	7.14154E-001	3.57800E+000	9	...........
	37	0.506667	7.22421E-001	1.01246E-004	0.00000E+000	7.31422E-005	5.99601E-002	7.22690E-001	3.57800E+000	9	...........
	38	0.52	7.30792E-001	1.00815E-004	0.00000E+000	7.36745E-005	5.99601E-002	7.31075E-001	3.57800E+000	9	...........
	39	0.533333	7.39060E-001	1.00933E-004	0.00000E+000	7.45958E-005	5.99601E-002	7.39324E-001	3.57800E+000	9	...........
	40	0.546667	7.47210E-001	1.01211E-004	0.00000E+000	7.56256E-005	5.99601E-002	7.47483E-001	3.57800E+000	9	...........
	41	0.56	7.55228E-001	1.00548E-004	0.00000E+000	7.59366E-005	5.99601E-002	7.55499E-001	3.57800E+000	9	...........
	42	0.573333	7.63136E-001	1.00730E-004	0.00000E+000	7.68709E-005	5.99601E-002	7.63380E-001	3.57800E+000	9	...........
	43	0.586667	7.70926E-001	1.01270E-004	0.00000E+000	7.80717E-005	5.99601E-002	7.71170E-001	3.57800E+000	9	...........
	44	0.6	7.78568E-001	1.01887E-004	0.00000E+000	7.93258E-005	5.99601E-002	7.78850E-001	3.57800E+000	9	...........
	45	0.613333	7.86121E-001	1.01079E-004	0.00000E+000	7.94605E-005	5.99601E-002	7.86385E-001	3.57800E+000	9	...........
	46	0.626667	7.93541E-001	1.01197E-004	0.00000E+000	8.03040E-005	5.99601E-002	7.93833E-001	3.57800E+000	9	...........
	47	0.64	8.00841E-001	1.01500E-004	0.00000E+000	8.12856E-005	5.99601E-002	8.01122E-001	3.57800E+000	9	...........
	48	0.653333	8.08008E-001	1.01643E-004	0.00000E+000	8.21283E-005	5.99601E-002	8.08302E-001	3.57800E+000	9	...........
	49	0.666667	8.15050E-001	1.01103E-004	0.00000E+000	8.24043E-005	5.99601E-002	8.15365E-001	3.57800E+000	9	...........
	50	0.68	8.22008E-001	1.00681E-004	0.00000E+000	8.27608E-005	5.99601E-002	8.22311E-001	3.57800E+000	9	...........
	51	0.693333	8.28791E-001	1.00997E-004	0.00000E+000	8.37055E-005	5.99601E-002	8.29086E-001	3.57800E+000	9	...........
	52	0.706667	8.35468E-001	1.01270E-004	0.00000E+000	8.46078E-005	5.99601E-002	8.35762E-001	3.57800E+000	9	...........
	53	0.72	8.42013E-001	1.01194E-004	0.00000E+000	8.52066E-005	5.99601E-002	8.42326E-001	3.57800E+000	9	...........
	54	0.733333	8.48453E-001	1.00673E-004	0.00000E+000	8.54162E-005	5.99601E-002	8.48782E-001	3.57800E+000	9	...........
	55	0.746667	8.54761E-001	1.01549E-004	0.00000E+000	8.68003E-005	5.99601E-002	8.55091E-001	3.57800E+000	9	...........
	56	0.76	8.60955E-001	1.01264E-004	0.00000E+000	8.71835E-005	5.99601E-002	8.61277E-001	3.57800E+000	9	...........
	57	0.773333	8.67006E-001	1.01153E-004	0.00000E+000	8.77005E-005	5.99601E-002	8.67328E-001	3.57800E+000	9	...........
	58	0.786667	8.72970E-001	1.00937E-004	0.00000E+000	8.81146E-005	5.99601E-002	8.73274E-001	3.57800E+000	9	...........
	59	0.8	8.78782E-001	1.01047E-004	0.00000E+000	8.87983E-005	5.99601E-002	8.79079E-001	3.57800E+000	9	...........
	60	0.813333	8.84505E-001	1.00932E-004	0.00000E+000	8.92752E-005	5.99601E-002	8.84787E-001	3.57800E+000	9	...........
	61	0.826667	8.90077E-001	1.00981E-004	0.00000E+000	8.98812E-005	5.99601E-002	8.90341E-001	3.57800E+000	9	...........
	62	0.84	8.95517E-001	1.00931E-004	0.00000E+000	9.03858E-005	5.99601E-002	8.95804E-001	3.57800E+000	9	...........
	63	0.853333	9.00837E-001	1.01236E-004	0.00000E+000	9.11968E-005	5.99601E-002	9.01139E-001	3.57800E+000	9	...........
	64	0.866667	9.06048E-001	1.01413E-004	0.00000E+000	9.18847E-005	5.99601E-002	9.06355E-001	3.57800E+000	9	...........
	65	0.88	9.11146E-001	1.01254E-004	0.00000E+000	9.22575E-005	5.99601E-002	9.11449E-001	3.57800E+000	9	...........
	66	0.893333	9.16126E-001	1.01243E-004	0.00000E+000	9.27513E-005	5.99601E-002	9.16438E-001	3.57800E+000	9	...........
	67	0.906667	9.21011E-001	1.00585E-004	0.00000E+000	9.26403E-005	5.99601E-002	9.21337E-001	3.57800E+000	9	...........
	68	0.92	9.25789E-001	1.00716E-004	0.00000E+000	9.32414E-005	5.99601E-002	9.26093E-001	3.57800E+000	9	...........
	69	0.933333	9.30417E-001	1.01099E-004	0.00000E+000	9.40643E-005	5.99601E-002	9.30719E-001	3.57800E+000	9	...........
	70	0.946667	9.34907E-001	1.01049E-004	0.00000E+000	9.44715E-005	5.99601E-002	9.35266E-001	3.57800E+000	9	...........
	71	0.96	9.39331E-001	1.00799E-004	0.00000E+000	9.46837E-005	5.99601E-002	9.39664E-001	3.57800E+000	9	...........
	72	0.97333	9.43616E-001	1.00824E-004	0.00000E+000	9.51392E-005	5.99601E-002	9.43975E-001	3.57800E+000	9	...........
	73	0.98667	9.47862E-001	1.01374E-004	0.00000E+000	9.60887E-005	5.99601E-002	9.48188E-001	3.57800E+000	9	...........
	74	1	9.51976E-001	1.00720E-004	0.00000E+000	9.58829E-005	5.99601E-002	9.52295E-001	3.57800E+000	9	...........
	75	1.01333	9.55960E-001	1.01811E-004	0.00000E+000	9.73269E-005	5.99601E-002	9.56294E-001	3.57800E+000	9	...........
	76	1.02667	9.59854E-001	1.02237E-004	0.00000E+000	9.81324E-005	5.99601E-002	9.60220E-001	3.57800E+000	9	...........
	77	1.04	9.63643E-001	1.00277E-004	0.00000E+000	9.66313E-005	5.99601E-002	9.64011E-001	3.57800E+000	9	...........
	78	1.05333	9.67383E-001	1.01319E-004	0.00000E+000	9.80142E-005	5.99601E-002	9.67726E-001	3.57800E+000	9	...........
	79	1.06667	9.70993E-001	1.00312E-004	0.00000E+000	9.74027E-005	5.99601E-002	9.71359E-001	3.57800E+000	9	...........
	80	1.08	9.74575E-001	1.01985E-004	0.00000E+000	9.93918E-005	5.99601E-002	9.74924E-001	3.57800E+000	9	...........
	81	1.09333	9.78022E-001	1.01044E-004	0.00000E+000	9.88231E-005	5.99601E-002	9.78358E-001	3.57800E+000	9	...........
	82	1.10667	9.81400E-001	1.01056E-004	0.00000E+000	9.91768E-005	5.99601E-002	9.81718E-001	3.57800E+000	9	...........
	83	1.12	9.84670E-001	1.01206E-004	0.00000E+000	9.96550E-005	5.99601E-002	9.84996E-001	3.57800E+000	9	...........
	84	1.13333	9.87860E-001	1.01238E-004	0.00000E+000	1.00009E-004	5.99601E-002	9.88186E-001	3.57800E+000	9	...........
	85	1.14667	9.91004E-001	1.01885E-004	0.00000E+000	1.00968E-004	5.99601E-002	9.91314E-001	3.57800E+000	9	...........
	86	1.16	9.94033E-001	1.01517E-004	0.00000E+000	1.00911E-004	5.99601E-002	9.94384E-001	3.57800E+000	9	...........
	87	1.17333	9.97022E-001	1.01168E-004	0.00000E+000	1.00867E-004	5.99601E-002	9.97379E-001	3.57800E+000	9	...........
	88	1.18167	9.99386E-001	1.01710E-004	0.00000E+000	1.01647E-004	5.99601E-002	9.99731E-001	3.57800E+000	9	...........
STARTTIMEOFFSET	QUANT	17.99333	Start Time Offset (s)
