EXPLAIN
TAG	PWR800_CHARGE
TITLE	LABEL	PWR Cyclic Charge Discharge (Cell) - Charge Step	Test &Identifier
DATE	LABEL	12-7-2017	Date
TIME	LABEL	16:28:38	Time
NOTES	NOTES	2	&Notes...
	supercap test cell
	6M KOH
PSTAT	PSTAT	IFC5000-01520	Potentiostat
CAPACITY	QUANT	1.00000E-003	Capacity (A-hr)
CELLTYPE	SELECTOR	1	&Cell Type
WORKINGCONNECTION	SELECTOR	0	&Working Lead
MAXCHARGETIME	VARIABLEANDUNITS	1.00000E+002	s	1.00000E+002	second(s)	Max &Charge Time
CHARGECURRENT	QUANT	1.00000E-004	&Charge Current (A) 
VOLTAGEFINISH	TWOPARAM	F	1.00000E-003	3.60000E+003	&Voltage Finish	 I (A) < 	Max Time(s)
SAMPLETIME	QUANT	1.00000E-002	Sa&mple Period (s)
CHARGESTOPAT1	MULTIPARAM	4	1.00000E+000	Charge Stop At &1	Voltage > Limit	V
CHARGESTOPAT2	MULTIPARAM	0	0.00000E+000	Charge Stop At &2	None	N/A
AESBHCSELECTOR	TOGGLE	F	Save Both Half Cells
IRCOMP	TOGGLE	F	IR &Measure
EOC	QUANT	0	Open Circuit (V)
SEQUENCER	TOGGLE	TRUE	Run as Sequence
PSTATMODEL	IQUANT	53	Pstat Model
PSTATSECTION	LABEL	IFC5000-01520	Pstat Section
PSTATSERIALNO	LABEL	01520	Pstat Serial Number
CTRLMODE	IQUANT	0	Control Mode
ELECTROMETER	IQUANT	1	RE=0 or CS=1
IESTAB	IQUANT	0	I/E Stability
CASPEED	IQUANT	4	Control Amp Speed
CONVENTION	IQUANT	1	Current Convention
ICHRANGE	IQUANT	2	Ich Range
ICHRANGEMODE	TOGGLE	T	Ich Auto Range
ICHOFFSETENABLE	TOGGLE	F	Ich Offset Enable
ICHOFFSET	QUANT	0	Ich Offset (V)
ICHFILTER	IQUANT	1	Ich Filter
VCHRANGE	IQUANT	2	Vch Range
VCHRANGEMODE	TOGGLE	T	Vch Auto Range
VCHOFFSETENABLE	TOGGLE	F	Vch Offset Enable
VCHOFFSET	QUANT	0	Vch Offset (V)
VCHFILTER	IQUANT	1	Vch Filter
IERANGELOWERLIMIT	IQUANT	9	I/E Range Lower Limit
IERANGEMODE	TOGGLE	F	I/E AutoRange
IERANGE	IQUANT	9	I/E Range
ACHSELECT	IQUANT	1	Ach Select
ACHRANGE	IQUANT	2	Ach Range
ACHOFFSETENABLE	TOGGLE	F	Ach Offset Enable
ACHOFFSET	QUANT	0	Ach Offset (V)
ACHFILTER	IQUANT	1	Ach Filter
CABLEID	IQUANT	14	Cable ID
DCCALDATE	LABEL	5-7-2017	DC Calibration Date
ACCALDATE	LABEL	12/3/2015	AC Calibration Date
FRAMEWORKVERSION	QUANT	7.01	Framework Version
INSTRUMENTVERSION	LABEL	4.00	Instrument Version
CURVE	TABLE	77
	Pt	T	Vf	Im	Vu	Pwr	Sig	Ach	Temp	IERange	Over
	#	s	V	A	V	W	V	V	deg C	#	bits
	0	0.013333	2.59582E-001	1.00778E-004	0.00000E+000	2.61603E-005	5.99601E-002	2.59662E-001	3.57750E+000	9	...........
	1	0.026667	2.82445E-001	1.00821E-004	0.00000E+000	2.84764E-005	5.99601E-002	2.82513E-001	3.57750E+000	9	...........
	2	0.04	3.03955E-001	1.01722E-004	0.00000E+000	3.09190E-005	5.99601E-002	3.04022E-001	3.57750E+000	9	...........
	3	0.053333	3.24477E-001	1.01452E-004	0.00000E+000	3.29189E-005	5.99601E-002	3.24550E-001	3.57750E+000	9	...........
	4	0.066667	3.44219E-001	1.01582E-004	0.00000E+000	3.49663E-005	5.99601E-002	3.44299E-001	3.57750E+000	9	...........
	5	0.08	3.63319E-001	1.00338E-004	0.00000E+000	3.64545E-005	5.99601E-002	3.63397E-001	3.57750E+000	9	...........
	6	0.093333	3.81850E-001	1.02145E-004	0.00000E+000	3.90041E-005	5.99601E-002	3.81931E-001	3.57750E+000	9	...........
	7	0.106667	3.99874E-001	9.98322E-005	0.00000E+000	3.99203E-005	5.99601E-002	3.99960E-001	3.57750E+000	9	...........
	8	0.12	4.17448E-001	1.02448E-004	0.00000E+000	4.27669E-005	5.99601E-002	4.17541E-001	3.57750E+000	9	...........
	9	0.133333	4.34603E-001	1.01022E-004	0.00000E+000	4.39045E-005	5.99601E-002	4.34693E-001	3.57750E+000	9	...........
	10	0.146667	4.51347E-001	1.02353E-004	0.00000E+000	4.61965E-005	5.99601E-002	4.51452E-001	3.57750E+000	9	...........
	11	0.16	4.67715E-001	1.01559E-004	0.00000E+000	4.75005E-005	5.99601E-002	4.67818E-001	3.57750E+000	9	...........
	12	0.173333	4.83735E-001	1.01120E-004	0.00000E+000	4.89152E-005	5.99601E-002	4.83841E-001	3.57750E+000	9	...........
	13	0.186667	4.99413E-001	1.01700E-004	0.00000E+000	5.07905E-005	5.99601E-002	4.99529E-001	3.57750E+000	9	...........
	14	0.2	5.14757E-001	9.97832E-005	0.00000E+000	5.13641E-005	5.99601E-002	5.14874E-001	3.57750E+000	9	...........
	15	0.213333	5.29746E-001	1.01047E-004	0.00000E+000	5.35292E-005	5.99601E-002	5.29844E-001	3.57750E+000	9	...........
	16	0.226667	5.44204E-001	1.00838E-004	0.00000E+000	5.48762E-005	5.99601E-002	5.44434E-001	3.57750E+000	9	...........
	17	0.24	5.58590E-001	1.00740E-004	0.00000E+000	5.62722E-005	5.99601E-002	5.58849E-001	3.57750E+000	9	...........
	18	0.253333	5.72703E-001	1.00772E-004	0.00000E+000	5.77124E-005	5.99601E-002	5.72958E-001	3.57750E+000	9	...........
	19	0.266667	5.86513E-001	1.01268E-004	0.00000E+000	5.93950E-005	5.99601E-002	5.86773E-001	3.57750E+000	9	...........
	20	0.28	6.00039E-001	1.01262E-004	0.00000E+000	6.07610E-005	5.99601E-002	6.00302E-001	3.57750E+000	9	...........
	21	0.293333	6.13276E-001	1.01436E-004	0.00000E+000	6.22080E-005	5.99601E-002	6.13537E-001	3.57750E+000	9	...........
	22	0.306667	6.26229E-001	1.00715E-004	0.00000E+000	6.30705E-005	5.99601E-002	6.26483E-001	3.57750E+000	9	...........
	23	0.32	6.38905E-001	1.02037E-004	0.00000E+000	6.51918E-005	5.99601E-002	6.39159E-001	3.57750E+000	9	...........
	24	0.333333	6.51293E-001	1.01763E-004	0.00000E+000	6.62774E-005	5.99601E-002	6.51556E-001	3.57750E+000	9	...........
	25	0.346667	6.63407E-001	1.02103E-004	0.00000E+000	6.77361E-005	5.99601E-002	6.63678E-001	3.57750E+000	9	...........
	26	0.36	6.75262E-001	1.01293E-004	0.00000E+000	6.83993E-005	5.99601E-002	6.75527E-001	3.57750E+000	9	...........
	27	0.373333	6.86834E-001	1.01621E-004	0.00000E+000	6.97968E-005	5.99601E-002	6.87104E-001	3.57750E+000	9	...........
	28	0.386667	6.98154E-001	9.99489E-005	0.00000E+000	6.97798E-005	5.99601E-002	6.98404E-001	3.57750E+000	9	...........
	29	0.4	7.09165E-001	1.00905E-004	0.00000E+000	7.15585E-005	5.99601E-002	7.09451E-001	3.57750E+000	9	...........
	30	0.413333	7.19988E-001	1.01091E-004	0.00000E+000	7.27841E-005	5.99601E-002	7.20250E-001	3.57750E+000	9	...........
	31	0.426667	7.30486E-001	1.02199E-004	0.00000E+000	7.46552E-005	5.99601E-002	7.30751E-001	3.57750E+000	9	...........
	32	0.44	7.40744E-001	1.01305E-004	0.00000E+000	7.50414E-005	5.99601E-002	7.41013E-001	3.57750E+000	9	...........
	33	0.453333	7.50751E-001	1.01912E-004	0.00000E+000	7.65104E-005	5.99601E-002	7.51017E-001	3.57750E+000	9	...........
	34	0.466667	7.60486E-001	1.01394E-004	0.00000E+000	7.71087E-005	5.99601E-002	7.60755E-001	3.57750E+000	9	...........
	35	0.48	7.69962E-001	1.00752E-004	0.00000E+000	7.75754E-005	5.99601E-002	7.70251E-001	3.57750E+000	9	...........
	36	0.493333	7.79211E-001	1.01324E-004	0.00000E+000	7.89529E-005	5.99601E-002	7.79501E-001	3.57750E+000	9	...........
	37	0.506667	7.88198E-001	1.02087E-004	0.00000E+000	8.04646E-005	5.99601E-002	7.88492E-001	3.57750E+000	9	...........
	38	0.52	7.96972E-001	1.00555E-004	0.00000E+000	8.01397E-005	5.99601E-002	7.97272E-001	3.57750E+000	9	...........
	39	0.533333	8.05454E-001	1.01016E-004	0.00000E+000	8.13636E-005	5.99601E-002	8.05776E-001	3.57750E+000	9	...........
	40	0.546667	8.13716E-001	1.00761E-004	0.00000E+000	8.19904E-005	5.99601E-002	8.14035E-001	3.57750E+000	9	...........
	41	0.56	8.21774E-001	1.01219E-004	0.00000E+000	8.31791E-005	5.99601E-002	8.22078E-001	3.57750E+000	9	...........
	42	0.573333	8.29538E-001	1.01893E-004	0.00000E+000	8.45242E-005	5.99601E-002	8.29831E-001	3.57750E+000	9	...........
	43	0.586667	8.37096E-001	1.01815E-004	0.00000E+000	8.52288E-005	5.99601E-002	8.37382E-001	3.57750E+000	9	...........
	44	0.6	8.44446E-001	1.01213E-004	0.00000E+000	8.54686E-005	5.99601E-002	8.44746E-001	3.57750E+000	9	...........
	45	0.613333	8.51557E-001	1.00521E-004	0.00000E+000	8.55993E-005	5.99601E-002	8.51853E-001	3.57750E+000	9	...........
	46	0.626667	8.58451E-001	1.01396E-004	0.00000E+000	8.70436E-005	5.99601E-002	8.58756E-001	3.57750E+000	9	...........
	47	0.64	8.65129E-001	1.01074E-004	0.00000E+000	8.74421E-005	5.99601E-002	8.65427E-001	3.57750E+000	9	...........
	48	0.653333	8.71626E-001	1.01719E-004	0.00000E+000	8.86610E-005	5.99601E-002	8.71946E-001	3.57750E+000	9	...........
	49	0.666667	8.77898E-001	1.02494E-004	0.00000E+000	8.99795E-005	5.99601E-002	8.78189E-001	3.57750E+000	9	...........
	50	0.68	8.83993E-001	1.01982E-004	0.00000E+000	9.01510E-005	5.99601E-002	8.84310E-001	3.57750E+000	9	...........
	51	0.693333	8.89900E-001	1.01338E-004	0.00000E+000	9.01805E-005	5.99601E-002	8.90179E-001	3.57750E+000	9	...........
	52	0.706667	8.95620E-001	1.01244E-004	0.00000E+000	9.06761E-005	5.99601E-002	8.95945E-001	3.57750E+000	9	...........
	53	0.72	9.01190E-001	1.01216E-004	0.00000E+000	9.12146E-005	5.99601E-002	9.01527E-001	3.57750E+000	9	...........
	54	0.733333	9.06618E-001	1.02196E-004	0.00000E+000	9.26529E-005	5.99601E-002	9.06920E-001	3.57772E+000	9	...........
	55	0.746667	9.11921E-001	1.00832E-004	0.00000E+000	9.19512E-005	5.99601E-002	9.12229E-001	3.57810E+000	9	...........
	56	0.76	9.17064E-001	1.02227E-004	0.00000E+000	9.37492E-005	5.99601E-002	9.17414E-001	3.57810E+000	9	...........
	57	0.773333	9.22163E-001	1.00508E-004	0.00000E+000	9.26851E-005	5.99601E-002	9.22463E-001	3.57810E+000	9	...........
	58	0.786667	9.27118E-001	1.00882E-004	0.00000E+000	9.35299E-005	5.99601E-002	9.27413E-001	3.57810E+000	9	...........
	59	0.8	9.31911E-001	1.01010E-004	0.00000E+000	9.41319E-005	5.99601E-002	9.32235E-001	3.57810E+000	9	...........
	60	0.813333	9.36635E-001	1.01884E-004	0.00000E+000	9.54278E-005	5.99601E-002	9.36979E-001	3.57810E+000	9	...........
	61	0.826667	9.41281E-001	1.01537E-004	0.00000E+000	9.55745E-005	5.99601E-002	9.41606E-001	3.57810E+000	9	...........
	62	0.84	9.45834E-001	1.01046E-004	0.00000E+000	9.55727E-005	5.99601E-002	9.46165E-001	3.57810E+000	9	...........
	63	0.853333	9.50310E-001	1.01155E-004	0.00000E+000	9.61290E-005	5.99601E-002	9.50674E-001	3.57810E+000	9	...........
	64	0.866667	9.54704E-001	1.01871E-004	0.00000E+000	9.72568E-005	5.99601E-002	9.55038E-001	3.57810E+000	9	...........
	65	0.88	9.58996E-001	9.99426E-005	0.00000E+000	9.58446E-005	5.99601E-002	9.59354E-001	3.57810E+000	9	...........
	66	0.893333	9.63224E-001	1.01418E-004	0.00000E+000	9.76882E-005	5.99601E-002	9.63570E-001	3.57810E+000	9	...........
	67	0.906667	9.67371E-001	1.01548E-004	0.00000E+000	9.82348E-005	5.99601E-002	9.67710E-001	3.57810E+000	9	...........
	68	0.92	9.71445E-001	1.02078E-004	0.00000E+000	9.91637E-005	5.99601E-002	9.71833E-001	3.57810E+000	9	...........
	69	0.933333	9.75507E-001	1.01835E-004	0.00000E+000	9.93404E-005	5.99601E-002	9.75821E-001	3.57810E+000	9	...........
	70	0.946667	9.79392E-001	1.01371E-004	0.00000E+000	9.92820E-005	5.99601E-002	9.79735E-001	3.57810E+000	9	...........
	71	0.96	9.83250E-001	1.01368E-004	0.00000E+000	9.96700E-005	5.99601E-002	9.83564E-001	3.57810E+000	9	...........
	72	0.97333	9.87018E-001	1.01583E-004	0.00000E+000	1.00264E-004	5.99601E-002	9.87351E-001	3.57810E+000	9	...........
	73	0.98667	9.90705E-001	1.00356E-004	0.00000E+000	9.94234E-005	5.99601E-002	9.91016E-001	3.57810E+000	9	...........
	74	1	9.94294E-001	9.95509E-005	0.00000E+000	9.89828E-005	5.99601E-002	9.94621E-001	3.57810E+000	9	...........
	75	1.01333	9.97825E-001	1.00746E-004	0.00000E+000	1.00527E-004	5.99601E-002	9.98179E-001	3.57810E+000	9	...........
	76	1.01667	9.99961E-001	9.96019E-005	0.00000E+000	9.95980E-005	5.99601E-002	1.00036E+000	3.57810E+000	9	...........
STARTTIMEOFFSET	QUANT	795.31	Start Time Offset (s)
