EXPLAIN
TAG	PWR800_CHARGE
TITLE	LABEL	PWR Cyclic Charge Discharge (Cell) - Charge Step	Test &Identifier
DATE	LABEL	12-7-2017	Date
TIME	LABEL	16:22:40	Time
NOTES	NOTES	2	&Notes...
	supercap test cell
	6M KOH
PSTAT	PSTAT	IFC5000-01520	Potentiostat
CAPACITY	QUANT	1.00000E-003	Capacity (A-hr)
CELLTYPE	SELECTOR	1	&Cell Type
WORKINGCONNECTION	SELECTOR	0	&Working Lead
MAXCHARGETIME	VARIABLEANDUNITS	1.00000E+002	s	1.00000E+002	second(s)	Max &Charge Time
CHARGECURRENT	QUANT	1.00000E-004	&Charge Current (A) 
VOLTAGEFINISH	TWOPARAM	F	1.00000E-003	3.60000E+003	&Voltage Finish	 I (A) < 	Max Time(s)
SAMPLETIME	QUANT	1.00000E-002	Sa&mple Period (s)
CHARGESTOPAT1	MULTIPARAM	4	1.00000E+000	Charge Stop At &1	Voltage > Limit	V
CHARGESTOPAT2	MULTIPARAM	0	0.00000E+000	Charge Stop At &2	None	N/A
AESBHCSELECTOR	TOGGLE	F	Save Both Half Cells
IRCOMP	TOGGLE	F	IR &Measure
EOC	QUANT	0	Open Circuit (V)
SEQUENCER	TOGGLE	TRUE	Run as Sequence
PSTATMODEL	IQUANT	53	Pstat Model
PSTATSECTION	LABEL	IFC5000-01520	Pstat Section
PSTATSERIALNO	LABEL	01520	Pstat Serial Number
CTRLMODE	IQUANT	0	Control Mode
ELECTROMETER	IQUANT	1	RE=0 or CS=1
IESTAB	IQUANT	0	I/E Stability
CASPEED	IQUANT	4	Control Amp Speed
CONVENTION	IQUANT	1	Current Convention
ICHRANGE	IQUANT	2	Ich Range
ICHRANGEMODE	TOGGLE	T	Ich Auto Range
ICHOFFSETENABLE	TOGGLE	F	Ich Offset Enable
ICHOFFSET	QUANT	0	Ich Offset (V)
ICHFILTER	IQUANT	1	Ich Filter
VCHRANGE	IQUANT	2	Vch Range
VCHRANGEMODE	TOGGLE	T	Vch Auto Range
VCHOFFSETENABLE	TOGGLE	F	Vch Offset Enable
VCHOFFSET	QUANT	0	Vch Offset (V)
VCHFILTER	IQUANT	1	Vch Filter
IERANGELOWERLIMIT	IQUANT	9	I/E Range Lower Limit
IERANGEMODE	TOGGLE	F	I/E AutoRange
IERANGE	IQUANT	9	I/E Range
ACHSELECT	IQUANT	1	Ach Select
ACHRANGE	IQUANT	2	Ach Range
ACHOFFSETENABLE	TOGGLE	F	Ach Offset Enable
ACHOFFSET	QUANT	0	Ach Offset (V)
ACHFILTER	IQUANT	1	Ach Filter
CABLEID	IQUANT	14	Cable ID
DCCALDATE	LABEL	5-7-2017	DC Calibration Date
ACCALDATE	LABEL	12/3/2015	AC Calibration Date
FRAMEWORKVERSION	QUANT	7.01	Framework Version
INSTRUMENTVERSION	LABEL	4.00	Instrument Version
CURVE	TABLE	78
	Pt	T	Vf	Im	Vu	Pwr	Sig	Ach	Temp	IERange	Over
	#	s	V	A	V	W	V	V	deg C	#	bits
	0	0.013333	2.59990E-001	1.01238E-004	0.00000E+000	2.63208E-005	5.99601E-002	2.60075E-001	3.57690E+000	9	...........
	1	0.026667	2.82803E-001	1.01220E-004	0.00000E+000	2.86253E-005	5.99601E-002	2.82869E-001	3.57690E+000	9	...........
	2	0.04	3.04165E-001	1.00627E-004	0.00000E+000	3.06073E-005	5.99601E-002	3.04233E-001	3.57690E+000	9	...........
	3	0.053333	3.24475E-001	1.00196E-004	0.00000E+000	3.25110E-005	5.99601E-002	3.24544E-001	3.57690E+000	9	...........
	4	0.066667	3.43933E-001	1.00476E-004	0.00000E+000	3.45570E-005	5.99601E-002	3.44007E-001	3.57690E+000	9	...........
	5	0.08	3.62707E-001	9.99020E-005	0.00000E+000	3.62352E-005	5.99601E-002	3.62784E-001	3.57690E+000	9	...........
	6	0.093333	3.80876E-001	1.00382E-004	0.00000E+000	3.82332E-005	5.99601E-002	3.80960E-001	3.57690E+000	9	...........
	7	0.106667	3.98527E-001	1.01024E-004	0.00000E+000	4.02608E-005	5.99601E-002	3.98609E-001	3.57690E+000	9	...........
	8	0.12	4.15698E-001	1.01598E-004	0.00000E+000	4.22342E-005	5.99601E-002	4.15790E-001	3.57690E+000	9	...........
	9	0.133333	4.32443E-001	1.00971E-004	0.00000E+000	4.36642E-005	5.99601E-002	4.32536E-001	3.57690E+000	9	...........
	10	0.146667	4.48780E-001	1.02410E-004	0.00000E+000	4.59595E-005	5.99601E-002	4.48881E-001	3.57690E+000	9	...........
	11	0.16	4.64746E-001	1.01559E-004	0.00000E+000	4.71989E-005	5.99601E-002	4.64847E-001	3.57690E+000	9	...........
	12	0.173333	4.80353E-001	1.00776E-004	0.00000E+000	4.84082E-005	5.99601E-002	4.80457E-001	3.57690E+000	9	...........
	13	0.186667	4.95624E-001	1.01197E-004	0.00000E+000	5.01557E-005	5.99601E-002	4.95739E-001	3.57690E+000	9	...........
	14	0.2	5.10589E-001	1.01418E-004	0.00000E+000	5.17829E-005	5.99601E-002	5.10704E-001	3.57690E+000	9	...........
	15	0.213333	5.25238E-001	1.00950E-004	0.00000E+000	5.30228E-005	5.99601E-002	5.25355E-001	3.57690E+000	9	...........
	16	0.226667	5.39315E-001	1.00820E-004	0.00000E+000	5.43737E-005	5.99601E-002	5.39529E-001	3.57690E+000	9	...........
	17	0.24	5.53342E-001	1.00809E-004	0.00000E+000	5.57821E-005	5.99601E-002	5.53592E-001	3.57690E+000	9	...........
	18	0.253333	5.67157E-001	1.00814E-004	0.00000E+000	5.71772E-005	5.99601E-002	5.67390E-001	3.57690E+000	9	...........
	19	0.266667	5.80657E-001	1.01578E-004	0.00000E+000	5.89822E-005	5.99601E-002	5.80917E-001	3.57690E+000	9	...........
	20	0.28	5.93927E-001	1.01133E-004	0.00000E+000	6.00659E-005	5.99601E-002	5.94180E-001	3.57690E+000	9	...........
	21	0.293333	6.06883E-001	1.01727E-004	0.00000E+000	6.17366E-005	5.99601E-002	6.07168E-001	3.57690E+000	9	...........
	22	0.306667	6.19682E-001	1.00936E-004	0.00000E+000	6.25479E-005	5.99601E-002	6.19919E-001	3.57690E+000	9	...........
	23	0.32	6.32141E-001	1.00995E-004	0.00000E+000	6.38431E-005	5.99601E-002	6.32383E-001	3.57690E+000	9	...........
	24	0.333333	6.44371E-001	1.00455E-004	0.00000E+000	6.47304E-005	5.99601E-002	6.44613E-001	3.57690E+000	9	...........
	25	0.346667	6.56355E-001	1.00356E-004	0.00000E+000	6.58694E-005	5.99601E-002	6.56613E-001	3.57690E+000	9	...........
	26	0.36	6.68095E-001	1.01184E-004	0.00000E+000	6.76002E-005	5.99601E-002	6.68364E-001	3.57690E+000	9	...........
	27	0.373333	6.79581E-001	1.02010E-004	0.00000E+000	6.93239E-005	5.99601E-002	6.79847E-001	3.57690E+000	9	...........
	28	0.386667	6.90814E-001	1.01389E-004	0.00000E+000	7.00408E-005	5.99601E-002	6.91093E-001	3.57690E+000	9	...........
	29	0.4	7.01816E-001	1.00275E-004	0.00000E+000	7.03746E-005	5.99601E-002	7.02100E-001	3.57690E+000	9	...........
	30	0.413333	7.12575E-001	1.01464E-004	0.00000E+000	7.23005E-005	5.99601E-002	7.12878E-001	3.57690E+000	9	...........
	31	0.426667	7.23152E-001	1.00282E-004	0.00000E+000	7.25194E-005	5.99601E-002	7.23401E-001	3.57690E+000	9	...........
	32	0.44	7.33415E-001	9.97561E-005	0.00000E+000	7.31626E-005	5.99601E-002	7.33709E-001	3.57690E+000	9	...........
	33	0.453333	7.43481E-001	1.00781E-004	0.00000E+000	7.49290E-005	5.99601E-002	7.43771E-001	3.57690E+000	9	...........
	34	0.466667	7.53281E-001	1.01296E-004	0.00000E+000	7.63044E-005	5.99601E-002	7.53590E-001	3.57690E+000	9	...........
	35	0.48	7.62860E-001	1.01371E-004	0.00000E+000	7.73319E-005	5.99601E-002	7.63155E-001	3.57690E+000	9	...........
	36	0.493333	7.72251E-001	1.01132E-004	0.00000E+000	7.80996E-005	5.99601E-002	7.72510E-001	3.57690E+000	9	...........
	37	0.506667	7.81341E-001	1.01430E-004	0.00000E+000	7.92518E-005	5.99601E-002	7.81631E-001	3.57690E+000	9	...........
	38	0.52	7.90222E-001	1.01575E-004	0.00000E+000	8.02670E-005	5.99601E-002	7.90515E-001	3.57690E+000	9	...........
	39	0.533333	7.98875E-001	1.00806E-004	0.00000E+000	8.05317E-005	5.99601E-002	7.99176E-001	3.57690E+000	9	...........
	40	0.546667	8.07295E-001	9.99760E-005	0.00000E+000	8.07101E-005	5.99601E-002	8.07620E-001	3.57690E+000	9	...........
	41	0.56	8.15509E-001	1.00572E-004	0.00000E+000	8.20173E-005	5.99601E-002	8.15812E-001	3.57690E+000	9	...........
	42	0.573333	8.23497E-001	1.00871E-004	0.00000E+000	8.30669E-005	5.99601E-002	8.23802E-001	3.57690E+000	9	...........
	43	0.586667	8.31229E-001	1.00312E-004	0.00000E+000	8.33826E-005	5.99601E-002	8.31552E-001	3.57690E+000	9	...........
	44	0.6	8.38748E-001	1.00591E-004	0.00000E+000	8.43702E-005	5.99601E-002	8.39058E-001	3.57690E+000	9	...........
	45	0.613333	8.46094E-001	1.00298E-004	0.00000E+000	8.48615E-005	5.99601E-002	8.46432E-001	3.57690E+000	9	...........
	46	0.626667	8.53196E-001	1.00803E-004	0.00000E+000	8.60049E-005	5.99601E-002	8.53533E-001	3.57690E+000	9	...........
	47	0.64	8.60072E-001	1.01053E-004	0.00000E+000	8.69131E-005	5.99601E-002	8.60443E-001	3.57690E+000	9	...........
	48	0.653333	8.66777E-001	1.00836E-004	0.00000E+000	8.74019E-005	5.99601E-002	8.67119E-001	3.57690E+000	9	...........
	49	0.666667	8.73297E-001	1.00771E-004	0.00000E+000	8.80029E-005	5.99601E-002	8.73662E-001	3.57690E+000	9	...........
	50	0.68	8.79577E-001	1.01303E-004	0.00000E+000	8.91040E-005	5.99601E-002	8.79909E-001	3.57690E+000	9	...........
	51	0.693333	8.85699E-001	9.96186E-005	0.00000E+000	8.82321E-005	5.99601E-002	8.86062E-001	3.57690E+000	9	...........
	52	0.706667	8.91617E-001	1.01442E-004	0.00000E+000	9.04473E-005	5.99601E-002	8.91981E-001	3.57690E+000	9	...........
	53	0.72	8.97377E-001	1.00756E-004	0.00000E+000	9.04164E-005	5.99601E-002	8.97762E-001	3.57690E+000	9	...........
	54	0.733333	9.02970E-001	1.00410E-004	0.00000E+000	9.06676E-005	5.99601E-002	9.03340E-001	3.57690E+000	9	...........
	55	0.746667	9.08386E-001	1.00517E-004	0.00000E+000	9.13080E-005	5.99601E-002	9.08749E-001	3.57690E+000	9	...........
	56	0.76	9.13664E-001	1.01045E-004	0.00000E+000	9.23211E-005	5.99601E-002	9.14013E-001	3.57690E+000	9	...........
	57	0.773333	9.18812E-001	1.00797E-004	0.00000E+000	9.26135E-005	5.99601E-002	9.19158E-001	3.57690E+000	9	...........
	58	0.786667	9.23878E-001	1.01840E-004	0.00000E+000	9.40876E-005	5.99601E-002	9.24167E-001	3.57690E+000	9	...........
	59	0.8	9.28760E-001	1.00073E-004	0.00000E+000	9.29436E-005	5.99601E-002	9.29065E-001	3.57708E+000	9	...........
	60	0.813333	9.33534E-001	1.01261E-004	0.00000E+000	9.45302E-005	5.99601E-002	9.33835E-001	3.57830E+000	9	...........
	61	0.826667	9.38163E-001	1.00587E-004	0.00000E+000	9.43666E-005	5.99601E-002	9.38509E-001	3.57830E+000	9	...........
	62	0.84	9.42742E-001	1.01637E-004	0.00000E+000	9.58173E-005	5.99601E-002	9.43055E-001	3.57830E+000	9	...........
	63	0.853333	9.47244E-001	1.01182E-004	0.00000E+000	9.58445E-005	5.99601E-002	9.47573E-001	3.57830E+000	9	...........
	64	0.866667	9.51622E-001	1.00804E-004	0.00000E+000	9.59275E-005	5.99601E-002	9.51976E-001	3.57830E+000	9	...........
	65	0.88	9.55902E-001	1.00857E-004	0.00000E+000	9.64098E-005	5.99601E-002	9.56255E-001	3.57830E+000	9	...........
	66	0.893333	9.60125E-001	1.00800E-004	0.00000E+000	9.67807E-005	5.99601E-002	9.60500E-001	3.57830E+000	9	...........
	67	0.906667	9.64233E-001	1.00172E-004	0.00000E+000	9.65890E-005	5.99601E-002	9.64626E-001	3.57830E+000	9	...........
	68	0.92	9.68297E-001	1.00426E-004	0.00000E+000	9.72422E-005	5.99601E-002	9.68650E-001	3.57830E+000	9	...........
	69	0.933333	9.72282E-001	1.01804E-004	0.00000E+000	9.89827E-005	5.99601E-002	9.72656E-001	3.57830E+000	9	...........
	70	0.946667	9.76205E-001	1.00787E-004	0.00000E+000	9.83883E-005	5.99601E-002	9.76588E-001	3.57830E+000	9	...........
	71	0.96	9.80007E-001	1.00637E-004	0.00000E+000	9.86245E-005	5.99601E-002	9.80381E-001	3.57830E+000	9	...........
	72	0.97333	9.83755E-001	1.00821E-004	0.00000E+000	9.91831E-005	5.99601E-002	9.84119E-001	3.57830E+000	9	...........
	73	0.98667	9.87410E-001	1.02539E-004	0.00000E+000	1.01248E-004	5.99601E-002	9.87757E-001	3.57830E+000	9	...........
	74	1	9.90968E-001	1.01602E-004	0.00000E+000	1.00685E-004	5.99601E-002	9.91337E-001	3.57830E+000	9	...........
	75	1.01333	9.94440E-001	1.01403E-004	0.00000E+000	1.00840E-004	5.99601E-002	9.94821E-001	3.57830E+000	9	...........
	76	1.02667	9.97863E-001	1.01030E-004	0.00000E+000	1.00814E-004	5.99601E-002	9.98257E-001	3.57830E+000	9	...........
	77	1.03	9.99976E-001	1.00798E-004	0.00000E+000	1.00796E-004	5.99601E-002	1.00036E+000	3.57830E+000	9	...........
STARTTIMEOFFSET	QUANT	539.4318	Start Time Offset (s)
