EXPLAIN
TAG	PWR800_CHARGE
TITLE	LABEL	PWR Cyclic Charge Discharge (Cell) - Charge Step	Test &Identifier
DATE	LABEL	12-7-2017	Date
TIME	LABEL	16:51:01	Time
NOTES	NOTES	2	&Notes...
	supercap test cell
	6M KOH
PSTAT	PSTAT	IFC5000-01520	Potentiostat
CAPACITY	QUANT	1.00000E-003	Capacity (A-hr)
CELLTYPE	SELECTOR	1	&Cell Type
WORKINGCONNECTION	SELECTOR	0	&Working Lead
MAXCHARGETIME	VARIABLEANDUNITS	1.00000E+002	s	1.00000E+002	second(s)	Max &Charge Time
CHARGECURRENT	QUANT	1.00000E-004	&Charge Current (A) 
VOLTAGEFINISH	TWOPARAM	F	1.00000E-003	3.60000E+003	&Voltage Finish	 I (A) < 	Max Time(s)
SAMPLETIME	QUANT	1.00000E-002	Sa&mple Period (s)
CHARGESTOPAT1	MULTIPARAM	4	1.00000E+000	Charge Stop At &1	Voltage > Limit	V
CHARGESTOPAT2	MULTIPARAM	0	0.00000E+000	Charge Stop At &2	None	N/A
AESBHCSELECTOR	TOGGLE	F	Save Both Half Cells
IRCOMP	TOGGLE	F	IR &Measure
EOC	QUANT	0	Open Circuit (V)
SEQUENCER	TOGGLE	TRUE	Run as Sequence
PSTATMODEL	IQUANT	53	Pstat Model
PSTATSECTION	LABEL	IFC5000-01520	Pstat Section
PSTATSERIALNO	LABEL	01520	Pstat Serial Number
CTRLMODE	IQUANT	0	Control Mode
ELECTROMETER	IQUANT	1	RE=0 or CS=1
IESTAB	IQUANT	0	I/E Stability
CASPEED	IQUANT	4	Control Amp Speed
CONVENTION	IQUANT	1	Current Convention
ICHRANGE	IQUANT	2	Ich Range
ICHRANGEMODE	TOGGLE	T	Ich Auto Range
ICHOFFSETENABLE	TOGGLE	F	Ich Offset Enable
ICHOFFSET	QUANT	0	Ich Offset (V)
ICHFILTER	IQUANT	1	Ich Filter
VCHRANGE	IQUANT	2	Vch Range
VCHRANGEMODE	TOGGLE	T	Vch Auto Range
VCHOFFSETENABLE	TOGGLE	F	Vch Offset Enable
VCHOFFSET	QUANT	0	Vch Offset (V)
VCHFILTER	IQUANT	1	Vch Filter
IERANGELOWERLIMIT	IQUANT	9	I/E Range Lower Limit
IERANGEMODE	TOGGLE	F	I/E AutoRange
IERANGE	IQUANT	9	I/E Range
ACHSELECT	IQUANT	1	Ach Select
ACHRANGE	IQUANT	2	Ach Range
ACHOFFSETENABLE	TOGGLE	F	Ach Offset Enable
ACHOFFSET	QUANT	0	Ach Offset (V)
ACHFILTER	IQUANT	1	Ach Filter
CABLEID	IQUANT	14	Cable ID
DCCALDATE	LABEL	5-7-2017	DC Calibration Date
ACCALDATE	LABEL	12/3/2015	AC Calibration Date
FRAMEWORKVERSION	QUANT	7.01	Framework Version
INSTRUMENTVERSION	LABEL	4.00	Instrument Version
CURVE	TABLE	74
	Pt	T	Vf	Im	Vu	Pwr	Sig	Ach	Temp	IERange	Over
	#	s	V	A	V	W	V	V	deg C	#	bits
	0	0.013333	2.59308E-001	1.00912E-004	0.00000E+000	2.61672E-005	5.99601E-002	2.59380E-001	3.57650E+000	9	...........
	1	0.026667	2.82405E-001	1.01017E-004	0.00000E+000	2.85277E-005	5.99601E-002	2.82466E-001	3.57650E+000	9	...........
	2	0.04	3.04254E-001	1.00269E-004	0.00000E+000	3.05072E-005	5.99601E-002	3.04317E-001	3.57650E+000	9	...........
	3	0.053333	3.25201E-001	1.02496E-004	0.00000E+000	3.33319E-005	5.99601E-002	3.25264E-001	3.57650E+000	9	...........
	4	0.066667	3.45441E-001	1.01057E-004	0.00000E+000	3.49094E-005	5.99601E-002	3.45506E-001	3.57650E+000	9	...........
	5	0.08	3.65072E-001	1.00112E-004	0.00000E+000	3.65483E-005	5.99601E-002	3.65143E-001	3.57650E+000	9	...........
	6	0.093333	3.84186E-001	1.02326E-004	0.00000E+000	3.93124E-005	5.99601E-002	3.84255E-001	3.57650E+000	9	...........
	7	0.106667	4.02821E-001	1.00426E-004	0.00000E+000	4.04537E-005	5.99601E-002	4.02903E-001	3.57650E+000	9	...........
	8	0.12	4.21017E-001	1.01619E-004	0.00000E+000	4.27833E-005	5.99601E-002	4.21101E-001	3.57650E+000	9	...........
	9	0.133333	4.38807E-001	1.02463E-004	0.00000E+000	4.49614E-005	5.99601E-002	4.38898E-001	3.57650E+000	9	...........
	10	0.146667	4.56195E-001	9.98895E-005	0.00000E+000	4.55691E-005	5.99601E-002	4.56289E-001	3.57650E+000	9	...........
	11	0.16	4.73212E-001	9.99332E-005	0.00000E+000	4.72896E-005	5.99601E-002	4.73310E-001	3.57650E+000	9	...........
	12	0.173333	4.89868E-001	1.00348E-004	0.00000E+000	4.91572E-005	5.99601E-002	4.89966E-001	3.57650E+000	9	...........
	13	0.186667	5.06151E-001	1.01564E-004	0.00000E+000	5.14066E-005	5.99601E-002	5.06261E-001	3.57650E+000	9	...........
	14	0.2	5.22087E-001	1.01329E-004	0.00000E+000	5.29028E-005	5.99601E-002	5.22201E-001	3.57650E+000	9	...........
	15	0.213333	5.37459E-001	1.01483E-004	0.00000E+000	5.45427E-005	5.99601E-002	5.37628E-001	3.57650E+000	9	...........
	16	0.226667	5.52601E-001	1.01978E-004	0.00000E+000	5.63534E-005	5.99601E-002	5.52824E-001	3.57650E+000	9	...........
	17	0.24	5.67511E-001	1.00866E-004	0.00000E+000	5.72424E-005	5.99601E-002	5.67737E-001	3.57650E+000	9	...........
	18	0.253333	5.82058E-001	1.00027E-004	0.00000E+000	5.82215E-005	5.99601E-002	5.82303E-001	3.57650E+000	9	...........
	19	0.266667	5.96286E-001	1.00894E-004	0.00000E+000	6.01616E-005	5.99601E-002	5.96531E-001	3.57650E+000	9	...........
	20	0.28	6.10158E-001	1.00551E-004	0.00000E+000	6.13521E-005	5.99601E-002	6.10403E-001	3.57650E+000	9	...........
	21	0.293333	6.23753E-001	1.00883E-004	0.00000E+000	6.29264E-005	5.99601E-002	6.23978E-001	3.57650E+000	9	...........
	22	0.306667	6.36967E-001	1.00806E-004	0.00000E+000	6.42103E-005	5.99601E-002	6.37216E-001	3.57650E+000	9	...........
	23	0.32	6.49892E-001	1.01143E-004	0.00000E+000	6.57319E-005	5.99601E-002	6.50141E-001	3.57650E+000	9	...........
	24	0.333333	6.62471E-001	1.00690E-004	0.00000E+000	6.67040E-005	5.99601E-002	6.62733E-001	3.57650E+000	9	...........
	25	0.346667	6.74755E-001	9.95352E-005	0.00000E+000	6.71619E-005	5.99601E-002	6.75005E-001	3.57650E+000	9	...........
	26	0.36	6.86701E-001	1.00845E-004	0.00000E+000	6.92503E-005	5.99601E-002	6.86959E-001	3.57650E+000	9	...........
	27	0.373333	6.98353E-001	1.01614E-004	0.00000E+000	7.09623E-005	5.99601E-002	6.98617E-001	3.57650E+000	9	...........
	28	0.386667	7.09680E-001	9.99343E-005	0.00000E+000	7.09214E-005	5.99601E-002	7.09950E-001	3.57650E+000	9	...........
	29	0.4	7.20732E-001	1.01199E-004	0.00000E+000	7.29374E-005	5.99601E-002	7.21004E-001	3.57650E+000	9	...........
	30	0.413333	7.31491E-001	1.00718E-004	0.00000E+000	7.36741E-005	5.99601E-002	7.31745E-001	3.57650E+000	9	...........
	31	0.426667	7.41922E-001	1.00339E-004	0.00000E+000	7.44434E-005	5.99601E-002	7.42185E-001	3.57650E+000	9	...........
	32	0.44	7.52097E-001	1.00757E-004	0.00000E+000	7.57793E-005	5.99601E-002	7.52366E-001	3.57650E+000	9	...........
	33	0.453333	7.61953E-001	1.01306E-004	0.00000E+000	7.71908E-005	5.99601E-002	7.62229E-001	3.57650E+000	9	...........
	34	0.466667	7.71559E-001	1.00745E-004	0.00000E+000	7.77306E-005	5.99601E-002	7.71832E-001	3.57650E+000	9	...........
	35	0.48	7.80870E-001	1.01447E-004	0.00000E+000	7.92170E-005	5.99601E-002	7.81155E-001	3.57650E+000	9	...........
	36	0.493333	7.89905E-001	1.01281E-004	0.00000E+000	8.00027E-005	5.99601E-002	7.90200E-001	3.57650E+000	9	...........
	37	0.506667	7.98699E-001	1.00309E-004	0.00000E+000	8.01170E-005	5.99601E-002	7.98967E-001	3.57650E+000	9	...........
	38	0.52	8.07175E-001	1.01151E-004	0.00000E+000	8.16467E-005	5.99601E-002	8.07461E-001	3.57650E+000	9	...........
	39	0.533333	8.15417E-001	1.00062E-004	0.00000E+000	8.15926E-005	5.99601E-002	8.15701E-001	3.57650E+000	9	...........
	40	0.546667	8.23423E-001	1.00614E-004	0.00000E+000	8.28476E-005	5.99601E-002	8.23687E-001	3.57650E+000	9	...........
	41	0.56	8.31140E-001	1.01287E-004	0.00000E+000	8.41834E-005	5.99601E-002	8.31412E-001	3.57650E+000	9	...........
	42	0.573333	8.38609E-001	1.00983E-004	0.00000E+000	8.46856E-005	5.99601E-002	8.38906E-001	3.57650E+000	9	...........
	43	0.586667	8.45905E-001	1.02026E-004	0.00000E+000	8.63047E-005	5.99601E-002	8.46188E-001	3.57650E+000	9	...........
	44	0.6	8.52912E-001	1.01716E-004	0.00000E+000	8.67547E-005	5.99601E-002	8.53204E-001	3.57650E+000	9	...........
	45	0.613333	8.59724E-001	1.00931E-004	0.00000E+000	8.67731E-005	5.99601E-002	8.60003E-001	3.57650E+000	9	...........
	46	0.626667	8.66315E-001	1.00793E-004	0.00000E+000	8.73184E-005	5.99601E-002	8.66594E-001	3.57650E+000	9	...........
	47	0.64	8.72742E-001	1.00646E-004	0.00000E+000	8.78379E-005	5.99601E-002	8.73033E-001	3.57650E+000	9	...........
	48	0.653333	8.78958E-001	1.00682E-004	0.00000E+000	8.84955E-005	5.99601E-002	8.79251E-001	3.57650E+000	9	...........
	49	0.666667	8.85010E-001	1.00546E-004	0.00000E+000	8.89841E-005	5.99601E-002	8.85314E-001	3.57650E+000	9	...........
	50	0.68	8.90892E-001	1.01365E-004	0.00000E+000	9.03051E-005	5.99601E-002	8.91186E-001	3.57650E+000	9	...........
	51	0.693333	8.96627E-001	1.00398E-004	0.00000E+000	9.00194E-005	5.99601E-002	8.96933E-001	3.57650E+000	9	...........
	52	0.706667	9.02241E-001	1.01883E-004	0.00000E+000	9.19227E-005	5.99601E-002	9.02523E-001	3.57650E+000	9	...........
	53	0.72	9.07709E-001	1.02478E-004	0.00000E+000	9.30198E-005	5.99601E-002	9.08018E-001	3.57650E+000	9	...........
	54	0.733333	9.13058E-001	1.01153E-004	0.00000E+000	9.23588E-005	5.99601E-002	9.13358E-001	3.57650E+000	9	...........
	55	0.746667	9.18305E-001	1.01276E-004	0.00000E+000	9.30024E-005	5.99601E-002	9.18609E-001	3.57650E+000	9	...........
	56	0.76	9.23514E-001	1.01647E-004	0.00000E+000	9.38726E-005	5.99601E-002	9.23770E-001	3.57650E+000	9	...........
	57	0.773333	9.28553E-001	1.01224E-004	0.00000E+000	9.39920E-005	5.99601E-002	9.28839E-001	3.57650E+000	9	...........
	58	0.786667	9.33518E-001	1.00042E-004	0.00000E+000	9.33906E-005	5.99601E-002	9.33783E-001	3.57650E+000	9	...........
	59	0.8	9.38380E-001	1.01859E-004	0.00000E+000	9.55821E-005	5.99601E-002	9.38689E-001	3.57650E+000	9	...........
	60	0.813333	9.43175E-001	1.01190E-004	0.00000E+000	9.54396E-005	5.99601E-002	9.43474E-001	3.57650E+000	9	...........
	61	0.826667	9.47928E-001	1.02102E-004	0.00000E+000	9.67858E-005	5.99601E-002	9.48236E-001	3.57764E+000	9	...........
	62	0.84	9.52606E-001	1.00067E-004	0.00000E+000	9.53240E-005	5.99601E-002	9.52914E-001	3.57780E+000	9	...........
	63	0.853333	9.57173E-001	1.00193E-004	0.00000E+000	9.59017E-005	5.99601E-002	9.57468E-001	3.57780E+000	9	...........
	64	0.866667	9.61662E-001	1.00869E-004	0.00000E+000	9.70017E-005	5.99601E-002	9.61993E-001	3.57780E+000	9	...........
	65	0.88	9.66102E-001	1.00904E-004	0.00000E+000	9.74839E-005	5.99601E-002	9.66426E-001	3.57780E+000	9	...........
	66	0.893333	9.70429E-001	1.00733E-004	0.00000E+000	9.77546E-005	5.99601E-002	9.70786E-001	3.57780E+000	9	...........
	67	0.906667	9.74763E-001	1.00579E-004	0.00000E+000	9.80409E-005	5.99601E-002	9.75096E-001	3.57780E+000	9	...........
	68	0.92	9.78981E-001	1.01809E-004	0.00000E+000	9.96687E-005	5.99601E-002	9.79298E-001	3.57780E+000	9	...........
	69	0.933333	9.83092E-001	1.00642E-004	0.00000E+000	9.89401E-005	5.99601E-002	9.83397E-001	3.57780E+000	9	...........
	70	0.946667	9.87130E-001	1.00865E-004	0.00000E+000	9.95666E-005	5.99601E-002	9.87448E-001	3.57780E+000	9	...........
	71	0.96	9.91084E-001	1.02493E-004	0.00000E+000	1.01579E-004	5.99601E-002	9.91399E-001	3.57780E+000	9	...........
	72	0.97333	9.94950E-001	1.01214E-004	0.00000E+000	1.00703E-004	5.99601E-002	9.95242E-001	3.57780E+000	9	...........
	73	0.98667	9.98748E-001	1.00847E-004	0.00000E+000	1.00721E-004	5.99601E-002	9.99061E-001	3.57780E+000	9	...........
STARTTIMEOFFSET	QUANT	1746.536	Start Time Offset (s)
