EXPLAIN
TAG	PWR800_CHARGE
TITLE	LABEL	PWR Cyclic Charge Discharge (Cell) - Charge Step	Test &Identifier
DATE	LABEL	12-7-2017	Date
TIME	LABEL	16:26:13	Time
NOTES	NOTES	2	&Notes...
	supercap test cell
	6M KOH
PSTAT	PSTAT	IFC5000-01520	Potentiostat
CAPACITY	QUANT	1.00000E-003	Capacity (A-hr)
CELLTYPE	SELECTOR	1	&Cell Type
WORKINGCONNECTION	SELECTOR	0	&Working Lead
MAXCHARGETIME	VARIABLEANDUNITS	1.00000E+002	s	1.00000E+002	second(s)	Max &Charge Time
CHARGECURRENT	QUANT	1.00000E-004	&Charge Current (A) 
VOLTAGEFINISH	TWOPARAM	F	1.00000E-003	3.60000E+003	&Voltage Finish	 I (A) < 	Max Time(s)
SAMPLETIME	QUANT	1.00000E-002	Sa&mple Period (s)
CHARGESTOPAT1	MULTIPARAM	4	1.00000E+000	Charge Stop At &1	Voltage > Limit	V
CHARGESTOPAT2	MULTIPARAM	0	0.00000E+000	Charge Stop At &2	None	N/A
AESBHCSELECTOR	TOGGLE	F	Save Both Half Cells
IRCOMP	TOGGLE	F	IR &Measure
EOC	QUANT	0	Open Circuit (V)
SEQUENCER	TOGGLE	TRUE	Run as Sequence
PSTATMODEL	IQUANT	53	Pstat Model
PSTATSECTION	LABEL	IFC5000-01520	Pstat Section
PSTATSERIALNO	LABEL	01520	Pstat Serial Number
CTRLMODE	IQUANT	0	Control Mode
ELECTROMETER	IQUANT	1	RE=0 or CS=1
IESTAB	IQUANT	0	I/E Stability
CASPEED	IQUANT	4	Control Amp Speed
CONVENTION	IQUANT	1	Current Convention
ICHRANGE	IQUANT	2	Ich Range
ICHRANGEMODE	TOGGLE	T	Ich Auto Range
ICHOFFSETENABLE	TOGGLE	F	Ich Offset Enable
ICHOFFSET	QUANT	0	Ich Offset (V)
ICHFILTER	IQUANT	1	Ich Filter
VCHRANGE	IQUANT	2	Vch Range
VCHRANGEMODE	TOGGLE	T	Vch Auto Range
VCHOFFSETENABLE	TOGGLE	F	Vch Offset Enable
VCHOFFSET	QUANT	0	Vch Offset (V)
VCHFILTER	IQUANT	1	Vch Filter
IERANGELOWERLIMIT	IQUANT	9	I/E Range Lower Limit
IERANGEMODE	TOGGLE	F	I/E AutoRange
IERANGE	IQUANT	9	I/E Range
ACHSELECT	IQUANT	1	Ach Select
ACHRANGE	IQUANT	2	Ach Range
ACHOFFSETENABLE	TOGGLE	F	Ach Offset Enable
ACHOFFSET	QUANT	0	Ach Offset (V)
ACHFILTER	IQUANT	1	Ach Filter
CABLEID	IQUANT	14	Cable ID
DCCALDATE	LABEL	5-7-2017	DC Calibration Date
ACCALDATE	LABEL	12/3/2015	AC Calibration Date
FRAMEWORKVERSION	QUANT	7.01	Framework Version
INSTRUMENTVERSION	LABEL	4.00	Instrument Version
CURVE	TABLE	77
	Pt	T	Vf	Im	Vu	Pwr	Sig	Ach	Temp	IERange	Over
	#	s	V	A	V	W	V	V	deg C	#	bits
	0	0.013333	2.60482E-001	1.01531E-004	0.00000E+000	2.64471E-005	5.99601E-002	2.60561E-001	3.57680E+000	9	...........
	1	0.026667	2.83280E-001	1.00427E-004	0.00000E+000	2.84490E-005	5.99601E-002	2.83345E-001	3.57680E+000	9	...........
	2	0.04	3.04696E-001	1.00733E-004	0.00000E+000	3.06930E-005	5.99601E-002	3.04762E-001	3.57680E+000	9	...........
	3	0.053333	3.25113E-001	1.00003E-004	0.00000E+000	3.25123E-005	5.99601E-002	3.25179E-001	3.57680E+000	9	...........
	4	0.066667	3.44725E-001	1.00691E-004	0.00000E+000	3.47106E-005	5.99601E-002	3.44798E-001	3.57680E+000	9	...........
	5	0.08	3.63669E-001	1.01646E-004	0.00000E+000	3.69656E-005	5.99601E-002	3.63747E-001	3.57680E+000	9	...........
	6	0.093333	3.82041E-001	1.01778E-004	0.00000E+000	3.88835E-005	5.99601E-002	3.82118E-001	3.57680E+000	9	...........
	7	0.106667	3.99904E-001	1.00366E-004	0.00000E+000	4.01366E-005	5.99601E-002	3.99993E-001	3.57724E+000	9	...........
	8	0.12	4.17309E-001	1.00517E-004	0.00000E+000	4.19465E-005	5.99601E-002	4.17401E-001	3.57730E+000	9	...........
	9	0.133333	4.34290E-001	1.00922E-004	0.00000E+000	4.38294E-005	5.99601E-002	4.34388E-001	3.57730E+000	9	...........
	10	0.146667	4.50871E-001	1.00698E-004	0.00000E+000	4.54018E-005	5.99601E-002	4.50972E-001	3.57730E+000	9	...........
	11	0.16	4.67085E-001	1.00955E-004	0.00000E+000	4.71547E-005	5.99601E-002	4.67186E-001	3.57730E+000	9	...........
	12	0.173333	4.82940E-001	1.02025E-004	0.00000E+000	4.92721E-005	5.99601E-002	4.83046E-001	3.57730E+000	9	...........
	13	0.186667	4.98462E-001	1.01488E-004	0.00000E+000	5.05878E-005	5.99601E-002	4.98575E-001	3.57730E+000	9	...........
	14	0.2	5.13655E-001	1.00317E-004	0.00000E+000	5.15281E-005	5.99601E-002	5.13772E-001	3.57730E+000	9	...........
	15	0.213333	5.28488E-001	1.01503E-004	0.00000E+000	5.36433E-005	5.99601E-002	5.28616E-001	3.57730E+000	9	...........
	16	0.226667	5.42790E-001	1.01627E-004	0.00000E+000	5.51623E-005	5.99601E-002	5.43050E-001	3.57730E+000	9	...........
	17	0.24	5.57072E-001	1.02237E-004	0.00000E+000	5.69533E-005	5.99601E-002	5.57305E-001	3.57730E+000	9	...........
	18	0.253333	5.71071E-001	1.01603E-004	0.00000E+000	5.80228E-005	5.99601E-002	5.71300E-001	3.57730E+000	9	...........
	19	0.266667	5.84743E-001	1.01154E-004	0.00000E+000	5.91492E-005	5.99601E-002	5.84991E-001	3.57730E+000	9	...........
	20	0.28	5.98131E-001	1.00453E-004	0.00000E+000	6.00842E-005	5.99601E-002	5.98407E-001	3.57730E+000	9	...........
	21	0.293333	6.11280E-001	1.00897E-004	0.00000E+000	6.16763E-005	5.99601E-002	6.11531E-001	3.57730E+000	9	...........
	22	0.306667	6.24178E-001	1.00223E-004	0.00000E+000	6.25570E-005	5.99601E-002	6.24379E-001	3.57730E+000	9	...........
	23	0.32	6.36741E-001	1.01167E-004	0.00000E+000	6.44170E-005	5.99601E-002	6.36936E-001	3.57730E+000	9	...........
	24	0.333333	6.49063E-001	1.01360E-004	0.00000E+000	6.57887E-005	5.99601E-002	6.49278E-001	3.57730E+000	9	...........
	25	0.346667	6.61113E-001	1.00461E-004	0.00000E+000	6.64164E-005	5.99601E-002	6.61321E-001	3.57730E+000	9	...........
	26	0.36	6.72934E-001	1.01176E-004	0.00000E+000	6.80849E-005	5.99601E-002	6.73147E-001	3.57730E+000	9	...........
	27	0.373333	6.84459E-001	1.00432E-004	0.00000E+000	6.87418E-005	5.99601E-002	6.84674E-001	3.57730E+000	9	...........
	28	0.386667	6.95747E-001	1.01611E-004	0.00000E+000	7.06954E-005	5.99601E-002	6.95958E-001	3.57730E+000	9	...........
	29	0.4	7.06744E-001	1.01529E-004	0.00000E+000	7.17553E-005	5.99601E-002	7.07005E-001	3.57730E+000	9	...........
	30	0.413333	7.17523E-001	1.01800E-004	0.00000E+000	7.30440E-005	5.99601E-002	7.17768E-001	3.57730E+000	9	...........
	31	0.426667	7.28053E-001	1.02056E-004	0.00000E+000	7.43019E-005	5.99601E-002	7.28300E-001	3.57730E+000	9	...........
	32	0.44	7.38269E-001	1.00589E-004	0.00000E+000	7.42615E-005	5.99601E-002	7.38543E-001	3.57730E+000	9	...........
	33	0.453333	7.48285E-001	1.00230E-004	0.00000E+000	7.50008E-005	5.99601E-002	7.48544E-001	3.57730E+000	9	...........
	34	0.466667	7.58053E-001	1.00239E-004	0.00000E+000	7.59861E-005	5.99601E-002	7.58300E-001	3.57730E+000	9	...........
	35	0.48	7.67551E-001	1.02041E-004	0.00000E+000	7.83217E-005	5.99601E-002	7.67840E-001	3.57730E+000	9	...........
	36	0.493333	7.76835E-001	1.01101E-004	0.00000E+000	7.85389E-005	5.99601E-002	7.77109E-001	3.57730E+000	9	...........
	37	0.506667	7.85863E-001	1.01377E-004	0.00000E+000	7.96687E-005	5.99601E-002	7.86139E-001	3.57730E+000	9	...........
	38	0.52	7.94661E-001	1.00329E-004	0.00000E+000	7.97277E-005	5.99601E-002	7.94932E-001	3.57730E+000	9	...........
	39	0.533333	8.03217E-001	1.00744E-004	0.00000E+000	8.09192E-005	5.99601E-002	8.03468E-001	3.57730E+000	9	...........
	40	0.546667	8.11504E-001	1.00290E-004	0.00000E+000	8.13854E-005	5.99601E-002	8.11767E-001	3.57730E+000	9	...........
	41	0.56	8.19601E-001	1.01021E-004	0.00000E+000	8.27968E-005	5.99601E-002	8.19863E-001	3.57730E+000	9	...........
	42	0.573333	8.27455E-001	1.01321E-004	0.00000E+000	8.38386E-005	5.99601E-002	8.27728E-001	3.57730E+000	9	...........
	43	0.586667	8.35049E-001	9.99020E-005	0.00000E+000	8.34230E-005	5.99601E-002	8.35356E-001	3.57730E+000	9	...........
	44	0.6	8.42449E-001	1.02540E-004	0.00000E+000	8.63848E-005	5.99601E-002	8.42770E-001	3.57730E+000	9	...........
	45	0.613333	8.49659E-001	1.00927E-004	0.00000E+000	8.57537E-005	5.99601E-002	8.49962E-001	3.57730E+000	9	...........
	46	0.626667	8.56601E-001	1.01149E-004	0.00000E+000	8.66444E-005	5.99601E-002	8.56922E-001	3.57730E+000	9	...........
	47	0.64	8.63319E-001	1.02258E-004	0.00000E+000	8.82810E-005	5.99601E-002	8.63687E-001	3.57730E+000	9	...........
	48	0.653333	8.69905E-001	1.00269E-004	0.00000E+000	8.72243E-005	5.99601E-002	8.70231E-001	3.57730E+000	9	...........
	49	0.666667	8.76224E-001	1.00575E-004	0.00000E+000	8.81263E-005	5.99601E-002	8.76567E-001	3.57730E+000	9	...........
	50	0.68	8.82375E-001	1.01999E-004	0.00000E+000	9.00016E-005	5.99601E-002	8.82719E-001	3.57730E+000	9	...........
	51	0.693333	8.88322E-001	1.00529E-004	0.00000E+000	8.93023E-005	5.99601E-002	8.88678E-001	3.57730E+000	9	...........
	52	0.706667	8.94111E-001	1.01129E-004	0.00000E+000	9.04208E-005	5.99601E-002	8.94480E-001	3.57730E+000	9	...........
	53	0.72	8.99736E-001	1.01244E-004	0.00000E+000	9.10929E-005	5.99601E-002	9.00099E-001	3.57730E+000	9	...........
	54	0.733333	9.05190E-001	1.00854E-004	0.00000E+000	9.12923E-005	5.99601E-002	9.05588E-001	3.57730E+000	9	...........
	55	0.746667	9.10553E-001	1.00366E-004	0.00000E+000	9.13882E-005	5.99601E-002	9.10897E-001	3.57730E+000	9	...........
	56	0.76	9.15739E-001	1.01167E-004	0.00000E+000	9.26424E-005	5.99601E-002	9.16098E-001	3.57730E+000	9	...........
	57	0.773333	9.20832E-001	1.00641E-004	0.00000E+000	9.26731E-005	5.99601E-002	9.21154E-001	3.57730E+000	9	...........
	58	0.786667	9.25815E-001	1.01421E-004	0.00000E+000	9.38971E-005	5.99601E-002	9.26123E-001	3.57730E+000	9	...........
	59	0.8	9.30643E-001	1.00874E-004	0.00000E+000	9.38777E-005	5.99601E-002	9.30960E-001	3.57730E+000	9	...........
	60	0.813333	9.35380E-001	1.01609E-004	0.00000E+000	9.50426E-005	5.99601E-002	9.35693E-001	3.57730E+000	9	...........
	61	0.826667	9.39994E-001	1.02498E-004	0.00000E+000	9.63478E-005	5.99601E-002	9.40326E-001	3.57730E+000	9	...........
	62	0.84	9.44537E-001	1.02236E-004	0.00000E+000	9.65655E-005	5.99601E-002	9.44879E-001	3.57730E+000	9	...........
	63	0.853333	9.49042E-001	1.01463E-004	0.00000E+000	9.62924E-005	5.99601E-002	9.49364E-001	3.57730E+000	9	...........
	64	0.866667	9.53413E-001	1.00541E-004	0.00000E+000	9.58567E-005	5.99601E-002	9.53749E-001	3.57730E+000	9	...........
	65	0.88	9.57705E-001	1.00913E-004	0.00000E+000	9.66446E-005	5.99601E-002	9.58029E-001	3.57730E+000	9	...........
	66	0.893333	9.61912E-001	1.00426E-004	0.00000E+000	9.66010E-005	5.99601E-002	9.62258E-001	3.57730E+000	9	...........
	67	0.906667	9.66077E-001	1.00465E-004	0.00000E+000	9.70566E-005	5.99601E-002	9.66395E-001	3.57730E+000	9	...........
	68	0.92	9.70112E-001	1.01241E-004	0.00000E+000	9.82150E-005	5.99601E-002	9.70476E-001	3.57730E+000	9	...........
	69	0.933333	9.74163E-001	1.01167E-004	0.00000E+000	9.85530E-005	5.99601E-002	9.74480E-001	3.57730E+000	9	...........
	70	0.946667	9.78060E-001	1.00558E-004	0.00000E+000	9.83522E-005	5.99601E-002	9.78401E-001	3.57730E+000	9	...........
	71	0.96	9.81894E-001	1.01168E-004	0.00000E+000	9.93362E-005	5.99601E-002	9.82217E-001	3.57730E+000	9	...........
	72	0.97333	9.85642E-001	1.00712E-004	0.00000E+000	9.92655E-005	5.99601E-002	9.85986E-001	3.57730E+000	9	...........
	73	0.98667	9.89320E-001	1.01877E-004	0.00000E+000	1.00789E-004	5.99601E-002	9.89645E-001	3.57730E+000	9	...........
	74	1	9.92873E-001	1.00819E-004	0.00000E+000	1.00100E-004	5.99601E-002	9.93196E-001	3.57730E+000	9	...........
	75	1.01333	9.96387E-001	1.01543E-004	0.00000E+000	1.01176E-004	5.99601E-002	9.96706E-001	3.57730E+000	9	...........
	76	1.02167	9.99198E-001	1.01548E-004	0.00000E+000	1.01467E-004	5.99601E-002	9.99483E-001	3.57730E+000	9	...........
STARTTIMEOFFSET	QUANT	691.2097	Start Time Offset (s)
