EXPLAIN
TAG	PWR800_CHARGE
TITLE	LABEL	PWR Cyclic Charge Discharge (Cell) - Charge Step	Test &Identifier
DATE	LABEL	12-7-2017	Date
TIME	LABEL	16:43:26	Time
NOTES	NOTES	2	&Notes...
	supercap test cell
	6M KOH
PSTAT	PSTAT	IFC5000-01520	Potentiostat
CAPACITY	QUANT	1.00000E-003	Capacity (A-hr)
CELLTYPE	SELECTOR	1	&Cell Type
WORKINGCONNECTION	SELECTOR	0	&Working Lead
MAXCHARGETIME	VARIABLEANDUNITS	1.00000E+002	s	1.00000E+002	second(s)	Max &Charge Time
CHARGECURRENT	QUANT	1.00000E-004	&Charge Current (A) 
VOLTAGEFINISH	TWOPARAM	F	1.00000E-003	3.60000E+003	&Voltage Finish	 I (A) < 	Max Time(s)
SAMPLETIME	QUANT	1.00000E-002	Sa&mple Period (s)
CHARGESTOPAT1	MULTIPARAM	4	1.00000E+000	Charge Stop At &1	Voltage > Limit	V
CHARGESTOPAT2	MULTIPARAM	0	0.00000E+000	Charge Stop At &2	None	N/A
AESBHCSELECTOR	TOGGLE	F	Save Both Half Cells
IRCOMP	TOGGLE	F	IR &Measure
EOC	QUANT	0	Open Circuit (V)
SEQUENCER	TOGGLE	TRUE	Run as Sequence
PSTATMODEL	IQUANT	53	Pstat Model
PSTATSECTION	LABEL	IFC5000-01520	Pstat Section
PSTATSERIALNO	LABEL	01520	Pstat Serial Number
CTRLMODE	IQUANT	0	Control Mode
ELECTROMETER	IQUANT	1	RE=0 or CS=1
IESTAB	IQUANT	0	I/E Stability
CASPEED	IQUANT	4	Control Amp Speed
CONVENTION	IQUANT	1	Current Convention
ICHRANGE	IQUANT	2	Ich Range
ICHRANGEMODE	TOGGLE	T	Ich Auto Range
ICHOFFSETENABLE	TOGGLE	F	Ich Offset Enable
ICHOFFSET	QUANT	0	Ich Offset (V)
ICHFILTER	IQUANT	1	Ich Filter
VCHRANGE	IQUANT	2	Vch Range
VCHRANGEMODE	TOGGLE	T	Vch Auto Range
VCHOFFSETENABLE	TOGGLE	F	Vch Offset Enable
VCHOFFSET	QUANT	0	Vch Offset (V)
VCHFILTER	IQUANT	1	Vch Filter
IERANGELOWERLIMIT	IQUANT	9	I/E Range Lower Limit
IERANGEMODE	TOGGLE	F	I/E AutoRange
IERANGE	IQUANT	9	I/E Range
ACHSELECT	IQUANT	1	Ach Select
ACHRANGE	IQUANT	2	Ach Range
ACHOFFSETENABLE	TOGGLE	F	Ach Offset Enable
ACHOFFSET	QUANT	0	Ach Offset (V)
ACHFILTER	IQUANT	1	Ach Filter
CABLEID	IQUANT	14	Cable ID
DCCALDATE	LABEL	5-7-2017	DC Calibration Date
ACCALDATE	LABEL	12/3/2015	AC Calibration Date
FRAMEWORKVERSION	QUANT	7.01	Framework Version
INSTRUMENTVERSION	LABEL	4.00	Instrument Version
CURVE	TABLE	75
	Pt	T	Vf	Im	Vu	Pwr	Sig	Ach	Temp	IERange	Over
	#	s	V	A	V	W	V	V	deg C	#	bits
	0	0.013333	2.57181E-001	1.00045E-004	0.00000E+000	2.57296E-005	5.99601E-002	2.57246E-001	3.57790E+000	9	...........
	1	0.026667	2.80237E-001	1.02340E-004	0.00000E+000	2.86795E-005	5.99601E-002	2.80298E-001	3.57790E+000	9	...........
	2	0.04	3.02037E-001	1.00333E-004	0.00000E+000	3.03043E-005	5.99601E-002	3.02099E-001	3.57790E+000	9	...........
	3	0.053333	3.22940E-001	1.00947E-004	0.00000E+000	3.25998E-005	5.99601E-002	3.23004E-001	3.57790E+000	9	...........
	4	0.066667	3.43107E-001	1.01023E-004	0.00000E+000	3.46618E-005	5.99601E-002	3.43178E-001	3.57790E+000	9	...........
	5	0.08	3.62674E-001	1.01202E-004	0.00000E+000	3.67034E-005	5.99601E-002	3.62752E-001	3.57790E+000	9	...........
	6	0.093333	3.81716E-001	1.01865E-004	0.00000E+000	3.88835E-005	5.99601E-002	3.81791E-001	3.57790E+000	9	...........
	7	0.106667	4.00278E-001	1.01063E-004	0.00000E+000	4.04532E-005	5.99601E-002	4.00354E-001	3.57790E+000	9	...........
	8	0.12	4.18402E-001	1.01340E-004	0.00000E+000	4.24008E-005	5.99601E-002	4.18493E-001	3.57790E+000	9	...........
	9	0.133333	4.36118E-001	1.02124E-004	0.00000E+000	4.45382E-005	5.99601E-002	4.36212E-001	3.57790E+000	9	...........
	10	0.146667	4.53433E-001	1.01808E-004	0.00000E+000	4.61629E-005	5.99601E-002	4.53530E-001	3.57790E+000	9	...........
	11	0.16	4.70371E-001	1.01868E-004	0.00000E+000	4.79158E-005	5.99601E-002	4.70468E-001	3.57790E+000	9	...........
	12	0.173333	4.86933E-001	1.00505E-004	0.00000E+000	4.89394E-005	5.99601E-002	4.87041E-001	3.57790E+000	9	...........
	13	0.186667	5.03148E-001	1.02302E-004	0.00000E+000	5.14733E-005	5.99601E-002	5.03251E-001	3.57790E+000	9	...........
	14	0.2	5.19004E-001	1.00803E-004	0.00000E+000	5.23172E-005	5.99601E-002	5.19118E-001	3.57790E+000	9	...........
	15	0.213333	5.34370E-001	1.00427E-004	0.00000E+000	5.36652E-005	5.99601E-002	5.34537E-001	3.57790E+000	9	...........
	16	0.226667	5.49399E-001	1.01174E-004	0.00000E+000	5.55850E-005	5.99601E-002	5.49621E-001	3.57790E+000	9	...........
	17	0.24	5.64247E-001	1.01596E-004	0.00000E+000	5.73253E-005	5.99601E-002	5.64465E-001	3.57790E+000	9	...........
	18	0.253333	5.78723E-001	1.01001E-004	0.00000E+000	5.84517E-005	5.99601E-002	5.78958E-001	3.57790E+000	9	...........
	19	0.266667	5.92909E-001	1.01281E-004	0.00000E+000	6.00507E-005	5.99601E-002	5.93135E-001	3.57790E+000	9	...........
	20	0.28	6.06739E-001	1.00198E-004	0.00000E+000	6.07940E-005	5.99601E-002	6.06966E-001	3.57790E+000	9	...........
	21	0.293333	6.20317E-001	1.00691E-004	0.00000E+000	6.24601E-005	5.99601E-002	6.20498E-001	3.57790E+000	9	...........
	22	0.306667	6.33493E-001	1.01093E-004	0.00000E+000	6.40416E-005	5.99601E-002	6.33696E-001	3.57790E+000	9	...........
	23	0.32	6.46398E-001	9.94227E-005	0.00000E+000	6.42666E-005	5.99601E-002	6.46602E-001	3.57790E+000	9	...........
	24	0.333333	6.58971E-001	1.01174E-004	0.00000E+000	6.66708E-005	5.99601E-002	6.59190E-001	3.57790E+000	9	...........
	25	0.346667	6.71253E-001	1.00147E-004	0.00000E+000	6.72239E-005	5.99601E-002	6.71463E-001	3.57790E+000	9	...........
	26	0.36	6.83193E-001	1.01644E-004	0.00000E+000	6.94425E-005	5.99601E-002	6.83405E-001	3.57790E+000	9	...........
	27	0.373333	6.94848E-001	9.93529E-005	0.00000E+000	6.90352E-005	5.99601E-002	6.95067E-001	3.57790E+000	9	...........
	28	0.386667	7.06197E-001	1.02531E-004	0.00000E+000	7.24069E-005	5.99601E-002	7.06408E-001	3.57790E+000	9	...........
	29	0.4	7.17250E-001	9.95821E-005	0.00000E+000	7.14253E-005	5.99601E-002	7.17501E-001	3.57790E+000	9	...........
	30	0.413333	7.28077E-001	1.02306E-004	0.00000E+000	7.44863E-005	5.99601E-002	7.28271E-001	3.57790E+000	9	...........
	31	0.426667	7.38533E-001	1.01726E-004	0.00000E+000	7.51283E-005	5.99601E-002	7.38730E-001	3.57790E+000	9	...........
	32	0.44	7.48728E-001	1.01389E-004	0.00000E+000	7.59126E-005	5.99601E-002	7.48931E-001	3.57790E+000	9	...........
	33	0.453333	7.58643E-001	1.01314E-004	0.00000E+000	7.68610E-005	5.99601E-002	7.58870E-001	3.57790E+000	9	...........
	34	0.466667	7.68269E-001	1.01925E-004	0.00000E+000	7.83061E-005	5.99601E-002	7.68517E-001	3.57790E+000	9	...........
	35	0.48	7.77646E-001	1.01290E-004	0.00000E+000	7.87676E-005	5.99601E-002	7.77894E-001	3.57790E+000	9	...........
	36	0.493333	7.86741E-001	1.00151E-004	0.00000E+000	7.87929E-005	5.99601E-002	7.86986E-001	3.57790E+000	9	...........
	37	0.506667	7.95572E-001	1.01368E-004	0.00000E+000	8.06455E-005	5.99601E-002	7.95812E-001	3.57790E+000	9	...........
	38	0.52	8.04130E-001	1.01326E-004	0.00000E+000	8.14795E-005	5.99601E-002	8.04371E-001	3.57790E+000	9	...........
	39	0.533333	8.12403E-001	1.01998E-004	0.00000E+000	8.28637E-005	5.99601E-002	8.12697E-001	3.57790E+000	9	...........
	40	0.546667	8.20460E-001	1.00680E-004	0.00000E+000	8.26041E-005	5.99601E-002	8.20740E-001	3.57745E+000	9	...........
	41	0.56	8.28253E-001	1.01462E-004	0.00000E+000	8.40359E-005	5.99601E-002	8.28553E-001	3.57700E+000	9	...........
	42	0.573333	8.35807E-001	1.01349E-004	0.00000E+000	8.47083E-005	5.99601E-002	8.36120E-001	3.57700E+000	9	...........
	43	0.586667	8.43118E-001	9.98270E-005	0.00000E+000	8.41659E-005	5.99601E-002	8.43416E-001	3.57700E+000	9	...........
	44	0.6	8.50211E-001	1.00866E-004	0.00000E+000	8.57571E-005	5.99601E-002	8.50503E-001	3.57700E+000	9	...........
	45	0.613333	8.57068E-001	1.00742E-004	0.00000E+000	8.63426E-005	5.99601E-002	8.57357E-001	3.57700E+000	9	...........
	46	0.626667	8.63711E-001	1.00713E-004	0.00000E+000	8.69865E-005	5.99601E-002	8.64032E-001	3.57700E+000	9	...........
	47	0.64	8.70181E-001	1.00500E-004	0.00000E+000	8.74532E-005	5.99601E-002	8.70474E-001	3.57700E+000	9	...........
	48	0.653333	8.76443E-001	1.01582E-004	0.00000E+000	8.90304E-005	5.99601E-002	8.76767E-001	3.57700E+000	9	...........
	49	0.666667	8.82529E-001	1.00857E-004	0.00000E+000	8.90096E-005	5.99601E-002	8.82841E-001	3.57700E+000	9	...........
	50	0.68	8.88460E-001	1.00790E-004	0.00000E+000	8.95476E-005	5.99601E-002	8.88761E-001	3.57700E+000	9	...........
	51	0.693333	8.94196E-001	1.00144E-004	0.00000E+000	8.95481E-005	5.99601E-002	8.94527E-001	3.57700E+000	9	...........
	52	0.706667	8.99843E-001	1.01391E-004	0.00000E+000	9.12358E-005	5.99601E-002	9.00154E-001	3.57700E+000	9	...........
	53	0.72	9.05297E-001	1.00296E-004	0.00000E+000	9.07975E-005	5.99601E-002	9.05642E-001	3.57700E+000	9	...........
	54	0.733333	9.10677E-001	1.00894E-004	0.00000E+000	9.18817E-005	5.99601E-002	9.11008E-001	3.57700E+000	9	...........
	55	0.746667	9.15929E-001	1.00859E-004	0.00000E+000	9.23801E-005	5.99601E-002	9.16257E-001	3.57700E+000	9	...........
	56	0.76	9.21116E-001	1.00901E-004	0.00000E+000	9.29416E-005	5.99601E-002	9.21429E-001	3.57700E+000	9	...........
	57	0.773333	9.26174E-001	1.01045E-004	0.00000E+000	9.35852E-005	5.99601E-002	9.26479E-001	3.57700E+000	9	...........
	58	0.786667	9.31144E-001	1.00602E-004	0.00000E+000	9.36751E-005	5.99601E-002	9.31417E-001	3.57700E+000	9	...........
	59	0.8	9.35992E-001	1.00556E-004	0.00000E+000	9.41199E-005	5.99601E-002	9.36298E-001	3.57700E+000	9	...........
	60	0.813333	9.40745E-001	1.01512E-004	0.00000E+000	9.54967E-005	5.99601E-002	9.41038E-001	3.57700E+000	9	...........
	61	0.826667	9.45496E-001	1.01262E-004	0.00000E+000	9.57425E-005	5.99601E-002	9.45740E-001	3.57700E+000	9	...........
	62	0.84	9.50113E-001	1.00567E-004	0.00000E+000	9.55497E-005	5.99601E-002	9.50405E-001	3.57700E+000	9	...........
	63	0.853333	9.54691E-001	1.02171E-004	0.00000E+000	9.75419E-005	5.99601E-002	9.54975E-001	3.57700E+000	9	...........
	64	0.866667	9.59170E-001	1.01203E-004	0.00000E+000	9.70711E-005	5.99601E-002	9.59461E-001	3.57700E+000	9	...........
	65	0.88	9.63571E-001	1.01083E-004	0.00000E+000	9.74011E-005	5.99601E-002	9.63884E-001	3.57700E+000	9	...........
	66	0.893333	9.67887E-001	1.00770E-004	0.00000E+000	9.75338E-005	5.99601E-002	9.68210E-001	3.57700E+000	9	...........
	67	0.906667	9.72157E-001	1.01795E-004	0.00000E+000	9.89608E-005	5.99601E-002	9.72531E-001	3.57700E+000	9	...........
	68	0.92	9.76391E-001	1.01577E-004	0.00000E+000	9.91792E-005	5.99601E-002	9.76708E-001	3.57700E+000	9	...........
	69	0.933333	9.80471E-001	1.00408E-004	0.00000E+000	9.84475E-005	5.99601E-002	9.80786E-001	3.57700E+000	9	...........
	70	0.946667	9.84492E-001	1.01298E-004	0.00000E+000	9.97271E-005	5.99601E-002	9.84812E-001	3.57700E+000	9	...........
	71	0.96	9.88417E-001	9.95071E-005	0.00000E+000	9.83545E-005	5.99601E-002	9.88747E-001	3.57700E+000	9	...........
	72	0.97333	9.92253E-001	9.99062E-005	0.00000E+000	9.91322E-005	5.99601E-002	9.92600E-001	3.57700E+000	9	...........
	73	0.98667	9.96022E-001	1.01077E-004	0.00000E+000	1.00675E-004	5.99601E-002	9.96375E-001	3.57700E+000	9	...........
	74	0.99667	9.99259E-001	1.00519E-004	0.00000E+000	1.00444E-004	5.99601E-002	9.99617E-001	3.57700E+000	9	...........
STARTTIMEOFFSET	QUANT	1423.371	Start Time Offset (s)
