EXPLAIN
TAG	PWR800_CHARGE
TITLE	LABEL	PWR Cyclic Charge Discharge (Cell) - Charge Step	Test &Identifier
DATE	LABEL	12-7-2017	Date
TIME	LABEL	16:28:30	Time
NOTES	NOTES	2	&Notes...
	supercap test cell
	6M KOH
PSTAT	PSTAT	IFC5000-01520	Potentiostat
CAPACITY	QUANT	1.00000E-003	Capacity (A-hr)
CELLTYPE	SELECTOR	1	&Cell Type
WORKINGCONNECTION	SELECTOR	0	&Working Lead
MAXCHARGETIME	VARIABLEANDUNITS	1.00000E+002	s	1.00000E+002	second(s)	Max &Charge Time
CHARGECURRENT	QUANT	1.00000E-004	&Charge Current (A) 
VOLTAGEFINISH	TWOPARAM	F	1.00000E-003	3.60000E+003	&Voltage Finish	 I (A) < 	Max Time(s)
SAMPLETIME	QUANT	1.00000E-002	Sa&mple Period (s)
CHARGESTOPAT1	MULTIPARAM	4	1.00000E+000	Charge Stop At &1	Voltage > Limit	V
CHARGESTOPAT2	MULTIPARAM	0	0.00000E+000	Charge Stop At &2	None	N/A
AESBHCSELECTOR	TOGGLE	F	Save Both Half Cells
IRCOMP	TOGGLE	F	IR &Measure
EOC	QUANT	0	Open Circuit (V)
SEQUENCER	TOGGLE	TRUE	Run as Sequence
PSTATMODEL	IQUANT	53	Pstat Model
PSTATSECTION	LABEL	IFC5000-01520	Pstat Section
PSTATSERIALNO	LABEL	01520	Pstat Serial Number
CTRLMODE	IQUANT	0	Control Mode
ELECTROMETER	IQUANT	1	RE=0 or CS=1
IESTAB	IQUANT	0	I/E Stability
CASPEED	IQUANT	4	Control Amp Speed
CONVENTION	IQUANT	1	Current Convention
ICHRANGE	IQUANT	2	Ich Range
ICHRANGEMODE	TOGGLE	T	Ich Auto Range
ICHOFFSETENABLE	TOGGLE	F	Ich Offset Enable
ICHOFFSET	QUANT	0	Ich Offset (V)
ICHFILTER	IQUANT	1	Ich Filter
VCHRANGE	IQUANT	2	Vch Range
VCHRANGEMODE	TOGGLE	T	Vch Auto Range
VCHOFFSETENABLE	TOGGLE	F	Vch Offset Enable
VCHOFFSET	QUANT	0	Vch Offset (V)
VCHFILTER	IQUANT	1	Vch Filter
IERANGELOWERLIMIT	IQUANT	9	I/E Range Lower Limit
IERANGEMODE	TOGGLE	F	I/E AutoRange
IERANGE	IQUANT	9	I/E Range
ACHSELECT	IQUANT	1	Ach Select
ACHRANGE	IQUANT	2	Ach Range
ACHOFFSETENABLE	TOGGLE	F	Ach Offset Enable
ACHOFFSET	QUANT	0	Ach Offset (V)
ACHFILTER	IQUANT	1	Ach Filter
CABLEID	IQUANT	14	Cable ID
DCCALDATE	LABEL	5-7-2017	DC Calibration Date
ACCALDATE	LABEL	12/3/2015	AC Calibration Date
FRAMEWORKVERSION	QUANT	7.01	Framework Version
INSTRUMENTVERSION	LABEL	4.00	Instrument Version
CURVE	TABLE	77
	Pt	T	Vf	Im	Vu	Pwr	Sig	Ach	Temp	IERange	Over
	#	s	V	A	V	W	V	V	deg C	#	bits
	0	0.013333	2.60979E-001	1.00547E-004	0.00000E+000	2.62406E-005	5.99601E-002	2.61065E-001	3.57670E+000	9	...........
	1	0.026667	2.83825E-001	1.00367E-004	0.00000E+000	2.84866E-005	5.99601E-002	2.83891E-001	3.57670E+000	9	...........
	2	0.04	3.05295E-001	1.00483E-004	0.00000E+000	3.06771E-005	5.99601E-002	3.05371E-001	3.57670E+000	9	...........
	3	0.053333	3.25787E-001	1.00838E-004	0.00000E+000	3.28516E-005	5.99601E-002	3.25863E-001	3.57670E+000	9	...........
	4	0.066667	3.45490E-001	1.01587E-004	0.00000E+000	3.50972E-005	5.99601E-002	3.45568E-001	3.57670E+000	9	...........
	5	0.08	3.64548E-001	1.00942E-004	0.00000E+000	3.67981E-005	5.99601E-002	3.64629E-001	3.57670E+000	9	...........
	6	0.093333	3.83039E-001	1.01329E-004	0.00000E+000	3.88131E-005	5.99601E-002	3.83123E-001	3.57670E+000	9	...........
	7	0.106667	4.01031E-001	1.01446E-004	0.00000E+000	4.06831E-005	5.99601E-002	4.01120E-001	3.57670E+000	9	...........
	8	0.12	4.18557E-001	1.00245E-004	0.00000E+000	4.19582E-005	5.99601E-002	4.18654E-001	3.57670E+000	9	...........
	9	0.133333	4.35669E-001	1.00616E-004	0.00000E+000	4.38351E-005	5.99601E-002	4.35765E-001	3.57670E+000	9	...........
	10	0.146667	4.52387E-001	1.01070E-004	0.00000E+000	4.57227E-005	5.99601E-002	4.52488E-001	3.57670E+000	9	...........
	11	0.16	4.68740E-001	1.00480E-004	0.00000E+000	4.70991E-005	5.99601E-002	4.68840E-001	3.57670E+000	9	...........
	12	0.173333	4.84723E-001	1.00366E-004	0.00000E+000	4.86495E-005	5.99601E-002	4.84834E-001	3.57670E+000	9	...........
	13	0.186667	5.00374E-001	1.02695E-004	0.00000E+000	5.13861E-005	5.99601E-002	5.00488E-001	3.57670E+000	9	...........
	14	0.2	5.15677E-001	1.00907E-004	0.00000E+000	5.20357E-005	5.99601E-002	5.15792E-001	3.57670E+000	9	...........
	15	0.213333	5.30581E-001	1.02051E-004	0.00000E+000	5.41465E-005	5.99601E-002	5.30738E-001	3.57670E+000	9	...........
	16	0.226667	5.45034E-001	1.00373E-004	0.00000E+000	5.47067E-005	5.99601E-002	5.45296E-001	3.57670E+000	9	...........
	17	0.24	5.59396E-001	1.01223E-004	0.00000E+000	5.66238E-005	5.99601E-002	5.59657E-001	3.57670E+000	9	...........
	18	0.253333	5.73487E-001	1.00901E-004	0.00000E+000	5.78655E-005	5.99601E-002	5.73747E-001	3.57670E+000	9	...........
	19	0.266667	5.87258E-001	1.01817E-004	0.00000E+000	5.97929E-005	5.99601E-002	5.87540E-001	3.57670E+000	9	...........
	20	0.28	6.00758E-001	1.00557E-004	0.00000E+000	6.04107E-005	5.99601E-002	6.01032E-001	3.57670E+000	9	...........
	21	0.293333	6.13976E-001	1.01314E-004	0.00000E+000	6.22042E-005	5.99601E-002	6.14235E-001	3.57670E+000	9	...........
	22	0.306667	6.26883E-001	1.00697E-004	0.00000E+000	6.31252E-005	5.99601E-002	6.27152E-001	3.57670E+000	9	...........
	23	0.32	6.39540E-001	1.01317E-004	0.00000E+000	6.47962E-005	5.99601E-002	6.39792E-001	3.57670E+000	9	...........
	24	0.333333	6.51911E-001	1.01061E-004	0.00000E+000	6.58825E-005	5.99601E-002	6.52184E-001	3.57670E+000	9	...........
	25	0.346667	6.64016E-001	1.01036E-004	0.00000E+000	6.70892E-005	5.99601E-002	6.64279E-001	3.57670E+000	9	...........
	26	0.36	6.75835E-001	1.00398E-004	0.00000E+000	6.78524E-005	5.99601E-002	6.76102E-001	3.57670E+000	9	...........
	27	0.373333	6.87380E-001	1.00579E-004	0.00000E+000	6.91362E-005	5.99601E-002	6.87642E-001	3.57670E+000	9	...........
	28	0.386667	6.98680E-001	1.02005E-004	0.00000E+000	7.12685E-005	5.99601E-002	6.98932E-001	3.57670E+000	9	...........
	29	0.4	7.09689E-001	1.01514E-004	0.00000E+000	7.20432E-005	5.99601E-002	7.09955E-001	3.57670E+000	9	...........
	30	0.413333	7.20458E-001	1.00964E-004	0.00000E+000	7.27401E-005	5.99601E-002	7.20730E-001	3.57670E+000	9	...........
	31	0.426667	7.30964E-001	1.02350E-004	0.00000E+000	7.48145E-005	5.99601E-002	7.31229E-001	3.57670E+000	9	...........
	32	0.44	7.41202E-001	1.00302E-004	0.00000E+000	7.43441E-005	5.99601E-002	7.41464E-001	3.57670E+000	9	...........
	33	0.453333	7.51182E-001	1.00215E-004	0.00000E+000	7.52793E-005	5.99601E-002	7.51447E-001	3.57670E+000	9	...........
	34	0.466667	7.60898E-001	1.00740E-004	0.00000E+000	7.66526E-005	5.99601E-002	7.61165E-001	3.57670E+000	9	...........
	35	0.48	7.70385E-001	1.00709E-004	0.00000E+000	7.75850E-005	5.99601E-002	7.70659E-001	3.57670E+000	9	...........
	36	0.493333	7.79603E-001	1.00245E-004	0.00000E+000	7.81512E-005	5.99601E-002	7.79909E-001	3.57670E+000	9	...........
	37	0.506667	7.88578E-001	1.02022E-004	0.00000E+000	8.04525E-005	5.99601E-002	7.88881E-001	3.57670E+000	9	...........
	38	0.52	7.97324E-001	1.00481E-004	0.00000E+000	8.01161E-005	5.99601E-002	7.97625E-001	3.57670E+000	9	...........
	39	0.533333	8.05818E-001	1.00405E-004	0.00000E+000	8.09083E-005	5.99601E-002	8.06126E-001	3.57670E+000	9	...........
	40	0.546667	8.14064E-001	1.00307E-004	0.00000E+000	8.16565E-005	5.99601E-002	8.14392E-001	3.57670E+000	9	...........
	41	0.56	8.22104E-001	1.01603E-004	0.00000E+000	8.35286E-005	5.99601E-002	8.22433E-001	3.57670E+000	9	...........
	42	0.573333	8.29864E-001	1.00733E-004	0.00000E+000	8.35951E-005	5.99601E-002	8.30198E-001	3.57670E+000	9	...........
	43	0.586667	8.37413E-001	1.01313E-004	0.00000E+000	8.48406E-005	5.99601E-002	8.37775E-001	3.57670E+000	9	...........
	44	0.6	8.44746E-001	1.00612E-004	0.00000E+000	8.49912E-005	5.99601E-002	8.45117E-001	3.57670E+000	9	...........
	45	0.613333	8.51858E-001	1.01110E-004	0.00000E+000	8.61309E-005	5.99601E-002	8.52202E-001	3.57670E+000	9	...........
	46	0.626667	8.58718E-001	1.00400E-004	0.00000E+000	8.62153E-005	5.99601E-002	8.59096E-001	3.57670E+000	9	...........
	47	0.64	8.65415E-001	1.03066E-004	0.00000E+000	8.91950E-005	5.99601E-002	8.65743E-001	3.57670E+000	9	...........
	48	0.653333	8.71906E-001	1.00166E-004	0.00000E+000	8.73350E-005	5.99601E-002	8.72242E-001	3.57670E+000	9	...........
	49	0.666667	8.78152E-001	1.00249E-004	0.00000E+000	8.80338E-005	5.99601E-002	8.78481E-001	3.57670E+000	9	...........
	50	0.68	8.84248E-001	1.00375E-004	0.00000E+000	8.87564E-005	5.99601E-002	8.84572E-001	3.57670E+000	9	...........
	51	0.693333	8.90142E-001	1.00848E-004	0.00000E+000	8.97690E-005	5.99601E-002	8.90443E-001	3.57670E+000	9	...........
	52	0.706667	8.95865E-001	1.02234E-004	0.00000E+000	9.15876E-005	5.99601E-002	8.96197E-001	3.57670E+000	9	...........
	53	0.72	9.01438E-001	1.01568E-004	0.00000E+000	9.15573E-005	5.99601E-002	9.01773E-001	3.57670E+000	9	...........
	54	0.733333	9.06855E-001	1.01525E-004	0.00000E+000	9.20687E-005	5.99601E-002	9.07232E-001	3.57670E+000	9	...........
	55	0.746667	9.12157E-001	1.00896E-004	0.00000E+000	9.20330E-005	5.99601E-002	9.12488E-001	3.57670E+000	9	...........
	56	0.76	9.17327E-001	1.02282E-004	0.00000E+000	9.38257E-005	5.99601E-002	9.17645E-001	3.57670E+000	9	...........
	57	0.773333	9.22397E-001	9.94154E-005	0.00000E+000	9.17005E-005	5.99601E-002	9.22685E-001	3.57670E+000	9	...........
	58	0.786667	9.27322E-001	1.00582E-004	0.00000E+000	9.32722E-005	5.99601E-002	9.27622E-001	3.57670E+000	9	...........
	59	0.8	9.32136E-001	1.01050E-004	0.00000E+000	9.41925E-005	5.99601E-002	9.32438E-001	3.57670E+000	9	...........
	60	0.813333	9.36841E-001	1.00681E-004	0.00000E+000	9.43224E-005	5.99601E-002	9.37156E-001	3.57670E+000	9	...........
	61	0.826667	9.41476E-001	1.01172E-004	0.00000E+000	9.52510E-005	5.99601E-002	9.41774E-001	3.57670E+000	9	...........
	62	0.84	9.46042E-001	1.01825E-004	0.00000E+000	9.63311E-005	5.99601E-002	9.46341E-001	3.57670E+000	9	...........
	63	0.853333	9.50514E-001	1.00745E-004	0.00000E+000	9.57594E-005	5.99601E-002	9.50814E-001	3.57670E+000	9	...........
	64	0.866667	9.54886E-001	1.00655E-004	0.00000E+000	9.61143E-005	5.99601E-002	9.55183E-001	3.57670E+000	9	...........
	65	0.88	9.59186E-001	1.00967E-004	0.00000E+000	9.68459E-005	5.99601E-002	9.59504E-001	3.57670E+000	9	...........
	66	0.893333	9.63390E-001	1.00924E-004	0.00000E+000	9.72292E-005	5.99601E-002	9.63754E-001	3.57670E+000	9	...........
	67	0.906667	9.67524E-001	1.00630E-004	0.00000E+000	9.73622E-005	5.99601E-002	9.67880E-001	3.57670E+000	9	...........
	68	0.92	9.71612E-001	1.01682E-004	0.00000E+000	9.87950E-005	5.99601E-002	9.71979E-001	3.57670E+000	9	...........
	69	0.933333	9.75653E-001	1.03080E-004	0.00000E+000	1.00570E-004	5.99601E-002	9.75994E-001	3.57670E+000	9	...........
	70	0.946667	9.79562E-001	1.00527E-004	0.00000E+000	9.84726E-005	5.99601E-002	9.79914E-001	3.57670E+000	9	...........
	71	0.96	9.83384E-001	9.98541E-005	0.00000E+000	9.81949E-005	5.99601E-002	9.83745E-001	3.57670E+000	9	...........
	72	0.97333	9.87156E-001	1.02492E-004	0.00000E+000	1.01176E-004	5.99601E-002	9.87515E-001	3.57722E+000	9	...........
	73	0.98667	9.90825E-001	1.01152E-004	0.00000E+000	1.00224E-004	5.99601E-002	9.91182E-001	3.57730E+000	9	...........
	74	1	9.94401E-001	1.00948E-004	0.00000E+000	1.00383E-004	5.99601E-002	9.94754E-001	3.57730E+000	9	...........
	75	1.01333	9.97933E-001	1.01244E-004	0.00000E+000	1.01035E-004	5.99601E-002	9.98286E-001	3.57730E+000	9	...........
	76	1.01667	1.00010E+000	1.03436E-004	0.00000E+000	1.03446E-004	5.99601E-002	1.00044E+000	3.57730E+000	9	...........
STARTTIMEOFFSET	QUANT	789.4283	Start Time Offset (s)
