EXPLAIN
TAG	PWR800_CHARGE
TITLE	LABEL	PWR Cyclic Charge Discharge (Cell) - Charge Step	Test &Identifier
DATE	LABEL	12-7-2017	Date
TIME	LABEL	16:27:30	Time
NOTES	NOTES	2	&Notes...
	supercap test cell
	6M KOH
PSTAT	PSTAT	IFC5000-01520	Potentiostat
CAPACITY	QUANT	1.00000E-003	Capacity (A-hr)
CELLTYPE	SELECTOR	1	&Cell Type
WORKINGCONNECTION	SELECTOR	0	&Working Lead
MAXCHARGETIME	VARIABLEANDUNITS	1.00000E+002	s	1.00000E+002	second(s)	Max &Charge Time
CHARGECURRENT	QUANT	1.00000E-004	&Charge Current (A) 
VOLTAGEFINISH	TWOPARAM	F	1.00000E-003	3.60000E+003	&Voltage Finish	 I (A) < 	Max Time(s)
SAMPLETIME	QUANT	1.00000E-002	Sa&mple Period (s)
CHARGESTOPAT1	MULTIPARAM	4	1.00000E+000	Charge Stop At &1	Voltage > Limit	V
CHARGESTOPAT2	MULTIPARAM	0	0.00000E+000	Charge Stop At &2	None	N/A
AESBHCSELECTOR	TOGGLE	F	Save Both Half Cells
IRCOMP	TOGGLE	F	IR &Measure
EOC	QUANT	0	Open Circuit (V)
SEQUENCER	TOGGLE	TRUE	Run as Sequence
PSTATMODEL	IQUANT	53	Pstat Model
PSTATSECTION	LABEL	IFC5000-01520	Pstat Section
PSTATSERIALNO	LABEL	01520	Pstat Serial Number
CTRLMODE	IQUANT	0	Control Mode
ELECTROMETER	IQUANT	1	RE=0 or CS=1
IESTAB	IQUANT	0	I/E Stability
CASPEED	IQUANT	4	Control Amp Speed
CONVENTION	IQUANT	1	Current Convention
ICHRANGE	IQUANT	2	Ich Range
ICHRANGEMODE	TOGGLE	T	Ich Auto Range
ICHOFFSETENABLE	TOGGLE	F	Ich Offset Enable
ICHOFFSET	QUANT	0	Ich Offset (V)
ICHFILTER	IQUANT	1	Ich Filter
VCHRANGE	IQUANT	2	Vch Range
VCHRANGEMODE	TOGGLE	T	Vch Auto Range
VCHOFFSETENABLE	TOGGLE	F	Vch Offset Enable
VCHOFFSET	QUANT	0	Vch Offset (V)
VCHFILTER	IQUANT	1	Vch Filter
IERANGELOWERLIMIT	IQUANT	9	I/E Range Lower Limit
IERANGEMODE	TOGGLE	F	I/E AutoRange
IERANGE	IQUANT	9	I/E Range
ACHSELECT	IQUANT	1	Ach Select
ACHRANGE	IQUANT	2	Ach Range
ACHOFFSETENABLE	TOGGLE	F	Ach Offset Enable
ACHOFFSET	QUANT	0	Ach Offset (V)
ACHFILTER	IQUANT	1	Ach Filter
CABLEID	IQUANT	14	Cable ID
DCCALDATE	LABEL	5-7-2017	DC Calibration Date
ACCALDATE	LABEL	12/3/2015	AC Calibration Date
FRAMEWORKVERSION	QUANT	7.01	Framework Version
INSTRUMENTVERSION	LABEL	4.00	Instrument Version
CURVE	TABLE	77
	Pt	T	Vf	Im	Vu	Pwr	Sig	Ach	Temp	IERange	Over
	#	s	V	A	V	W	V	V	deg C	#	bits
	0	0.013333	2.60663E-001	1.01836E-004	0.00000E+000	2.65448E-005	5.99601E-002	2.60737E-001	3.57670E+000	9	...........
	1	0.026667	2.83495E-001	1.01514E-004	0.00000E+000	2.87786E-005	5.99601E-002	2.83556E-001	3.57670E+000	9	...........
	2	0.04	3.04963E-001	1.00068E-004	0.00000E+000	3.05170E-005	5.99601E-002	3.05025E-001	3.57670E+000	9	...........
	3	0.053333	3.25444E-001	1.01359E-004	0.00000E+000	3.29865E-005	5.99601E-002	3.25513E-001	3.57670E+000	9	...........
	4	0.066667	3.45129E-001	1.02382E-004	0.00000E+000	3.53348E-005	5.99601E-002	3.45200E-001	3.57670E+000	9	...........
	5	0.08	3.64149E-001	1.00127E-004	0.00000E+000	3.64612E-005	5.99601E-002	3.64225E-001	3.57670E+000	9	...........
	6	0.093333	3.82603E-001	1.01056E-004	0.00000E+000	3.86645E-005	5.99601E-002	3.82685E-001	3.57670E+000	9	...........
	7	0.106667	4.00562E-001	1.01680E-004	0.00000E+000	4.07293E-005	5.99601E-002	4.00640E-001	3.57670E+000	9	...........
	8	0.12	4.18046E-001	1.01923E-004	0.00000E+000	4.26086E-005	5.99601E-002	4.18142E-001	3.57670E+000	9	...........
	9	0.133333	4.35111E-001	1.01296E-004	0.00000E+000	4.40750E-005	5.99601E-002	4.35209E-001	3.57670E+000	9	...........
	10	0.146667	4.51791E-001	1.01550E-004	0.00000E+000	4.58795E-005	5.99601E-002	4.51887E-001	3.57670E+000	9	...........
	11	0.16	4.68085E-001	1.00073E-004	0.00000E+000	4.68426E-005	5.99601E-002	4.68190E-001	3.57670E+000	9	...........
	12	0.173333	4.84034E-001	1.01462E-004	0.00000E+000	4.91110E-005	5.99601E-002	4.84144E-001	3.57670E+000	9	...........
	13	0.186667	4.99629E-001	1.00902E-004	0.00000E+000	5.04136E-005	5.99601E-002	4.99743E-001	3.57670E+000	9	...........
	14	0.2	5.14906E-001	1.01244E-004	0.00000E+000	5.21312E-005	5.99601E-002	5.15017E-001	3.57670E+000	9	...........
	15	0.213333	5.29804E-001	1.00930E-004	0.00000E+000	5.34732E-005	5.99601E-002	5.29911E-001	3.57670E+000	9	...........
	16	0.226667	5.44188E-001	1.00349E-004	0.00000E+000	5.46087E-005	5.99601E-002	5.44430E-001	3.57685E+000	9	...........
	17	0.24	5.58527E-001	1.00703E-004	0.00000E+000	5.62454E-005	5.99601E-002	5.58750E-001	3.57710E+000	9	...........
	18	0.253333	5.72573E-001	1.01313E-004	0.00000E+000	5.80089E-005	5.99601E-002	5.72812E-001	3.57710E+000	9	...........
	19	0.266667	5.86323E-001	1.00814E-004	0.00000E+000	5.91094E-005	5.99601E-002	5.86576E-001	3.57710E+000	9	...........
	20	0.28	5.99779E-001	1.00092E-004	0.00000E+000	6.00329E-005	5.99601E-002	6.00058E-001	3.57710E+000	9	...........
	21	0.293333	6.12967E-001	1.01553E-004	0.00000E+000	6.22488E-005	5.99601E-002	6.13221E-001	3.57710E+000	9	...........
	22	0.306667	6.25894E-001	1.01272E-004	0.00000E+000	6.33856E-005	5.99601E-002	6.26113E-001	3.57710E+000	9	...........
	23	0.32	6.38501E-001	1.01115E-004	0.00000E+000	6.45619E-005	5.99601E-002	6.38766E-001	3.57710E+000	9	...........
	24	0.333333	6.50864E-001	1.01152E-004	0.00000E+000	6.58364E-005	5.99601E-002	6.51123E-001	3.57710E+000	9	...........
	25	0.346667	6.62984E-001	1.01583E-004	0.00000E+000	6.73476E-005	5.99601E-002	6.63205E-001	3.57710E+000	9	...........
	26	0.36	6.74781E-001	1.01661E-004	0.00000E+000	6.85987E-005	5.99601E-002	6.75028E-001	3.57710E+000	9	...........
	27	0.373333	6.86344E-001	1.01072E-004	0.00000E+000	6.93702E-005	5.99601E-002	6.86598E-001	3.57710E+000	9	...........
	28	0.386667	6.97614E-001	9.96936E-005	0.00000E+000	6.95477E-005	5.99601E-002	6.97905E-001	3.57710E+000	9	...........
	29	0.4	7.08625E-001	1.00247E-004	0.00000E+000	7.10374E-005	5.99601E-002	7.08891E-001	3.57710E+000	9	...........
	30	0.413333	7.19412E-001	1.01250E-004	0.00000E+000	7.28406E-005	5.99601E-002	7.19680E-001	3.57710E+000	9	...........
	31	0.426667	7.29919E-001	1.00811E-004	0.00000E+000	7.35835E-005	5.99601E-002	7.30198E-001	3.57710E+000	9	...........
	32	0.44	7.40164E-001	1.01778E-004	0.00000E+000	7.53327E-005	5.99601E-002	7.40431E-001	3.57710E+000	9	...........
	33	0.453333	7.50161E-001	1.00656E-004	0.00000E+000	7.55085E-005	5.99601E-002	7.50450E-001	3.57710E+000	9	...........
	34	0.466667	7.59901E-001	1.00800E-004	0.00000E+000	7.65981E-005	5.99601E-002	7.60181E-001	3.57710E+000	9	...........
	35	0.48	7.69397E-001	1.02053E-004	0.00000E+000	7.85196E-005	5.99601E-002	7.69692E-001	3.57710E+000	9	...........
	36	0.493333	7.78665E-001	1.00865E-004	0.00000E+000	7.85399E-005	5.99601E-002	7.78930E-001	3.57710E+000	9	...........
	37	0.506667	7.87668E-001	1.00420E-004	0.00000E+000	7.90974E-005	5.99601E-002	7.87935E-001	3.57710E+000	9	...........
	38	0.52	7.96448E-001	1.00678E-004	0.00000E+000	8.01850E-005	5.99601E-002	7.96702E-001	3.57710E+000	9	...........
	39	0.533333	8.04938E-001	1.00634E-004	0.00000E+000	8.10044E-005	5.99601E-002	8.05212E-001	3.57710E+000	9	...........
	40	0.546667	8.13206E-001	1.00625E-004	0.00000E+000	8.18289E-005	5.99601E-002	8.13506E-001	3.57710E+000	9	...........
	41	0.56	8.21252E-001	1.00497E-004	0.00000E+000	8.25333E-005	5.99601E-002	8.21568E-001	3.57710E+000	9	...........
	42	0.573333	8.29073E-001	1.00554E-004	0.00000E+000	8.33668E-005	5.99601E-002	8.29371E-001	3.57710E+000	9	...........
	43	0.586667	8.36638E-001	1.00151E-004	0.00000E+000	8.37901E-005	5.99601E-002	8.36952E-001	3.57710E+000	9	...........
	44	0.6	8.44003E-001	1.00646E-004	0.00000E+000	8.49455E-005	5.99601E-002	8.44332E-001	3.57710E+000	9	...........
	45	0.613333	8.51145E-001	1.00946E-004	0.00000E+000	8.59196E-005	5.99601E-002	8.51487E-001	3.57710E+000	9	...........
	46	0.626667	8.58047E-001	1.00871E-004	0.00000E+000	8.65520E-005	5.99601E-002	8.58401E-001	3.57710E+000	9	...........
	47	0.64	8.64739E-001	1.01146E-004	0.00000E+000	8.74648E-005	5.99601E-002	8.65087E-001	3.57710E+000	9	...........
	48	0.653333	8.71271E-001	1.00827E-004	0.00000E+000	8.78478E-005	5.99601E-002	8.71603E-001	3.57710E+000	9	...........
	49	0.666667	8.77552E-001	1.01098E-004	0.00000E+000	8.87188E-005	5.99601E-002	8.77872E-001	3.57710E+000	9	...........
	50	0.68	8.83664E-001	1.01062E-004	0.00000E+000	8.93045E-005	5.99601E-002	8.83984E-001	3.57710E+000	9	...........
	51	0.693333	8.89590E-001	1.00761E-004	0.00000E+000	8.96356E-005	5.99601E-002	8.89903E-001	3.57710E+000	9	...........
	52	0.706667	8.95315E-001	1.01720E-004	0.00000E+000	9.10715E-005	5.99601E-002	8.95662E-001	3.57710E+000	9	...........
	53	0.72	9.00927E-001	1.01425E-004	0.00000E+000	9.13767E-005	5.99601E-002	9.01258E-001	3.57710E+000	9	...........
	54	0.733333	9.06344E-001	1.00175E-004	0.00000E+000	9.07930E-005	5.99601E-002	9.06674E-001	3.57710E+000	9	...........
	55	0.746667	9.11670E-001	1.01119E-004	0.00000E+000	9.21870E-005	5.99601E-002	9.11977E-001	3.57710E+000	9	...........
	56	0.76	9.16829E-001	1.01932E-004	0.00000E+000	9.34538E-005	5.99601E-002	9.17162E-001	3.57710E+000	9	...........
	57	0.773333	9.21920E-001	1.01265E-004	0.00000E+000	9.33580E-005	5.99601E-002	9.22205E-001	3.57710E+000	9	...........
	58	0.786667	9.26847E-001	1.00952E-004	0.00000E+000	9.35672E-005	5.99601E-002	9.27150E-001	3.57710E+000	9	...........
	59	0.8	9.31676E-001	1.02733E-004	0.00000E+000	9.57137E-005	5.99601E-002	9.31968E-001	3.57710E+000	9	...........
	60	0.813333	9.36369E-001	1.00168E-004	0.00000E+000	9.37939E-005	5.99601E-002	9.36715E-001	3.57710E+000	9	...........
	61	0.826667	9.41003E-001	1.01399E-004	0.00000E+000	9.54169E-005	5.99601E-002	9.41348E-001	3.57710E+000	9	...........
	62	0.84	9.45572E-001	1.01808E-004	0.00000E+000	9.62664E-005	5.99601E-002	9.45896E-001	3.57710E+000	9	...........
	63	0.853333	9.50033E-001	1.00527E-004	0.00000E+000	9.55040E-005	5.99601E-002	9.50381E-001	3.57710E+000	9	...........
	64	0.866667	9.54422E-001	9.98895E-005	0.00000E+000	9.53367E-005	5.99601E-002	9.54780E-001	3.57710E+000	9	...........
	65	0.88	9.58712E-001	1.01376E-004	0.00000E+000	9.71906E-005	5.99601E-002	9.59076E-001	3.57710E+000	9	...........
	66	0.893333	9.62915E-001	1.01205E-004	0.00000E+000	9.74522E-005	5.99601E-002	9.63315E-001	3.57710E+000	9	...........
	67	0.906667	9.67063E-001	1.01881E-004	0.00000E+000	9.85249E-005	5.99601E-002	9.67415E-001	3.57710E+000	9	...........
	68	0.92	9.71137E-001	1.02007E-004	0.00000E+000	9.90623E-005	5.99601E-002	9.71545E-001	3.57710E+000	9	...........
	69	0.933333	9.75154E-001	1.01361E-004	0.00000E+000	9.88423E-005	5.99601E-002	9.75523E-001	3.57710E+000	9	...........
	70	0.946667	9.79075E-001	1.00786E-004	0.00000E+000	9.86765E-005	5.99601E-002	9.79400E-001	3.57710E+000	9	...........
	71	0.96	9.82903E-001	1.01345E-004	0.00000E+000	9.96123E-005	5.99601E-002	9.83234E-001	3.57710E+000	9	...........
	72	0.97333	9.86635E-001	1.00004E-004	0.00000E+000	9.86675E-005	5.99601E-002	9.86995E-001	3.57710E+000	9	...........
	73	0.98667	9.90320E-001	1.01386E-004	0.00000E+000	1.00404E-004	5.99601E-002	9.90679E-001	3.57710E+000	9	...........
	74	1	9.93889E-001	1.01658E-004	0.00000E+000	1.01036E-004	5.99601E-002	9.94245E-001	3.57710E+000	9	...........
	75	1.01333	9.97429E-001	1.02172E-004	0.00000E+000	1.01910E-004	5.99601E-002	9.97736E-001	3.57710E+000	9	...........
	76	1.01833	9.99796E-001	1.02421E-004	0.00000E+000	1.02400E-004	5.99601E-002	1.00012E+000	3.57710E+000	9	...........
STARTTIMEOFFSET	QUANT	746.2533	Start Time Offset (s)
