EXPLAIN
TAG	PWR800_CHARGE
TITLE	LABEL	PWR Cyclic Charge Discharge (Cell) - Charge Step	Test &Identifier
DATE	LABEL	12-7-2017	Date
TIME	LABEL	16:18:10	Time
NOTES	NOTES	2	&Notes...
	supercap test cell
	6M KOH
PSTAT	PSTAT	IFC5000-01520	Potentiostat
CAPACITY	QUANT	1.00000E-003	Capacity (A-hr)
CELLTYPE	SELECTOR	1	&Cell Type
WORKINGCONNECTION	SELECTOR	0	&Working Lead
MAXCHARGETIME	VARIABLEANDUNITS	1.00000E+002	s	1.00000E+002	second(s)	Max &Charge Time
CHARGECURRENT	QUANT	1.00000E-004	&Charge Current (A) 
VOLTAGEFINISH	TWOPARAM	F	1.00000E-003	3.60000E+003	&Voltage Finish	 I (A) < 	Max Time(s)
SAMPLETIME	QUANT	1.00000E-002	Sa&mple Period (s)
CHARGESTOPAT1	MULTIPARAM	4	1.00000E+000	Charge Stop At &1	Voltage > Limit	V
CHARGESTOPAT2	MULTIPARAM	0	0.00000E+000	Charge Stop At &2	None	N/A
AESBHCSELECTOR	TOGGLE	F	Save Both Half Cells
IRCOMP	TOGGLE	F	IR &Measure
EOC	QUANT	0	Open Circuit (V)
SEQUENCER	TOGGLE	TRUE	Run as Sequence
PSTATMODEL	IQUANT	53	Pstat Model
PSTATSECTION	LABEL	IFC5000-01520	Pstat Section
PSTATSERIALNO	LABEL	01520	Pstat Serial Number
CTRLMODE	IQUANT	0	Control Mode
ELECTROMETER	IQUANT	1	RE=0 or CS=1
IESTAB	IQUANT	0	I/E Stability
CASPEED	IQUANT	4	Control Amp Speed
CONVENTION	IQUANT	1	Current Convention
ICHRANGE	IQUANT	2	Ich Range
ICHRANGEMODE	TOGGLE	T	Ich Auto Range
ICHOFFSETENABLE	TOGGLE	F	Ich Offset Enable
ICHOFFSET	QUANT	0	Ich Offset (V)
ICHFILTER	IQUANT	1	Ich Filter
VCHRANGE	IQUANT	2	Vch Range
VCHRANGEMODE	TOGGLE	T	Vch Auto Range
VCHOFFSETENABLE	TOGGLE	F	Vch Offset Enable
VCHOFFSET	QUANT	0	Vch Offset (V)
VCHFILTER	IQUANT	1	Vch Filter
IERANGELOWERLIMIT	IQUANT	9	I/E Range Lower Limit
IERANGEMODE	TOGGLE	F	I/E AutoRange
IERANGE	IQUANT	9	I/E Range
ACHSELECT	IQUANT	1	Ach Select
ACHRANGE	IQUANT	2	Ach Range
ACHOFFSETENABLE	TOGGLE	F	Ach Offset Enable
ACHOFFSET	QUANT	0	Ach Offset (V)
ACHFILTER	IQUANT	1	Ach Filter
CABLEID	IQUANT	14	Cable ID
DCCALDATE	LABEL	5-7-2017	DC Calibration Date
ACCALDATE	LABEL	12/3/2015	AC Calibration Date
FRAMEWORKVERSION	QUANT	7.01	Framework Version
INSTRUMENTVERSION	LABEL	4.00	Instrument Version
CURVE	TABLE	79
	Pt	T	Vf	Im	Vu	Pwr	Sig	Ach	Temp	IERange	Over
	#	s	V	A	V	W	V	V	deg C	#	bits
	0	0.013333	2.59450E-001	1.00436E-004	0.00000E+000	2.60583E-005	5.99601E-002	2.59522E-001	3.57730E+000	9	...........
	1	0.026667	2.82231E-001	1.00881E-004	0.00000E+000	2.84718E-005	5.99601E-002	2.82287E-001	3.57730E+000	9	...........
	2	0.04	3.03472E-001	1.00569E-004	0.00000E+000	3.05198E-005	5.99601E-002	3.03544E-001	3.57730E+000	9	...........
	3	0.053333	3.23588E-001	1.00515E-004	0.00000E+000	3.25253E-005	5.99601E-002	3.23658E-001	3.57730E+000	9	...........
	4	0.066667	3.42783E-001	1.01320E-004	0.00000E+000	3.47308E-005	5.99601E-002	3.42856E-001	3.57730E+000	9	...........
	5	0.08	3.61214E-001	1.01165E-004	0.00000E+000	3.65421E-005	5.99601E-002	3.61287E-001	3.57730E+000	9	...........
	6	0.093333	3.79001E-001	1.00475E-004	0.00000E+000	3.80801E-005	5.99601E-002	3.79078E-001	3.57730E+000	9	...........
	7	0.106667	3.96227E-001	1.01022E-004	0.00000E+000	4.00277E-005	5.99601E-002	3.96310E-001	3.57730E+000	9	...........
	8	0.12	4.12947E-001	1.01215E-004	0.00000E+000	4.17963E-005	5.99601E-002	4.13038E-001	3.57730E+000	9	...........
	9	0.133333	4.29224E-001	1.00678E-004	0.00000E+000	4.32135E-005	5.99601E-002	4.29316E-001	3.57730E+000	9	...........
	10	0.146667	4.45086E-001	1.01863E-004	0.00000E+000	4.53377E-005	5.99601E-002	4.45185E-001	3.57730E+000	9	...........
	11	0.16	4.60575E-001	1.00513E-004	0.00000E+000	4.62936E-005	5.99601E-002	4.60671E-001	3.57730E+000	9	...........
	12	0.173333	4.75712E-001	1.01145E-004	0.00000E+000	4.81159E-005	5.99601E-002	4.75814E-001	3.57755E+000	9	...........
	13	0.186667	4.90511E-001	1.01124E-004	0.00000E+000	4.96025E-005	5.99601E-002	4.90619E-001	3.57770E+000	9	...........
	14	0.2	5.05001E-001	1.00887E-004	0.00000E+000	5.09478E-005	5.99601E-002	5.05115E-001	3.57770E+000	9	...........
	15	0.213333	5.19200E-001	1.00328E-004	0.00000E+000	5.20904E-005	5.99601E-002	5.19315E-001	3.57770E+000	9	...........
	16	0.226667	5.33009E-001	1.01086E-004	0.00000E+000	5.38795E-005	5.99601E-002	5.33161E-001	3.57770E+000	9	...........
	17	0.24	5.46465E-001	1.00328E-004	0.00000E+000	5.48258E-005	5.99601E-002	5.46716E-001	3.57770E+000	9	...........
	18	0.253333	5.59857E-001	1.00956E-004	0.00000E+000	5.65211E-005	5.99601E-002	5.60135E-001	3.57770E+000	9	...........
	19	0.266667	5.73014E-001	1.00260E-004	0.00000E+000	5.74507E-005	5.99601E-002	5.73270E-001	3.57770E+000	9	...........
	20	0.28	5.85908E-001	1.01050E-004	0.00000E+000	5.92061E-005	5.99601E-002	5.86167E-001	3.57770E+000	9	...........
	21	0.293333	5.98584E-001	1.01435E-004	0.00000E+000	6.07171E-005	5.99601E-002	5.98853E-001	3.57770E+000	9	...........
	22	0.306667	6.11016E-001	1.01015E-004	0.00000E+000	6.17216E-005	5.99601E-002	6.11291E-001	3.57770E+000	9	...........
	23	0.32	6.23283E-001	1.00836E-004	0.00000E+000	6.28491E-005	5.99601E-002	6.23522E-001	3.57770E+000	9	...........
	24	0.333333	6.35259E-001	1.01445E-004	0.00000E+000	6.44438E-005	5.99601E-002	6.35503E-001	3.57770E+000	9	...........
	25	0.346667	6.47038E-001	1.01110E-004	0.00000E+000	6.54217E-005	5.99601E-002	6.47296E-001	3.57770E+000	9	...........
	26	0.36	6.58597E-001	1.00567E-004	0.00000E+000	6.62330E-005	5.99601E-002	6.58863E-001	3.57770E+000	9	...........
	27	0.373333	6.69939E-001	1.01210E-004	0.00000E+000	6.78042E-005	5.99601E-002	6.70208E-001	3.57770E+000	9	...........
	28	0.386667	6.81062E-001	1.00722E-004	0.00000E+000	6.85979E-005	5.99601E-002	6.81314E-001	3.57770E+000	9	...........
	29	0.4	6.91975E-001	1.00670E-004	0.00000E+000	6.96610E-005	5.99601E-002	6.92232E-001	3.57770E+000	9	...........
	30	0.413333	7.02651E-001	1.01273E-004	0.00000E+000	7.11597E-005	5.99601E-002	7.02928E-001	3.57770E+000	9	...........
	31	0.426667	7.13136E-001	9.98916E-005	0.00000E+000	7.12363E-005	5.99601E-002	7.13423E-001	3.57770E+000	9	...........
	32	0.44	7.23460E-001	1.00733E-004	0.00000E+000	7.28766E-005	5.99601E-002	7.23696E-001	3.57770E+000	9	...........
	33	0.453333	7.33486E-001	1.00795E-004	0.00000E+000	7.39317E-005	5.99601E-002	7.33755E-001	3.57770E+000	9	...........
	34	0.466667	7.43342E-001	1.00724E-004	0.00000E+000	7.48724E-005	5.99601E-002	7.43606E-001	3.57770E+000	9	...........
	35	0.48	7.52971E-001	1.01547E-004	0.00000E+000	7.64620E-005	5.99601E-002	7.53259E-001	3.57770E+000	9	...........
	36	0.493333	7.62407E-001	1.01768E-004	0.00000E+000	7.75886E-005	5.99601E-002	7.62686E-001	3.57770E+000	9	...........
	37	0.506667	7.71625E-001	1.00584E-004	0.00000E+000	7.76135E-005	5.99601E-002	7.71932E-001	3.57770E+000	9	...........
	38	0.52	7.80632E-001	1.01099E-004	0.00000E+000	7.89212E-005	5.99601E-002	7.80925E-001	3.57770E+000	9	...........
	39	0.533333	7.89446E-001	1.00282E-004	0.00000E+000	7.91674E-005	5.99601E-002	7.89722E-001	3.57770E+000	9	...........
	40	0.546667	7.98048E-001	1.01371E-004	0.00000E+000	8.08989E-005	5.99601E-002	7.98340E-001	3.57770E+000	9	...........
	41	0.56	8.06413E-001	1.00749E-004	0.00000E+000	8.12454E-005	5.99601E-002	8.06708E-001	3.57770E+000	9	...........
	42	0.573333	8.14565E-001	1.01285E-004	0.00000E+000	8.25029E-005	5.99601E-002	8.14871E-001	3.57770E+000	9	...........
	43	0.586667	8.22564E-001	1.01659E-004	0.00000E+000	8.36207E-005	5.99601E-002	8.22867E-001	3.57770E+000	9	...........
	44	0.6	8.30315E-001	1.01189E-004	0.00000E+000	8.40185E-005	5.99601E-002	8.30607E-001	3.57770E+000	9	...........
	45	0.613333	8.37867E-001	1.00517E-004	0.00000E+000	8.42197E-005	5.99601E-002	8.38192E-001	3.57770E+000	9	...........
	46	0.626667	8.45225E-001	1.01024E-004	0.00000E+000	8.53881E-005	5.99601E-002	8.45559E-001	3.57770E+000	9	...........
	47	0.64	8.52379E-001	1.01578E-004	0.00000E+000	8.65833E-005	5.99601E-002	8.52719E-001	3.57770E+000	9	...........
	48	0.653333	8.59363E-001	9.99583E-005	0.00000E+000	8.59004E-005	5.99601E-002	8.59694E-001	3.57770E+000	9	...........
	49	0.666667	8.66107E-001	1.00287E-004	0.00000E+000	8.68596E-005	5.99601E-002	8.66464E-001	3.57770E+000	9	...........
	50	0.68	8.72729E-001	1.00557E-004	0.00000E+000	8.77593E-005	5.99601E-002	8.73047E-001	3.57770E+000	9	...........
	51	0.693333	8.79081E-001	1.01138E-004	0.00000E+000	8.89082E-005	5.99601E-002	8.79431E-001	3.57770E+000	9	...........
	52	0.706667	8.85304E-001	1.01643E-004	0.00000E+000	8.99849E-005	5.99601E-002	8.85630E-001	3.57770E+000	9	...........
	53	0.72	8.91303E-001	1.00427E-004	0.00000E+000	8.95110E-005	5.99601E-002	8.91643E-001	3.57770E+000	9	...........
	54	0.733333	8.97148E-001	1.00343E-004	0.00000E+000	9.00223E-005	5.99601E-002	8.97484E-001	3.57770E+000	9	...........
	55	0.746667	9.02809E-001	1.00535E-004	0.00000E+000	9.07643E-005	5.99601E-002	9.03172E-001	3.57770E+000	9	...........
	56	0.76	9.08312E-001	1.01166E-004	0.00000E+000	9.18901E-005	5.99601E-002	9.08660E-001	3.57770E+000	9	...........
	57	0.773333	9.13645E-001	1.00781E-004	0.00000E+000	9.20784E-005	5.99601E-002	9.14013E-001	3.57770E+000	9	...........
	58	0.786667	9.18872E-001	1.00652E-004	0.00000E+000	9.24865E-005	5.99601E-002	9.19210E-001	3.57770E+000	9	...........
	59	0.8	9.23945E-001	1.00024E-004	0.00000E+000	9.24166E-005	5.99601E-002	9.24270E-001	3.57770E+000	9	...........
	60	0.813333	9.28866E-001	1.00920E-004	0.00000E+000	9.37411E-005	5.99601E-002	9.29188E-001	3.57770E+000	9	...........
	61	0.826667	9.33635E-001	1.00382E-004	0.00000E+000	9.37205E-005	5.99601E-002	9.33967E-001	3.57770E+000	9	...........
	62	0.84	9.38297E-001	1.00855E-004	0.00000E+000	9.46322E-005	5.99601E-002	9.38660E-001	3.57770E+000	9	...........
	63	0.853333	9.42847E-001	1.01078E-004	0.00000E+000	9.53014E-005	5.99601E-002	9.43178E-001	3.57770E+000	9	...........
	64	0.866667	9.47333E-001	1.00878E-004	0.00000E+000	9.55653E-005	5.99601E-002	9.47675E-001	3.57770E+000	9	...........
	65	0.88	9.51687E-001	1.01411E-004	0.00000E+000	9.65112E-005	5.99601E-002	9.52029E-001	3.57770E+000	9	...........
	66	0.893333	9.55941E-001	1.00589E-004	0.00000E+000	9.61568E-005	5.99601E-002	9.56275E-001	3.57770E+000	9	...........
	67	0.906667	9.60098E-001	1.01232E-004	0.00000E+000	9.71931E-005	5.99601E-002	9.60438E-001	3.57770E+000	9	...........
	68	0.92	9.64140E-001	1.00434E-004	0.00000E+000	9.68328E-005	5.99601E-002	9.64533E-001	3.57770E+000	9	...........
	69	0.933333	9.68135E-001	1.01190E-004	0.00000E+000	9.79654E-005	5.99601E-002	9.68504E-001	3.57770E+000	9	...........
	70	0.946667	9.72054E-001	1.01707E-004	0.00000E+000	9.88643E-005	5.99601E-002	9.72434E-001	3.57770E+000	9	...........
	71	0.96	9.75925E-001	1.00664E-004	0.00000E+000	9.82401E-005	5.99601E-002	9.76278E-001	3.57770E+000	9	...........
	72	0.97333	9.79677E-001	1.00706E-004	0.00000E+000	9.86597E-005	5.99601E-002	9.80023E-001	3.57770E+000	9	...........
	73	0.98667	9.83320E-001	1.00111E-004	0.00000E+000	9.84415E-005	5.99601E-002	9.83666E-001	3.57770E+000	9	...........
	74	1	9.86909E-001	1.00131E-004	0.00000E+000	9.88204E-005	5.99601E-002	9.87266E-001	3.57770E+000	9	...........
	75	1.01333	9.90422E-001	1.01001E-004	0.00000E+000	1.00034E-004	5.99601E-002	9.90760E-001	3.57770E+000	9	...........
	76	1.02667	9.93810E-001	1.00993E-004	0.00000E+000	1.00368E-004	5.99601E-002	9.94129E-001	3.57770E+000	9	...........
	77	1.04	9.97140E-001	1.00742E-004	0.00000E+000	1.00454E-004	5.99601E-002	9.97486E-001	3.57770E+000	9	...........
	78	1.04667	9.99603E-001	1.00125E-004	0.00000E+000	1.00085E-004	5.99601E-002	9.99942E-001	3.57770E+000	9	...........
STARTTIMEOFFSET	QUANT	346.8633	Start Time Offset (s)
