EXPLAIN
TAG	PWR800_CHARGE
TITLE	LABEL	PWR Cyclic Charge Discharge (Cell) - Charge Step	Test &Identifier
DATE	LABEL	12-7-2017	Date
TIME	LABEL	16:14:05	Time
NOTES	NOTES	2	&Notes...
	supercap test cell
	6M KOH
PSTAT	PSTAT	IFC5000-01520	Potentiostat
CAPACITY	QUANT	1.00000E-003	Capacity (A-hr)
CELLTYPE	SELECTOR	1	&Cell Type
WORKINGCONNECTION	SELECTOR	0	&Working Lead
MAXCHARGETIME	VARIABLEANDUNITS	1.00000E+002	s	1.00000E+002	second(s)	Max &Charge Time
CHARGECURRENT	QUANT	1.00000E-004	&Charge Current (A) 
VOLTAGEFINISH	TWOPARAM	F	1.00000E-003	3.60000E+003	&Voltage Finish	 I (A) < 	Max Time(s)
SAMPLETIME	QUANT	1.00000E-002	Sa&mple Period (s)
CHARGESTOPAT1	MULTIPARAM	4	1.00000E+000	Charge Stop At &1	Voltage > Limit	V
CHARGESTOPAT2	MULTIPARAM	0	0.00000E+000	Charge Stop At &2	None	N/A
AESBHCSELECTOR	TOGGLE	F	Save Both Half Cells
IRCOMP	TOGGLE	F	IR &Measure
EOC	QUANT	0	Open Circuit (V)
SEQUENCER	TOGGLE	TRUE	Run as Sequence
PSTATMODEL	IQUANT	53	Pstat Model
PSTATSECTION	LABEL	IFC5000-01520	Pstat Section
PSTATSERIALNO	LABEL	01520	Pstat Serial Number
CTRLMODE	IQUANT	0	Control Mode
ELECTROMETER	IQUANT	1	RE=0 or CS=1
IESTAB	IQUANT	0	I/E Stability
CASPEED	IQUANT	4	Control Amp Speed
CONVENTION	IQUANT	1	Current Convention
ICHRANGE	IQUANT	2	Ich Range
ICHRANGEMODE	TOGGLE	T	Ich Auto Range
ICHOFFSETENABLE	TOGGLE	F	Ich Offset Enable
ICHOFFSET	QUANT	0	Ich Offset (V)
ICHFILTER	IQUANT	1	Ich Filter
VCHRANGE	IQUANT	2	Vch Range
VCHRANGEMODE	TOGGLE	T	Vch Auto Range
VCHOFFSETENABLE	TOGGLE	F	Vch Offset Enable
VCHOFFSET	QUANT	0	Vch Offset (V)
VCHFILTER	IQUANT	1	Vch Filter
IERANGELOWERLIMIT	IQUANT	9	I/E Range Lower Limit
IERANGEMODE	TOGGLE	F	I/E AutoRange
IERANGE	IQUANT	9	I/E Range
ACHSELECT	IQUANT	1	Ach Select
ACHRANGE	IQUANT	2	Ach Range
ACHOFFSETENABLE	TOGGLE	F	Ach Offset Enable
ACHOFFSET	QUANT	0	Ach Offset (V)
ACHFILTER	IQUANT	1	Ach Filter
CABLEID	IQUANT	14	Cable ID
DCCALDATE	LABEL	5-7-2017	DC Calibration Date
ACCALDATE	LABEL	12/3/2015	AC Calibration Date
FRAMEWORKVERSION	QUANT	7.01	Framework Version
INSTRUMENTVERSION	LABEL	4.00	Instrument Version
CURVE	TABLE	81
	Pt	T	Vf	Im	Vu	Pwr	Sig	Ach	Temp	IERange	Over
	#	s	V	A	V	W	V	V	deg C	#	bits
	0	0.013333	2.61001E-001	1.00317E-004	0.00000E+000	2.61827E-005	5.99601E-002	2.61072E-001	3.57790E+000	9	...........
	1	0.026667	2.83688E-001	1.00618E-004	0.00000E+000	2.85441E-005	5.99601E-002	2.83753E-001	3.57790E+000	9	...........
	2	0.04	3.04773E-001	1.00868E-004	0.00000E+000	3.07418E-005	5.99601E-002	3.04841E-001	3.57790E+000	9	...........
	3	0.053333	3.24636E-001	1.00992E-004	0.00000E+000	3.27856E-005	5.99601E-002	3.24701E-001	3.57790E+000	9	...........
	4	0.066667	3.43481E-001	1.00145E-004	0.00000E+000	3.43978E-005	5.99601E-002	3.43549E-001	3.57790E+000	9	...........
	5	0.08	3.61485E-001	1.01724E-004	0.00000E+000	3.67718E-005	5.99601E-002	3.61561E-001	3.57790E+000	9	...........
	6	0.093333	3.78749E-001	1.01612E-004	0.00000E+000	3.84854E-005	5.99601E-002	3.78831E-001	3.57790E+000	9	...........
	7	0.106667	3.95389E-001	1.00938E-004	0.00000E+000	3.99097E-005	5.99601E-002	3.95466E-001	3.57790E+000	9	...........
	8	0.12	4.11465E-001	1.01676E-004	0.00000E+000	4.18363E-005	5.99601E-002	4.11554E-001	3.57790E+000	9	...........
	9	0.133333	4.27058E-001	1.01217E-004	0.00000E+000	4.32255E-005	5.99601E-002	4.27149E-001	3.57790E+000	9	...........
	10	0.146667	4.42206E-001	1.00576E-004	0.00000E+000	4.44753E-005	5.99601E-002	4.42295E-001	3.57790E+000	9	...........
	11	0.16	4.56956E-001	1.00569E-004	0.00000E+000	4.59555E-005	5.99601E-002	4.57058E-001	3.57790E+000	9	...........
	12	0.173333	4.71360E-001	1.01370E-004	0.00000E+000	4.77817E-005	5.99601E-002	4.71457E-001	3.57790E+000	9	...........
	13	0.186667	4.85430E-001	1.00811E-004	0.00000E+000	4.89365E-005	5.99601E-002	4.85528E-001	3.57790E+000	9	...........
	14	0.2	4.99190E-001	1.00581E-004	0.00000E+000	5.02092E-005	5.99601E-002	4.99295E-001	3.57790E+000	9	...........
	15	0.213333	5.12673E-001	1.00869E-004	0.00000E+000	5.17128E-005	5.99601E-002	5.12780E-001	3.57790E+000	9	...........
	16	0.226667	5.25884E-001	1.00544E-004	0.00000E+000	5.28744E-005	5.99601E-002	5.26000E-001	3.57790E+000	9	...........
	17	0.24	5.38570E-001	1.00851E-004	0.00000E+000	5.43154E-005	5.99601E-002	5.38774E-001	3.57790E+000	9	...........
	18	0.253333	5.51234E-001	1.00854E-004	0.00000E+000	5.55943E-005	5.99601E-002	5.51499E-001	3.57790E+000	9	...........
	19	0.266667	5.63761E-001	1.01148E-004	0.00000E+000	5.70233E-005	5.99601E-002	5.64011E-001	3.57790E+000	9	...........
	20	0.28	5.76052E-001	1.00635E-004	0.00000E+000	5.79713E-005	5.99601E-002	5.76301E-001	3.57790E+000	9	...........
	21	0.293333	5.88114E-001	1.00096E-004	0.00000E+000	5.88677E-005	5.99601E-002	5.88390E-001	3.57790E+000	9	...........
	22	0.306667	5.99996E-001	1.01209E-004	0.00000E+000	6.07247E-005	5.99601E-002	6.00256E-001	3.57790E+000	9	...........
	23	0.32	6.11649E-001	1.00465E-004	0.00000E+000	6.14490E-005	5.99601E-002	6.11922E-001	3.57790E+000	9	...........
	24	0.333333	6.23189E-001	1.01232E-004	0.00000E+000	6.30870E-005	5.99601E-002	6.23412E-001	3.57790E+000	9	...........
	25	0.346667	6.34466E-001	1.01319E-004	0.00000E+000	6.42834E-005	5.99601E-002	6.34693E-001	3.57790E+000	9	...........
	26	0.36	6.45594E-001	1.00426E-004	0.00000E+000	6.48344E-005	5.99601E-002	6.45811E-001	3.57790E+000	9	...........
	27	0.373333	6.56522E-001	1.00682E-004	0.00000E+000	6.61001E-005	5.99601E-002	6.56757E-001	3.57790E+000	9	...........
	28	0.386667	6.67298E-001	1.00921E-004	0.00000E+000	6.73444E-005	5.99601E-002	6.67558E-001	3.57790E+000	9	...........
	29	0.4	6.77892E-001	1.01324E-004	0.00000E+000	6.86868E-005	5.99601E-002	6.78149E-001	3.57790E+000	9	...........
	30	0.413333	6.88306E-001	1.00852E-004	0.00000E+000	6.94171E-005	5.99601E-002	6.88542E-001	3.57790E+000	9	...........
	31	0.426667	6.98550E-001	1.01185E-004	0.00000E+000	7.06824E-005	5.99601E-002	6.98781E-001	3.57790E+000	9	...........
	32	0.44	7.08606E-001	1.00571E-004	0.00000E+000	7.12651E-005	5.99601E-002	7.08855E-001	3.57790E+000	9	...........
	33	0.453333	7.18518E-001	1.01535E-004	0.00000E+000	7.29545E-005	5.99601E-002	7.18776E-001	3.57790E+000	9	...........
	34	0.466667	7.28247E-001	1.01073E-004	0.00000E+000	7.36061E-005	5.99601E-002	7.28506E-001	3.57790E+000	9	...........
	35	0.48	7.37779E-001	1.00679E-004	0.00000E+000	7.42790E-005	5.99601E-002	7.38038E-001	3.57790E+000	9	...........
	36	0.493333	7.47158E-001	1.01257E-004	0.00000E+000	7.56553E-005	5.99601E-002	7.47444E-001	3.57790E+000	9	...........
	37	0.506667	7.56366E-001	1.00991E-004	0.00000E+000	7.63860E-005	5.99601E-002	7.56624E-001	3.57790E+000	9	...........
	38	0.52	7.65376E-001	1.01013E-004	0.00000E+000	7.73126E-005	5.99601E-002	7.65657E-001	3.57790E+000	9	...........
	39	0.533333	7.74224E-001	1.00923E-004	0.00000E+000	7.81370E-005	5.99601E-002	7.74497E-001	3.57790E+000	9	...........
	40	0.546667	7.82901E-001	1.01433E-004	0.00000E+000	7.94116E-005	5.99601E-002	7.83187E-001	3.57790E+000	9	...........
	41	0.56	7.91396E-001	1.00958E-004	0.00000E+000	7.98982E-005	5.99601E-002	7.91679E-001	3.57790E+000	9	...........
	42	0.573333	7.99703E-001	1.00851E-004	0.00000E+000	8.06510E-005	5.99601E-002	7.99976E-001	3.57790E+000	9	...........
	43	0.586667	8.07832E-001	1.00331E-004	0.00000E+000	8.10508E-005	5.99601E-002	8.08132E-001	3.57790E+000	9	...........
	44	0.6	8.15774E-001	1.01361E-004	0.00000E+000	8.26874E-005	5.99601E-002	8.16092E-001	3.57790E+000	9	...........
	45	0.613333	8.23576E-001	1.01299E-004	0.00000E+000	8.34275E-005	5.99601E-002	8.23890E-001	3.57790E+000	9	...........
	46	0.626667	8.31165E-001	1.01206E-004	0.00000E+000	8.41192E-005	5.99601E-002	8.31481E-001	3.57790E+000	9	...........
	47	0.64	8.38580E-001	1.00681E-004	0.00000E+000	8.44294E-005	5.99601E-002	8.38897E-001	3.57790E+000	9	...........
	48	0.653333	8.45849E-001	1.01720E-004	0.00000E+000	8.60398E-005	5.99601E-002	8.46176E-001	3.57790E+000	9	...........
	49	0.666667	8.52939E-001	1.00171E-004	0.00000E+000	8.54396E-005	5.99601E-002	8.53264E-001	3.57790E+000	9	...........
	50	0.68	8.59814E-001	1.00651E-004	0.00000E+000	8.65413E-005	5.99601E-002	8.60161E-001	3.57790E+000	9	...........
	51	0.693333	8.66555E-001	1.01154E-004	0.00000E+000	8.76558E-005	5.99601E-002	8.66854E-001	3.57790E+000	9	...........
	52	0.706667	8.73138E-001	1.01028E-004	0.00000E+000	8.82116E-005	5.99601E-002	8.73448E-001	3.57790E+000	9	...........
	53	0.72	8.79528E-001	1.01269E-004	0.00000E+000	8.90688E-005	5.99601E-002	8.79826E-001	3.57790E+000	9	...........
	54	0.733333	8.85761E-001	1.00516E-004	0.00000E+000	8.90329E-005	5.99601E-002	8.86078E-001	3.57790E+000	9	...........
	55	0.746667	8.91792E-001	1.00640E-004	0.00000E+000	8.97497E-005	5.99601E-002	8.92134E-001	3.57790E+000	9	...........
	56	0.76	8.97673E-001	1.01146E-004	0.00000E+000	9.07961E-005	5.99601E-002	8.98039E-001	3.57790E+000	9	...........
	57	0.773333	9.03380E-001	1.00873E-004	0.00000E+000	9.11267E-005	5.99601E-002	9.03759E-001	3.57836E+000	9	...........
	58	0.786667	9.08985E-001	1.01037E-004	0.00000E+000	9.18407E-005	5.99601E-002	9.09308E-001	3.57870E+000	9	...........
	59	0.8	9.14401E-001	1.01112E-004	0.00000E+000	9.24565E-005	5.99601E-002	9.14710E-001	3.57870E+000	9	...........
	60	0.813333	9.19660E-001	1.00207E-004	0.00000E+000	9.21566E-005	5.99601E-002	9.19984E-001	3.57870E+000	9	...........
	61	0.826667	9.24807E-001	1.00534E-004	0.00000E+000	9.29749E-005	5.99601E-002	9.25112E-001	3.57870E+000	9	...........
	62	0.84	9.29776E-001	1.00734E-004	0.00000E+000	9.36605E-005	5.99601E-002	9.30084E-001	3.57870E+000	9	...........
	63	0.853333	9.34622E-001	1.00965E-004	0.00000E+000	9.43638E-005	5.99601E-002	9.34937E-001	3.57870E+000	9	...........
	64	0.866667	9.39304E-001	1.00458E-004	0.00000E+000	9.43609E-005	5.99601E-002	9.39649E-001	3.57870E+000	9	...........
	65	0.88	9.43879E-001	1.01018E-004	0.00000E+000	9.53486E-005	5.99601E-002	9.44193E-001	3.57870E+000	9	...........
	66	0.893333	9.48399E-001	1.00671E-004	0.00000E+000	9.54762E-005	5.99601E-002	9.48649E-001	3.57870E+000	9	...........
	67	0.906667	9.52754E-001	1.00446E-004	0.00000E+000	9.57001E-005	5.99601E-002	9.52998E-001	3.57870E+000	9	...........
	68	0.92	9.56975E-001	1.00866E-004	0.00000E+000	9.65260E-005	5.99601E-002	9.57258E-001	3.57870E+000	9	...........
	69	0.933333	9.61103E-001	1.01574E-004	0.00000E+000	9.76233E-005	5.99601E-002	9.61411E-001	3.57870E+000	9	...........
	70	0.946667	9.65141E-001	1.00856E-004	0.00000E+000	9.73406E-005	5.99601E-002	9.65456E-001	3.57870E+000	9	...........
	71	0.96	9.69095E-001	1.00987E-004	0.00000E+000	9.78656E-005	5.99601E-002	9.69428E-001	3.57870E+000	9	...........
	72	0.97333	9.72956E-001	1.01374E-004	0.00000E+000	9.86326E-005	5.99601E-002	9.73316E-001	3.57870E+000	9	...........
	73	0.98667	9.76726E-001	1.00880E-004	0.00000E+000	9.85324E-005	5.99601E-002	9.77105E-001	3.57870E+000	9	...........
	74	1	9.80411E-001	1.01409E-004	0.00000E+000	9.94221E-005	5.99601E-002	9.80778E-001	3.57870E+000	9	...........
	75	1.01333	9.84008E-001	1.01303E-004	0.00000E+000	9.96832E-005	5.99601E-002	9.84372E-001	3.57870E+000	9	...........
	76	1.02667	9.87491E-001	1.00913E-004	0.00000E+000	9.96503E-005	5.99601E-002	9.87871E-001	3.57870E+000	9	...........
	77	1.04	9.90916E-001	1.01503E-004	0.00000E+000	1.00581E-004	5.99601E-002	9.91280E-001	3.57870E+000	9	...........
	78	1.05333	9.94208E-001	1.00857E-004	0.00000E+000	1.00273E-004	5.99601E-002	9.94604E-001	3.57870E+000	9	...........
	79	1.06667	9.97451E-001	1.01493E-004	0.00000E+000	1.01234E-004	5.99601E-002	9.97839E-001	3.57870E+000	9	...........
	80	1.07167	9.99656E-001	1.00142E-004	0.00000E+000	1.00108E-004	5.99601E-002	1.00005E+000	3.57870E+000	9	...........
STARTTIMEOFFSET	QUANT	171.915	Start Time Offset (s)
