EXPLAIN
TAG	PWR800_CHARGE
TITLE	LABEL	PWR Cyclic Charge Discharge (Cell) - Charge Step	Test &Identifier
DATE	LABEL	12-7-2017	Date
TIME	LABEL	16:12:57	Time
NOTES	NOTES	2	&Notes...
	supercap test cell
	6M KOH
PSTAT	PSTAT	IFC5000-01520	Potentiostat
CAPACITY	QUANT	1.00000E-003	Capacity (A-hr)
CELLTYPE	SELECTOR	1	&Cell Type
WORKINGCONNECTION	SELECTOR	0	&Working Lead
MAXCHARGETIME	VARIABLEANDUNITS	1.00000E+002	s	1.00000E+002	second(s)	Max &Charge Time
CHARGECURRENT	QUANT	1.00000E-004	&Charge Current (A) 
VOLTAGEFINISH	TWOPARAM	F	1.00000E-003	3.60000E+003	&Voltage Finish	 I (A) < 	Max Time(s)
SAMPLETIME	QUANT	1.00000E-002	Sa&mple Period (s)
CHARGESTOPAT1	MULTIPARAM	4	1.00000E+000	Charge Stop At &1	Voltage > Limit	V
CHARGESTOPAT2	MULTIPARAM	0	0.00000E+000	Charge Stop At &2	None	N/A
AESBHCSELECTOR	TOGGLE	F	Save Both Half Cells
IRCOMP	TOGGLE	F	IR &Measure
EOC	QUANT	0	Open Circuit (V)
SEQUENCER	TOGGLE	TRUE	Run as Sequence
PSTATMODEL	IQUANT	53	Pstat Model
PSTATSECTION	LABEL	IFC5000-01520	Pstat Section
PSTATSERIALNO	LABEL	01520	Pstat Serial Number
CTRLMODE	IQUANT	0	Control Mode
ELECTROMETER	IQUANT	1	RE=0 or CS=1
IESTAB	IQUANT	0	I/E Stability
CASPEED	IQUANT	4	Control Amp Speed
CONVENTION	IQUANT	1	Current Convention
ICHRANGE	IQUANT	2	Ich Range
ICHRANGEMODE	TOGGLE	T	Ich Auto Range
ICHOFFSETENABLE	TOGGLE	F	Ich Offset Enable
ICHOFFSET	QUANT	0	Ich Offset (V)
ICHFILTER	IQUANT	1	Ich Filter
VCHRANGE	IQUANT	2	Vch Range
VCHRANGEMODE	TOGGLE	T	Vch Auto Range
VCHOFFSETENABLE	TOGGLE	F	Vch Offset Enable
VCHOFFSET	QUANT	0	Vch Offset (V)
VCHFILTER	IQUANT	1	Vch Filter
IERANGELOWERLIMIT	IQUANT	9	I/E Range Lower Limit
IERANGEMODE	TOGGLE	F	I/E AutoRange
IERANGE	IQUANT	9	I/E Range
ACHSELECT	IQUANT	1	Ach Select
ACHRANGE	IQUANT	2	Ach Range
ACHOFFSETENABLE	TOGGLE	F	Ach Offset Enable
ACHOFFSET	QUANT	0	Ach Offset (V)
ACHFILTER	IQUANT	1	Ach Filter
CABLEID	IQUANT	14	Cable ID
DCCALDATE	LABEL	5-7-2017	DC Calibration Date
ACCALDATE	LABEL	12/3/2015	AC Calibration Date
FRAMEWORKVERSION	QUANT	7.01	Framework Version
INSTRUMENTVERSION	LABEL	4.00	Instrument Version
CURVE	TABLE	82
	Pt	T	Vf	Im	Vu	Pwr	Sig	Ach	Temp	IERange	Over
	#	s	V	A	V	W	V	V	deg C	#	bits
	0	0.013333	2.64331E-001	1.00923E-004	0.00000E+000	2.66771E-005	5.99601E-002	2.64406E-001	3.57720E+000	9	...........
	1	0.026667	2.86841E-001	1.00322E-004	0.00000E+000	2.87764E-005	5.99601E-002	2.86902E-001	3.57739E+000	9	...........
	2	0.04	3.07739E-001	1.01191E-004	0.00000E+000	3.11404E-005	5.99601E-002	3.07806E-001	3.57770E+000	9	...........
	3	0.053333	3.27405E-001	1.00807E-004	0.00000E+000	3.30048E-005	5.99601E-002	3.27468E-001	3.57770E+000	9	...........
	4	0.066667	3.46042E-001	1.00713E-004	0.00000E+000	3.48508E-005	5.99601E-002	3.46115E-001	3.57770E+000	9	...........
	5	0.08	3.63819E-001	1.01054E-004	0.00000E+000	3.67655E-005	5.99601E-002	3.63896E-001	3.57770E+000	9	...........
	6	0.093333	3.80847E-001	1.00683E-004	0.00000E+000	3.83449E-005	5.99601E-002	3.80925E-001	3.57770E+000	9	...........
	7	0.106667	3.97217E-001	1.00998E-004	0.00000E+000	4.01182E-005	5.99601E-002	3.97301E-001	3.57770E+000	9	...........
	8	0.12	4.13017E-001	1.00678E-004	0.00000E+000	4.15818E-005	5.99601E-002	4.13103E-001	3.57770E+000	9	...........
	9	0.133333	4.28311E-001	1.00229E-004	0.00000E+000	4.29292E-005	5.99601E-002	4.28397E-001	3.57770E+000	9	...........
	10	0.146667	4.43138E-001	1.01068E-004	0.00000E+000	4.47870E-005	5.99601E-002	4.43234E-001	3.57770E+000	9	...........
	11	0.16	4.57566E-001	1.00886E-004	0.00000E+000	4.61618E-005	5.99601E-002	4.57665E-001	3.57770E+000	9	...........
	12	0.173333	4.71630E-001	1.00720E-004	0.00000E+000	4.75025E-005	5.99601E-002	4.71728E-001	3.57770E+000	9	...........
	13	0.186667	4.85363E-001	1.00455E-004	0.00000E+000	4.87573E-005	5.99601E-002	4.85462E-001	3.57770E+000	9	...........
	14	0.2	4.98780E-001	1.01429E-004	0.00000E+000	5.05910E-005	5.99601E-002	4.98893E-001	3.57770E+000	9	...........
	15	0.213333	5.11926E-001	1.00572E-004	0.00000E+000	5.14854E-005	5.99601E-002	5.12039E-001	3.57770E+000	9	...........
	16	0.226667	5.24800E-001	1.01016E-004	0.00000E+000	5.30131E-005	5.99601E-002	5.24920E-001	3.57770E+000	9	...........
	17	0.24	5.37208E-001	1.00859E-004	0.00000E+000	5.41825E-005	5.99601E-002	5.37392E-001	3.57770E+000	9	...........
	18	0.253333	5.49505E-001	1.00685E-004	0.00000E+000	5.53271E-005	5.99601E-002	5.49749E-001	3.57770E+000	9	...........
	19	0.266667	5.61705E-001	1.00333E-004	0.00000E+000	5.63578E-005	5.99601E-002	5.61942E-001	3.57770E+000	9	...........
	20	0.28	5.73671E-001	1.01329E-004	0.00000E+000	5.81297E-005	5.99601E-002	5.73903E-001	3.57770E+000	9	...........
	21	0.293333	5.85443E-001	1.01572E-004	0.00000E+000	5.94647E-005	5.99601E-002	5.85710E-001	3.57770E+000	9	...........
	22	0.306667	5.97038E-001	1.00634E-004	0.00000E+000	6.00826E-005	5.99601E-002	5.97293E-001	3.57770E+000	9	...........
	23	0.32	6.08388E-001	1.00958E-004	0.00000E+000	6.14219E-005	5.99601E-002	6.08676E-001	3.57770E+000	9	...........
	24	0.333333	6.19663E-001	1.01121E-004	0.00000E+000	6.26609E-005	5.99601E-002	6.19881E-001	3.57770E+000	9	...........
	25	0.346667	6.30667E-001	1.00997E-004	0.00000E+000	6.36955E-005	5.99601E-002	6.30901E-001	3.57770E+000	9	...........
	26	0.36	6.41535E-001	1.00837E-004	0.00000E+000	6.46902E-005	5.99601E-002	6.41768E-001	3.57770E+000	9	...........
	27	0.373333	6.52245E-001	1.00139E-004	0.00000E+000	6.53148E-005	5.99601E-002	6.52467E-001	3.57770E+000	9	...........
	28	0.386667	6.62773E-001	1.01139E-004	0.00000E+000	6.70320E-005	5.99601E-002	6.63013E-001	3.57770E+000	9	...........
	29	0.4	6.73163E-001	1.00987E-004	0.00000E+000	6.79804E-005	5.99601E-002	6.73403E-001	3.57770E+000	9	...........
	30	0.413333	6.83357E-001	1.00459E-004	0.00000E+000	6.86496E-005	5.99601E-002	6.83619E-001	3.57770E+000	9	...........
	31	0.426667	6.93401E-001	1.00379E-004	0.00000E+000	6.96031E-005	5.99601E-002	6.93650E-001	3.57770E+000	9	...........
	32	0.44	7.03314E-001	1.00754E-004	0.00000E+000	7.08619E-005	5.99601E-002	7.03560E-001	3.57770E+000	9	...........
	33	0.453333	7.13021E-001	1.01668E-004	0.00000E+000	7.24914E-005	5.99601E-002	7.13294E-001	3.57770E+000	9	...........
	34	0.466667	7.22625E-001	1.01541E-004	0.00000E+000	7.33760E-005	5.99601E-002	7.22864E-001	3.57770E+000	9	...........
	35	0.48	7.32035E-001	1.00761E-004	0.00000E+000	7.37602E-005	5.99601E-002	7.32290E-001	3.57770E+000	9	...........
	36	0.493333	7.41307E-001	1.01106E-004	0.00000E+000	7.49509E-005	5.99601E-002	7.41551E-001	3.57770E+000	9	...........
	37	0.506667	7.50403E-001	1.01673E-004	0.00000E+000	7.62958E-005	5.99601E-002	7.50644E-001	3.57770E+000	9	...........
	38	0.52	7.59340E-001	1.00650E-004	0.00000E+000	7.64276E-005	5.99601E-002	7.59591E-001	3.57770E+000	9	...........
	39	0.533333	7.68108E-001	1.01023E-004	0.00000E+000	7.75966E-005	5.99601E-002	7.68381E-001	3.57770E+000	9	...........
	40	0.546667	7.76729E-001	1.01074E-004	0.00000E+000	7.85071E-005	5.99601E-002	7.77000E-001	3.57770E+000	9	...........
	41	0.56	7.85184E-001	1.00723E-004	0.00000E+000	7.90861E-005	5.99601E-002	7.85452E-001	3.57770E+000	9	...........
	42	0.573333	7.93480E-001	1.01967E-004	0.00000E+000	8.09088E-005	5.99601E-002	7.93750E-001	3.57770E+000	9	...........
	43	0.586667	8.01589E-001	1.01177E-004	0.00000E+000	8.11026E-005	5.99601E-002	8.01862E-001	3.57770E+000	9	...........
	44	0.6	8.09534E-001	1.00538E-004	0.00000E+000	8.13886E-005	5.99601E-002	8.09826E-001	3.57770E+000	9	...........
	45	0.613333	8.17334E-001	1.01245E-004	0.00000E+000	8.27509E-005	5.99601E-002	8.17642E-001	3.57770E+000	9	...........
	46	0.626667	8.24975E-001	1.01024E-004	0.00000E+000	8.33424E-005	5.99601E-002	8.25293E-001	3.57770E+000	9	...........
	47	0.64	8.32419E-001	1.00837E-004	0.00000E+000	8.39383E-005	5.99601E-002	8.32723E-001	3.57770E+000	9	...........
	48	0.653333	8.39708E-001	1.01179E-004	0.00000E+000	8.49611E-005	5.99601E-002	8.40037E-001	3.57770E+000	9	...........
	49	0.666667	8.46857E-001	1.00397E-004	0.00000E+000	8.50218E-005	5.99601E-002	8.47194E-001	3.57770E+000	9	...........
	50	0.68	8.53811E-001	1.00571E-004	0.00000E+000	8.58685E-005	5.99601E-002	8.54152E-001	3.57770E+000	9	...........
	51	0.693333	8.60623E-001	1.00248E-004	0.00000E+000	8.62757E-005	5.99601E-002	8.60962E-001	3.57770E+000	9	...........
	52	0.706667	8.67248E-001	1.01146E-004	0.00000E+000	8.77187E-005	5.99601E-002	8.67602E-001	3.57770E+000	9	...........
	53	0.72	8.73744E-001	1.01255E-004	0.00000E+000	8.84713E-005	5.99601E-002	8.74106E-001	3.57770E+000	9	...........
	54	0.733333	8.80069E-001	1.01160E-004	0.00000E+000	8.90274E-005	5.99601E-002	8.80402E-001	3.57770E+000	9	...........
	55	0.746667	8.86248E-001	1.00522E-004	0.00000E+000	8.90873E-005	5.99601E-002	8.86594E-001	3.57770E+000	9	...........
	56	0.76	8.92232E-001	1.01247E-004	0.00000E+000	9.03359E-005	5.99601E-002	8.92579E-001	3.57770E+000	9	...........
	57	0.773333	8.98123E-001	1.01321E-004	0.00000E+000	9.09988E-005	5.99601E-002	8.98448E-001	3.57770E+000	9	...........
	58	0.786667	9.03797E-001	1.01325E-004	0.00000E+000	9.15774E-005	5.99601E-002	9.04149E-001	3.57770E+000	9	...........
	59	0.8	9.09356E-001	1.00740E-004	0.00000E+000	9.16082E-005	5.99601E-002	9.09702E-001	3.57770E+000	9	...........
	60	0.813333	9.14744E-001	1.01477E-004	0.00000E+000	9.28258E-005	5.99601E-002	9.15084E-001	3.57770E+000	9	...........
	61	0.826667	9.20021E-001	1.01435E-004	0.00000E+000	9.33220E-005	5.99601E-002	9.20369E-001	3.57770E+000	9	...........
	62	0.84	9.25152E-001	1.00666E-004	0.00000E+000	9.31311E-005	5.99601E-002	9.25478E-001	3.57770E+000	9	...........
	63	0.853333	9.30150E-001	1.00849E-004	0.00000E+000	9.38048E-005	5.99601E-002	9.30460E-001	3.57770E+000	9	...........
	64	0.866667	9.34986E-001	1.00698E-004	0.00000E+000	9.41512E-005	5.99601E-002	9.35300E-001	3.57770E+000	9	...........
	65	0.88	9.39661E-001	1.00559E-004	0.00000E+000	9.44918E-005	5.99601E-002	9.40011E-001	3.57770E+000	9	...........
	66	0.893333	9.44250E-001	1.01299E-004	0.00000E+000	9.56518E-005	5.99601E-002	9.44600E-001	3.57770E+000	9	...........
	67	0.906667	9.48752E-001	1.00757E-004	0.00000E+000	9.55938E-005	5.99601E-002	9.49088E-001	3.57770E+000	9	...........
	68	0.92	9.53092E-001	1.01231E-004	0.00000E+000	9.64829E-005	5.99601E-002	9.53430E-001	3.57770E+000	9	...........
	69	0.933333	9.57319E-001	1.01142E-004	0.00000E+000	9.68250E-005	5.99601E-002	9.57671E-001	3.57770E+000	9	...........
	70	0.946667	9.61439E-001	1.01359E-004	0.00000E+000	9.74501E-005	5.99601E-002	9.61801E-001	3.57770E+000	9	...........
	71	0.96	9.65463E-001	1.00140E-004	0.00000E+000	9.66811E-005	5.99601E-002	9.65804E-001	3.57770E+000	9	...........
	72	0.97333	9.69388E-001	1.00529E-004	0.00000E+000	9.74518E-005	5.99601E-002	9.69714E-001	3.57770E+000	9	...........
	73	0.98667	9.73256E-001	1.00797E-004	0.00000E+000	9.81013E-005	5.99601E-002	9.73581E-001	3.57770E+000	9	...........
	74	1	9.77020E-001	1.01259E-004	0.00000E+000	9.89316E-005	5.99601E-002	9.77321E-001	3.57770E+000	9	...........
	75	1.01333	9.80650E-001	1.01433E-004	0.00000E+000	9.94698E-005	5.99601E-002	9.80958E-001	3.57770E+000	9	...........
	76	1.02667	9.84199E-001	1.01273E-004	0.00000E+000	9.96729E-005	5.99601E-002	9.84540E-001	3.57766E+000	9	...........
	77	1.04	9.87666E-001	1.01102E-004	0.00000E+000	9.98553E-005	5.99601E-002	9.88035E-001	3.57760E+000	9	...........
	78	1.05333	9.91058E-001	1.00866E-004	0.00000E+000	9.99638E-005	5.99601E-002	9.91424E-001	3.57760E+000	9	...........
	79	1.06667	9.94356E-001	1.01259E-004	0.00000E+000	1.00687E-004	5.99601E-002	9.94730E-001	3.57760E+000	9	...........
	80	1.08	9.97578E-001	1.00250E-004	0.00000E+000	1.00007E-004	5.99601E-002	9.97945E-001	3.57760E+000	9	...........
	81	1.085	9.99743E-001	1.02573E-004	0.00000E+000	1.02547E-004	5.99601E-002	1.00011E+000	3.57760E+000	9	...........
STARTTIMEOFFSET	QUANT	122.9667	Start Time Offset (s)
