EXPLAIN
TAG	PWR800_CHARGE
TITLE	LABEL	PWR Cyclic Charge Discharge (Cell) - Charge Step	Test &Identifier
DATE	LABEL	12-7-2017	Date
TIME	LABEL	16:39:03	Time
NOTES	NOTES	2	&Notes...
	supercap test cell
	6M KOH
PSTAT	PSTAT	IFC5000-01520	Potentiostat
CAPACITY	QUANT	1.00000E-003	Capacity (A-hr)
CELLTYPE	SELECTOR	1	&Cell Type
WORKINGCONNECTION	SELECTOR	0	&Working Lead
MAXCHARGETIME	VARIABLEANDUNITS	1.00000E+002	s	1.00000E+002	second(s)	Max &Charge Time
CHARGECURRENT	QUANT	1.00000E-004	&Charge Current (A) 
VOLTAGEFINISH	TWOPARAM	F	1.00000E-003	3.60000E+003	&Voltage Finish	 I (A) < 	Max Time(s)
SAMPLETIME	QUANT	1.00000E-002	Sa&mple Period (s)
CHARGESTOPAT1	MULTIPARAM	4	1.00000E+000	Charge Stop At &1	Voltage > Limit	V
CHARGESTOPAT2	MULTIPARAM	0	0.00000E+000	Charge Stop At &2	None	N/A
AESBHCSELECTOR	TOGGLE	F	Save Both Half Cells
IRCOMP	TOGGLE	F	IR &Measure
EOC	QUANT	0	Open Circuit (V)
SEQUENCER	TOGGLE	TRUE	Run as Sequence
PSTATMODEL	IQUANT	53	Pstat Model
PSTATSECTION	LABEL	IFC5000-01520	Pstat Section
PSTATSERIALNO	LABEL	01520	Pstat Serial Number
CTRLMODE	IQUANT	0	Control Mode
ELECTROMETER	IQUANT	1	RE=0 or CS=1
IESTAB	IQUANT	0	I/E Stability
CASPEED	IQUANT	4	Control Amp Speed
CONVENTION	IQUANT	1	Current Convention
ICHRANGE	IQUANT	2	Ich Range
ICHRANGEMODE	TOGGLE	T	Ich Auto Range
ICHOFFSETENABLE	TOGGLE	F	Ich Offset Enable
ICHOFFSET	QUANT	0	Ich Offset (V)
ICHFILTER	IQUANT	1	Ich Filter
VCHRANGE	IQUANT	2	Vch Range
VCHRANGEMODE	TOGGLE	T	Vch Auto Range
VCHOFFSETENABLE	TOGGLE	F	Vch Offset Enable
VCHOFFSET	QUANT	0	Vch Offset (V)
VCHFILTER	IQUANT	1	Vch Filter
IERANGELOWERLIMIT	IQUANT	9	I/E Range Lower Limit
IERANGEMODE	TOGGLE	F	I/E AutoRange
IERANGE	IQUANT	9	I/E Range
ACHSELECT	IQUANT	1	Ach Select
ACHRANGE	IQUANT	2	Ach Range
ACHOFFSETENABLE	TOGGLE	F	Ach Offset Enable
ACHOFFSET	QUANT	0	Ach Offset (V)
ACHFILTER	IQUANT	1	Ach Filter
CABLEID	IQUANT	14	Cable ID
DCCALDATE	LABEL	5-7-2017	DC Calibration Date
ACCALDATE	LABEL	12/3/2015	AC Calibration Date
FRAMEWORKVERSION	QUANT	7.01	Framework Version
INSTRUMENTVERSION	LABEL	4.00	Instrument Version
CURVE	TABLE	76
	Pt	T	Vf	Im	Vu	Pwr	Sig	Ach	Temp	IERange	Over
	#	s	V	A	V	W	V	V	deg C	#	bits
	0	0.013333	2.59621E-001	1.00694E-004	0.00000E+000	2.61423E-005	5.99601E-002	2.59702E-001	3.57790E+000	9	...........
	1	0.026667	2.82573E-001	1.01046E-004	0.00000E+000	2.85529E-005	5.99601E-002	2.82637E-001	3.57790E+000	9	...........
	2	0.04	3.04261E-001	1.00745E-004	0.00000E+000	3.06528E-005	5.99601E-002	3.04324E-001	3.57790E+000	9	...........
	3	0.053333	3.25016E-001	1.00703E-004	0.00000E+000	3.27302E-005	5.99601E-002	3.25081E-001	3.57790E+000	9	...........
	4	0.066667	3.45038E-001	1.02039E-004	0.00000E+000	3.52073E-005	5.99601E-002	3.45109E-001	3.57790E+000	9	...........
	5	0.08	3.64447E-001	1.00715E-004	0.00000E+000	3.67052E-005	5.99601E-002	3.64527E-001	3.57790E+000	9	...........
	6	0.093333	3.83324E-001	1.00419E-004	0.00000E+000	3.84929E-005	5.99601E-002	3.83407E-001	3.57790E+000	9	...........
	7	0.106667	4.01719E-001	9.91300E-005	0.00000E+000	3.98224E-005	5.99601E-002	4.01799E-001	3.57790E+000	9	...........
	8	0.12	4.19668E-001	1.00228E-004	0.00000E+000	4.20625E-005	5.99601E-002	4.19762E-001	3.57790E+000	9	...........
	9	0.133333	4.37215E-001	1.01853E-004	0.00000E+000	4.45319E-005	5.99601E-002	4.37310E-001	3.57790E+000	9	...........
	10	0.146667	4.54368E-001	1.01544E-004	0.00000E+000	4.61383E-005	5.99601E-002	4.54460E-001	3.57790E+000	9	...........
	11	0.16	4.71139E-001	1.01207E-004	0.00000E+000	4.76828E-005	5.99601E-002	4.71236E-001	3.57790E+000	9	...........
	12	0.173333	4.87538E-001	1.00372E-004	0.00000E+000	4.89351E-005	5.99601E-002	4.87640E-001	3.57790E+000	9	...........
	13	0.186667	5.03585E-001	1.00804E-004	0.00000E+000	5.07635E-005	5.99601E-002	5.03693E-001	3.57790E+000	9	...........
	14	0.2	5.19291E-001	1.01380E-004	0.00000E+000	5.26460E-005	5.99601E-002	5.19408E-001	3.57790E+000	9	...........
	15	0.213333	5.34501E-001	1.01392E-004	0.00000E+000	5.41941E-005	5.99601E-002	5.34686E-001	3.57790E+000	9	...........
	16	0.226667	5.49376E-001	1.00608E-004	0.00000E+000	5.52718E-005	5.99601E-002	5.49630E-001	3.57790E+000	9	...........
	17	0.24	5.64089E-001	1.00916E-004	0.00000E+000	5.69254E-005	5.99601E-002	5.64355E-001	3.57790E+000	9	...........
	18	0.253333	5.78460E-001	1.01747E-004	0.00000E+000	5.88567E-005	5.99601E-002	5.78720E-001	3.57790E+000	9	...........
	19	0.266667	5.92549E-001	1.00840E-004	0.00000E+000	5.97525E-005	5.99601E-002	5.92793E-001	3.57790E+000	9	...........
	20	0.28	6.06262E-001	1.01363E-004	0.00000E+000	6.14523E-005	5.99601E-002	6.06530E-001	3.57790E+000	9	...........
	21	0.293333	6.19753E-001	1.01900E-004	0.00000E+000	6.31530E-005	5.99601E-002	6.19968E-001	3.57790E+000	9	...........
	22	0.306667	6.32838E-001	1.01448E-004	0.00000E+000	6.42002E-005	5.99601E-002	6.33068E-001	3.57790E+000	9	...........
	23	0.32	6.45660E-001	1.01505E-004	0.00000E+000	6.55380E-005	5.99601E-002	6.45901E-001	3.57790E+000	9	...........
	24	0.333333	6.58165E-001	1.01895E-004	0.00000E+000	6.70638E-005	5.99601E-002	6.58405E-001	3.57790E+000	9	...........
	25	0.346667	6.70377E-001	1.00352E-004	0.00000E+000	6.72737E-005	5.99601E-002	6.70613E-001	3.57790E+000	9	...........
	26	0.36	6.82286E-001	9.95477E-005	0.00000E+000	6.79200E-005	5.99601E-002	6.82537E-001	3.57790E+000	9	...........
	27	0.373333	6.93900E-001	1.01634E-004	0.00000E+000	7.05236E-005	5.99601E-002	6.94133E-001	3.57790E+000	9	...........
	28	0.386667	7.05223E-001	1.01186E-004	0.00000E+000	7.13584E-005	5.99601E-002	7.05464E-001	3.57790E+000	9	...........
	29	0.4	7.16232E-001	1.00681E-004	0.00000E+000	7.21112E-005	5.99601E-002	7.16511E-001	3.57745E+000	9	...........
	30	0.413333	7.27001E-001	1.00764E-004	0.00000E+000	7.32553E-005	5.99601E-002	7.27251E-001	3.57730E+000	9	...........
	31	0.426667	7.37440E-001	9.99312E-005	0.00000E+000	7.36933E-005	5.99601E-002	7.37708E-001	3.57730E+000	9	...........
	32	0.44	7.47648E-001	1.00233E-004	0.00000E+000	7.49392E-005	5.99601E-002	7.47901E-001	3.57730E+000	9	...........
	33	0.453333	7.57541E-001	9.94227E-005	0.00000E+000	7.53168E-005	5.99601E-002	7.57795E-001	3.57730E+000	9	...........
	34	0.466667	7.67151E-001	1.01139E-004	0.00000E+000	7.75887E-005	5.99601E-002	7.67455E-001	3.57730E+000	9	...........
	35	0.48	7.76548E-001	1.01310E-004	0.00000E+000	7.86718E-005	5.99601E-002	7.76820E-001	3.57730E+000	9	...........
	36	0.493333	7.85626E-001	1.01891E-004	0.00000E+000	8.00481E-005	5.99601E-002	7.85900E-001	3.57730E+000	9	...........
	37	0.506667	7.94494E-001	1.01824E-004	0.00000E+000	8.08988E-005	5.99601E-002	7.94761E-001	3.57730E+000	9	...........
	38	0.52	8.03083E-001	1.01339E-004	0.00000E+000	8.13835E-005	5.99601E-002	8.03342E-001	3.57730E+000	9	...........
	39	0.533333	8.11383E-001	1.00190E-004	0.00000E+000	8.12921E-005	5.99601E-002	8.11657E-001	3.57730E+000	9	...........
	40	0.546667	8.19471E-001	1.01232E-004	0.00000E+000	8.29570E-005	5.99601E-002	8.19755E-001	3.57730E+000	9	...........
	41	0.56	8.27301E-001	1.02083E-004	0.00000E+000	8.44531E-005	5.99601E-002	8.27575E-001	3.57730E+000	9	...........
	42	0.573333	8.34879E-001	1.00753E-004	0.00000E+000	8.41167E-005	5.99601E-002	8.35161E-001	3.57730E+000	9	...........
	43	0.586667	8.42213E-001	1.00598E-004	0.00000E+000	8.47249E-005	5.99601E-002	8.42506E-001	3.57730E+000	9	...........
	44	0.6	8.49353E-001	1.00330E-004	0.00000E+000	8.52157E-005	5.99601E-002	8.49654E-001	3.57730E+000	9	...........
	45	0.613333	8.56242E-001	1.00600E-004	0.00000E+000	8.61380E-005	5.99601E-002	8.56541E-001	3.57730E+000	9	...........
	46	0.626667	8.62910E-001	1.01328E-004	0.00000E+000	8.74373E-005	5.99601E-002	8.63231E-001	3.57730E+000	9	...........
	47	0.64	8.69414E-001	1.00488E-004	0.00000E+000	8.73653E-005	5.99601E-002	8.69719E-001	3.57730E+000	9	...........
	48	0.653333	8.75700E-001	9.98405E-005	0.00000E+000	8.74304E-005	5.99601E-002	8.76024E-001	3.57730E+000	9	...........
	49	0.666667	8.81792E-001	1.00518E-004	0.00000E+000	8.86358E-005	5.99601E-002	8.82122E-001	3.57730E+000	9	...........
	50	0.68	8.87733E-001	1.00539E-004	0.00000E+000	8.92514E-005	5.99601E-002	8.88032E-001	3.57730E+000	9	...........
	51	0.693333	8.93494E-001	1.01499E-004	0.00000E+000	9.06889E-005	5.99601E-002	8.93827E-001	3.57730E+000	9	...........
	52	0.706667	8.99122E-001	1.01554E-004	0.00000E+000	9.13099E-005	5.99601E-002	8.99430E-001	3.57730E+000	9	...........
	53	0.72	9.04598E-001	1.01786E-004	0.00000E+000	9.20752E-005	5.99601E-002	9.04928E-001	3.57730E+000	9	...........
	54	0.733333	9.09929E-001	9.99364E-005	0.00000E+000	9.09350E-005	5.99601E-002	9.10259E-001	3.57730E+000	9	...........
	55	0.746667	9.15171E-001	1.01063E-004	0.00000E+000	9.24896E-005	5.99601E-002	9.15487E-001	3.57730E+000	9	...........
	56	0.76	9.20325E-001	1.01763E-004	0.00000E+000	9.36549E-005	5.99601E-002	9.20633E-001	3.57730E+000	9	...........
	57	0.773333	9.25390E-001	1.00230E-004	0.00000E+000	9.27520E-005	5.99601E-002	9.25682E-001	3.57730E+000	9	...........
	58	0.786667	9.30318E-001	1.01099E-004	0.00000E+000	9.40543E-005	5.99601E-002	9.30623E-001	3.57730E+000	9	...........
	59	0.8	9.35133E-001	1.01149E-004	0.00000E+000	9.45879E-005	5.99601E-002	9.35477E-001	3.57730E+000	9	...........
	60	0.813333	9.39880E-001	1.01072E-004	0.00000E+000	9.49956E-005	5.99601E-002	9.40240E-001	3.57730E+000	9	...........
	61	0.826667	9.44541E-001	1.02951E-004	0.00000E+000	9.72410E-005	5.99601E-002	9.44903E-001	3.57730E+000	9	...........
	62	0.84	9.49177E-001	1.01553E-004	0.00000E+000	9.63922E-005	5.99601E-002	9.49519E-001	3.57730E+000	9	...........
	63	0.853333	9.53705E-001	1.01015E-004	0.00000E+000	9.63383E-005	5.99601E-002	9.54033E-001	3.57730E+000	9	...........
	64	0.866667	9.58113E-001	1.01267E-004	0.00000E+000	9.70251E-005	5.99601E-002	9.58460E-001	3.57730E+000	9	...........
	65	0.88	9.62476E-001	1.00867E-004	0.00000E+000	9.70818E-005	5.99601E-002	9.62841E-001	3.57730E+000	9	...........
	66	0.893333	9.66774E-001	1.02349E-004	0.00000E+000	9.89487E-005	5.99601E-002	9.67126E-001	3.57730E+000	9	...........
	67	0.906667	9.70973E-001	1.00171E-004	0.00000E+000	9.72631E-005	5.99601E-002	9.71356E-001	3.57730E+000	9	...........
	68	0.92	9.75154E-001	1.00825E-004	0.00000E+000	9.83200E-005	5.99601E-002	9.75513E-001	3.57730E+000	9	...........
	69	0.933333	9.79210E-001	1.00351E-004	0.00000E+000	9.82647E-005	5.99601E-002	9.79558E-001	3.57730E+000	9	...........
	70	0.946667	9.83180E-001	9.99822E-005	0.00000E+000	9.83005E-005	5.99601E-002	9.83527E-001	3.57730E+000	9	...........
	71	0.96	9.87096E-001	1.00401E-004	0.00000E+000	9.91055E-005	5.99601E-002	9.87459E-001	3.57730E+000	9	...........
	72	0.97333	9.90895E-001	1.01664E-004	0.00000E+000	1.00738E-004	5.99601E-002	9.91257E-001	3.57730E+000	9	...........
	73	0.98667	9.94642E-001	1.01922E-004	0.00000E+000	1.01376E-004	5.99601E-002	9.94990E-001	3.57730E+000	9	...........
	74	1	9.98308E-001	1.03798E-004	0.00000E+000	1.03622E-004	5.99601E-002	9.98677E-001	3.57730E+000	9	...........
	75	1.00167	1.00033E+000	1.01315E-004	0.00000E+000	1.01348E-004	5.99601E-002	1.00073E+000	3.57730E+000	9	...........
STARTTIMEOFFSET	QUANT	1237.771	Start Time Offset (s)
