EXPLAIN
TAG	PWR800_CHARGE
TITLE	LABEL	PWR Cyclic Charge Discharge (Cell) - Charge Step	Test &Identifier
DATE	LABEL	12-7-2017	Date
TIME	LABEL	16:53:27	Time
NOTES	NOTES	2	&Notes...
	supercap test cell
	6M KOH
PSTAT	PSTAT	IFC5000-01520	Potentiostat
CAPACITY	QUANT	1.00000E-003	Capacity (A-hr)
CELLTYPE	SELECTOR	1	&Cell Type
WORKINGCONNECTION	SELECTOR	0	&Working Lead
MAXCHARGETIME	VARIABLEANDUNITS	1.00000E+002	s	1.00000E+002	second(s)	Max &Charge Time
CHARGECURRENT	QUANT	1.00000E-004	&Charge Current (A) 
VOLTAGEFINISH	TWOPARAM	F	1.00000E-003	3.60000E+003	&Voltage Finish	 I (A) < 	Max Time(s)
SAMPLETIME	QUANT	1.00000E-002	Sa&mple Period (s)
CHARGESTOPAT1	MULTIPARAM	4	1.00000E+000	Charge Stop At &1	Voltage > Limit	V
CHARGESTOPAT2	MULTIPARAM	0	0.00000E+000	Charge Stop At &2	None	N/A
AESBHCSELECTOR	TOGGLE	F	Save Both Half Cells
IRCOMP	TOGGLE	F	IR &Measure
EOC	QUANT	0	Open Circuit (V)
SEQUENCER	TOGGLE	TRUE	Run as Sequence
PSTATMODEL	IQUANT	53	Pstat Model
PSTATSECTION	LABEL	IFC5000-01520	Pstat Section
PSTATSERIALNO	LABEL	01520	Pstat Serial Number
CTRLMODE	IQUANT	0	Control Mode
ELECTROMETER	IQUANT	1	RE=0 or CS=1
IESTAB	IQUANT	0	I/E Stability
CASPEED	IQUANT	4	Control Amp Speed
CONVENTION	IQUANT	1	Current Convention
ICHRANGE	IQUANT	2	Ich Range
ICHRANGEMODE	TOGGLE	T	Ich Auto Range
ICHOFFSETENABLE	TOGGLE	F	Ich Offset Enable
ICHOFFSET	QUANT	0	Ich Offset (V)
ICHFILTER	IQUANT	1	Ich Filter
VCHRANGE	IQUANT	2	Vch Range
VCHRANGEMODE	TOGGLE	T	Vch Auto Range
VCHOFFSETENABLE	TOGGLE	F	Vch Offset Enable
VCHOFFSET	QUANT	0	Vch Offset (V)
VCHFILTER	IQUANT	1	Vch Filter
IERANGELOWERLIMIT	IQUANT	9	I/E Range Lower Limit
IERANGEMODE	TOGGLE	F	I/E AutoRange
IERANGE	IQUANT	9	I/E Range
ACHSELECT	IQUANT	1	Ach Select
ACHRANGE	IQUANT	2	Ach Range
ACHOFFSETENABLE	TOGGLE	F	Ach Offset Enable
ACHOFFSET	QUANT	0	Ach Offset (V)
ACHFILTER	IQUANT	1	Ach Filter
CABLEID	IQUANT	14	Cable ID
DCCALDATE	LABEL	5-7-2017	DC Calibration Date
ACCALDATE	LABEL	12/3/2015	AC Calibration Date
FRAMEWORKVERSION	QUANT	7.01	Framework Version
INSTRUMENTVERSION	LABEL	4.00	Instrument Version
CURVE	TABLE	74
	Pt	T	Vf	Im	Vu	Pwr	Sig	Ach	Temp	IERange	Over
	#	s	V	A	V	W	V	V	deg C	#	bits
	0	0.013333	2.59663E-001	1.02640E-004	0.00000E+000	2.66518E-005	5.99601E-002	2.59748E-001	3.57700E+000	9	...........
	1	0.026667	2.82762E-001	1.00713E-004	0.00000E+000	2.84777E-005	5.99601E-002	2.82828E-001	3.57700E+000	9	...........
	2	0.04	3.04634E-001	1.02831E-004	0.00000E+000	3.13258E-005	5.99601E-002	3.04702E-001	3.57700E+000	9	...........
	3	0.053333	3.25613E-001	1.00605E-004	0.00000E+000	3.27584E-005	5.99601E-002	3.25687E-001	3.57700E+000	9	...........
	4	0.066667	3.45885E-001	1.01156E-004	0.00000E+000	3.49885E-005	5.99601E-002	3.45960E-001	3.57700E+000	9	...........
	5	0.08	3.65566E-001	1.00780E-004	0.00000E+000	3.68418E-005	5.99601E-002	3.65640E-001	3.57700E+000	9	...........
	6	0.093333	3.84715E-001	1.01374E-004	0.00000E+000	3.90001E-005	5.99601E-002	3.84799E-001	3.57700E+000	9	...........
	7	0.106667	4.03405E-001	1.01211E-004	0.00000E+000	4.08288E-005	5.99601E-002	4.03489E-001	3.57700E+000	9	...........
	8	0.12	4.21660E-001	9.98551E-005	0.00000E+000	4.21049E-005	5.99601E-002	4.21748E-001	3.57700E+000	9	...........
	9	0.133333	4.39502E-001	1.01043E-004	0.00000E+000	4.44086E-005	5.99601E-002	4.39592E-001	3.57700E+000	9	...........
	10	0.146667	4.56948E-001	1.00748E-004	0.00000E+000	4.60366E-005	5.99601E-002	4.57043E-001	3.57700E+000	9	...........
	11	0.16	4.74010E-001	1.01148E-004	0.00000E+000	4.79452E-005	5.99601E-002	4.74111E-001	3.57700E+000	9	...........
	12	0.173333	4.90706E-001	1.01521E-004	0.00000E+000	4.98170E-005	5.99601E-002	4.90808E-001	3.57700E+000	9	...........
	13	0.186667	5.07033E-001	1.00630E-004	0.00000E+000	5.10229E-005	5.99601E-002	5.07149E-001	3.57700E+000	9	...........
	14	0.2	5.23011E-001	1.00336E-004	0.00000E+000	5.24771E-005	5.99601E-002	5.23128E-001	3.57700E+000	9	...........
	15	0.213333	5.38426E-001	1.00381E-004	0.00000E+000	5.40478E-005	5.99601E-002	5.38604E-001	3.57700E+000	9	...........
	16	0.226667	5.53614E-001	9.98666E-005	0.00000E+000	5.52875E-005	5.99601E-002	5.53830E-001	3.57700E+000	9	...........
	17	0.24	5.68559E-001	1.00626E-004	0.00000E+000	5.72119E-005	5.99601E-002	5.68767E-001	3.57700E+000	9	...........
	18	0.253333	5.83131E-001	1.01720E-004	0.00000E+000	5.93161E-005	5.99601E-002	5.83368E-001	3.57700E+000	9	...........
	19	0.266667	5.97375E-001	1.00419E-004	0.00000E+000	5.99876E-005	5.99601E-002	5.97616E-001	3.57700E+000	9	...........
	20	0.28	6.11269E-001	1.00651E-004	0.00000E+000	6.15249E-005	5.99601E-002	6.11527E-001	3.57700E+000	9	...........
	21	0.293333	6.24879E-001	1.01639E-004	0.00000E+000	6.35119E-005	5.99601E-002	6.25101E-001	3.57700E+000	9	...........
	22	0.306667	6.38119E-001	1.00964E-004	0.00000E+000	6.44268E-005	5.99601E-002	6.38359E-001	3.57700E+000	9	...........
	23	0.32	6.51043E-001	1.01711E-004	0.00000E+000	6.62181E-005	5.99601E-002	6.51272E-001	3.57700E+000	9	...........
	24	0.333333	6.63633E-001	9.97676E-005	0.00000E+000	6.62091E-005	5.99601E-002	6.63873E-001	3.57700E+000	9	...........
	25	0.346667	6.75896E-001	1.01551E-004	0.00000E+000	6.86381E-005	5.99601E-002	6.76140E-001	3.57700E+000	9	...........
	26	0.36	6.87842E-001	9.97822E-005	0.00000E+000	6.86344E-005	5.99601E-002	6.88080E-001	3.57700E+000	9	...........
	27	0.373333	6.99492E-001	1.01178E-004	0.00000E+000	7.07735E-005	5.99601E-002	6.99734E-001	3.57700E+000	9	...........
	28	0.386667	7.10809E-001	1.02306E-004	0.00000E+000	7.27198E-005	5.99601E-002	7.11064E-001	3.57700E+000	9	...........
	29	0.4	7.21892E-001	1.00191E-004	0.00000E+000	7.23268E-005	5.99601E-002	7.22099E-001	3.57700E+000	9	...........
	30	0.413333	7.32607E-001	1.00318E-004	0.00000E+000	7.34935E-005	5.99601E-002	7.32826E-001	3.57700E+000	9	...........
	31	0.426667	7.43044E-001	1.01323E-004	0.00000E+000	7.52875E-005	5.99601E-002	7.43273E-001	3.57700E+000	9	...........
	32	0.44	7.53189E-001	1.01425E-004	0.00000E+000	7.63923E-005	5.99601E-002	7.53427E-001	3.57700E+000	9	...........
	33	0.453333	7.63058E-001	1.00962E-004	0.00000E+000	7.70396E-005	5.99601E-002	7.63295E-001	3.57700E+000	9	...........
	34	0.466667	7.72642E-001	9.98697E-005	0.00000E+000	7.71635E-005	5.99601E-002	7.72899E-001	3.57700E+000	9	...........
	35	0.48	7.81940E-001	1.01810E-004	0.00000E+000	7.96091E-005	5.99601E-002	7.82196E-001	3.57700E+000	9	...........
	36	0.493333	7.90942E-001	1.01489E-004	0.00000E+000	8.02718E-005	5.99601E-002	7.91236E-001	3.57700E+000	9	...........
	37	0.506667	7.99728E-001	1.02263E-004	0.00000E+000	8.17825E-005	5.99601E-002	7.99990E-001	3.57700E+000	9	...........
	38	0.52	8.08194E-001	1.02139E-004	0.00000E+000	8.25480E-005	5.99601E-002	8.08478E-001	3.57700E+000	9	...........
	39	0.533333	8.16412E-001	1.00724E-004	0.00000E+000	8.22323E-005	5.99601E-002	8.16713E-001	3.57700E+000	9	...........
	40	0.546667	8.24387E-001	1.00210E-004	0.00000E+000	8.26122E-005	5.99601E-002	8.24690E-001	3.57700E+000	9	...........
	41	0.56	8.32099E-001	1.02067E-004	0.00000E+000	8.49299E-005	5.99601E-002	8.32402E-001	3.57700E+000	9	...........
	42	0.573333	8.39537E-001	1.00178E-004	0.00000E+000	8.41032E-005	5.99601E-002	8.39850E-001	3.57700E+000	9	...........
	43	0.586667	8.46783E-001	1.01080E-004	0.00000E+000	8.55932E-005	5.99601E-002	8.47102E-001	3.57700E+000	9	...........
	44	0.6	8.53789E-001	1.01160E-004	0.00000E+000	8.63689E-005	5.99601E-002	8.54119E-001	3.57700E+000	9	...........
	45	0.613333	8.60595E-001	1.01899E-004	0.00000E+000	8.76940E-005	5.99601E-002	8.60908E-001	3.57700E+000	9	...........
	46	0.626667	8.67177E-001	1.01033E-004	0.00000E+000	8.76139E-005	5.99601E-002	8.67499E-001	3.57700E+000	9	...........
	47	0.64	8.73588E-001	1.00132E-004	0.00000E+000	8.74743E-005	5.99601E-002	8.73928E-001	3.57700E+000	9	...........
	48	0.653333	8.79794E-001	1.00467E-004	0.00000E+000	8.83900E-005	5.99601E-002	8.80122E-001	3.57700E+000	9	...........
	49	0.666667	8.85840E-001	1.01212E-004	0.00000E+000	8.96573E-005	5.99601E-002	8.86177E-001	3.57700E+000	9	...........
	50	0.68	8.91737E-001	1.01211E-004	0.00000E+000	9.02533E-005	5.99601E-002	8.92064E-001	3.57700E+000	9	...........
	51	0.693333	8.97474E-001	1.01207E-004	0.00000E+000	9.08311E-005	5.99601E-002	8.97819E-001	3.57700E+000	9	...........
	52	0.706667	9.03063E-001	1.00599E-004	0.00000E+000	9.08472E-005	5.99601E-002	9.03419E-001	3.57761E+000	9	...........
	53	0.72	9.08527E-001	1.00544E-004	0.00000E+000	9.13468E-005	5.99601E-002	9.08875E-001	3.57770E+000	9	...........
	54	0.733333	9.13892E-001	1.00018E-004	0.00000E+000	9.14053E-005	5.99601E-002	9.14235E-001	3.57770E+000	9	...........
	55	0.746667	9.19159E-001	1.01054E-004	0.00000E+000	9.28849E-005	5.99601E-002	9.19497E-001	3.57770E+000	9	...........
	56	0.76	9.24374E-001	1.00578E-004	0.00000E+000	9.29719E-005	5.99601E-002	9.24653E-001	3.57770E+000	9	...........
	57	0.773333	9.29425E-001	1.00416E-004	0.00000E+000	9.33288E-005	5.99601E-002	9.29723E-001	3.57770E+000	9	...........
	58	0.786667	9.34404E-001	1.00420E-004	0.00000E+000	9.38327E-005	5.99601E-002	9.34708E-001	3.57770E+000	9	...........
	59	0.8	9.39285E-001	1.02348E-004	0.00000E+000	9.61342E-005	5.99601E-002	9.39583E-001	3.57770E+000	9	...........
	60	0.813333	9.44079E-001	1.01501E-004	0.00000E+000	9.58252E-005	5.99601E-002	9.44405E-001	3.57770E+000	9	...........
	61	0.826667	9.48856E-001	1.00428E-004	0.00000E+000	9.52918E-005	5.99601E-002	9.49166E-001	3.57770E+000	9	...........
	62	0.84	9.53520E-001	1.01882E-004	0.00000E+000	9.71461E-005	5.99601E-002	9.53834E-001	3.57770E+000	9	...........
	63	0.853333	9.58093E-001	1.00581E-004	0.00000E+000	9.63662E-005	5.99601E-002	9.58415E-001	3.57770E+000	9	...........
	64	0.866667	9.62602E-001	1.00059E-004	0.00000E+000	9.63173E-005	5.99601E-002	9.62934E-001	3.57770E+000	9	...........
	65	0.88	9.67034E-001	9.96634E-005	0.00000E+000	9.63779E-005	5.99601E-002	9.67350E-001	3.57770E+000	9	...........
	66	0.893333	9.71432E-001	9.97728E-005	0.00000E+000	9.69225E-005	5.99601E-002	9.71735E-001	3.57770E+000	9	...........
	67	0.906667	9.75742E-001	1.01900E-004	0.00000E+000	9.94284E-005	5.99601E-002	9.76046E-001	3.57770E+000	9	...........
	68	0.92	9.79950E-001	1.00449E-004	0.00000E+000	9.84350E-005	5.99601E-002	9.80255E-001	3.57770E+000	9	...........
	69	0.933333	9.84056E-001	1.00323E-004	0.00000E+000	9.87234E-005	5.99601E-002	9.84397E-001	3.57770E+000	9	...........
	70	0.946667	9.88115E-001	1.01568E-004	0.00000E+000	1.00361E-004	5.99601E-002	9.88461E-001	3.57770E+000	9	...........
	71	0.96	9.92054E-001	1.00641E-004	0.00000E+000	9.98410E-005	5.99601E-002	9.92382E-001	3.57770E+000	9	...........
	72	0.97333	9.95946E-001	1.00688E-004	0.00000E+000	1.00279E-004	5.99601E-002	9.96256E-001	3.57770E+000	9	...........
	73	0.98333	9.99261E-001	1.00883E-004	0.00000E+000	1.00808E-004	5.99601E-002	9.99592E-001	3.57770E+000	9	...........
STARTTIMEOFFSET	QUANT	1849.87	Start Time Offset (s)
