EXPLAIN
TAG	PWR800_CHARGE
TITLE	LABEL	PWR Cyclic Charge Discharge (Cell) - Charge Step	Test &Identifier
DATE	LABEL	12-7-2017	Date
TIME	LABEL	16:48:24	Time
NOTES	NOTES	2	&Notes...
	supercap test cell
	6M KOH
PSTAT	PSTAT	IFC5000-01520	Potentiostat
CAPACITY	QUANT	1.00000E-003	Capacity (A-hr)
CELLTYPE	SELECTOR	1	&Cell Type
WORKINGCONNECTION	SELECTOR	0	&Working Lead
MAXCHARGETIME	VARIABLEANDUNITS	1.00000E+002	s	1.00000E+002	second(s)	Max &Charge Time
CHARGECURRENT	QUANT	1.00000E-004	&Charge Current (A) 
VOLTAGEFINISH	TWOPARAM	F	1.00000E-003	3.60000E+003	&Voltage Finish	 I (A) < 	Max Time(s)
SAMPLETIME	QUANT	1.00000E-002	Sa&mple Period (s)
CHARGESTOPAT1	MULTIPARAM	4	1.00000E+000	Charge Stop At &1	Voltage > Limit	V
CHARGESTOPAT2	MULTIPARAM	0	0.00000E+000	Charge Stop At &2	None	N/A
AESBHCSELECTOR	TOGGLE	F	Save Both Half Cells
IRCOMP	TOGGLE	F	IR &Measure
EOC	QUANT	0	Open Circuit (V)
SEQUENCER	TOGGLE	TRUE	Run as Sequence
PSTATMODEL	IQUANT	53	Pstat Model
PSTATSECTION	LABEL	IFC5000-01520	Pstat Section
PSTATSERIALNO	LABEL	01520	Pstat Serial Number
CTRLMODE	IQUANT	0	Control Mode
ELECTROMETER	IQUANT	1	RE=0 or CS=1
IESTAB	IQUANT	0	I/E Stability
CASPEED	IQUANT	4	Control Amp Speed
CONVENTION	IQUANT	1	Current Convention
ICHRANGE	IQUANT	2	Ich Range
ICHRANGEMODE	TOGGLE	T	Ich Auto Range
ICHOFFSETENABLE	TOGGLE	F	Ich Offset Enable
ICHOFFSET	QUANT	0	Ich Offset (V)
ICHFILTER	IQUANT	1	Ich Filter
VCHRANGE	IQUANT	2	Vch Range
VCHRANGEMODE	TOGGLE	T	Vch Auto Range
VCHOFFSETENABLE	TOGGLE	F	Vch Offset Enable
VCHOFFSET	QUANT	0	Vch Offset (V)
VCHFILTER	IQUANT	1	Vch Filter
IERANGELOWERLIMIT	IQUANT	9	I/E Range Lower Limit
IERANGEMODE	TOGGLE	F	I/E AutoRange
IERANGE	IQUANT	9	I/E Range
ACHSELECT	IQUANT	1	Ach Select
ACHRANGE	IQUANT	2	Ach Range
ACHOFFSETENABLE	TOGGLE	F	Ach Offset Enable
ACHOFFSET	QUANT	0	Ach Offset (V)
ACHFILTER	IQUANT	1	Ach Filter
CABLEID	IQUANT	14	Cable ID
DCCALDATE	LABEL	5-7-2017	DC Calibration Date
ACCALDATE	LABEL	12/3/2015	AC Calibration Date
FRAMEWORKVERSION	QUANT	7.01	Framework Version
INSTRUMENTVERSION	LABEL	4.00	Instrument Version
CURVE	TABLE	75
	Pt	T	Vf	Im	Vu	Pwr	Sig	Ach	Temp	IERange	Over
	#	s	V	A	V	W	V	V	deg C	#	bits
	0	0.013333	2.62284E-001	1.00906E-004	0.00000E+000	2.64662E-005	5.99601E-002	2.62358E-001	3.57650E+000	9	...........
	1	0.026667	2.85262E-001	1.00881E-004	0.00000E+000	2.87776E-005	5.99601E-002	2.85324E-001	3.57650E+000	9	...........
	2	0.04	3.07002E-001	1.00123E-004	0.00000E+000	3.07379E-005	5.99601E-002	3.07065E-001	3.57650E+000	9	...........
	3	0.053333	3.27848E-001	1.01675E-004	0.00000E+000	3.33340E-005	5.99601E-002	3.27911E-001	3.57650E+000	9	...........
	4	0.066667	3.47978E-001	1.01846E-004	0.00000E+000	3.54402E-005	5.99601E-002	3.48044E-001	3.57650E+000	9	...........
	5	0.08	3.67493E-001	1.00475E-004	0.00000E+000	3.69239E-005	5.99601E-002	3.67568E-001	3.57650E+000	9	...........
	6	0.093333	3.86493E-001	1.01386E-004	0.00000E+000	3.91849E-005	5.99601E-002	3.86568E-001	3.57650E+000	9	...........
	7	0.106667	4.05027E-001	1.00230E-004	0.00000E+000	4.05959E-005	5.99601E-002	4.05105E-001	3.57650E+000	9	...........
	8	0.12	4.23120E-001	9.99853E-005	0.00000E+000	4.23058E-005	5.99601E-002	4.23206E-001	3.57650E+000	9	...........
	9	0.133333	4.40799E-001	1.00505E-004	0.00000E+000	4.43026E-005	5.99601E-002	4.40895E-001	3.57650E+000	9	...........
	10	0.146667	4.58091E-001	1.00078E-004	0.00000E+000	4.58449E-005	5.99601E-002	4.58190E-001	3.57650E+000	9	...........
	11	0.16	4.75011E-001	9.96926E-005	0.00000E+000	4.73551E-005	5.99601E-002	4.75114E-001	3.57650E+000	9	...........
	12	0.173333	4.91560E-001	1.01821E-004	0.00000E+000	5.00512E-005	5.99601E-002	4.91667E-001	3.57650E+000	9	...........
	13	0.186667	5.07737E-001	1.01085E-004	0.00000E+000	5.13243E-005	5.99601E-002	5.07845E-001	3.57650E+000	9	...........
	14	0.2	5.23570E-001	1.01102E-004	0.00000E+000	5.29341E-005	5.99601E-002	5.23683E-001	3.57650E+000	9	...........
	15	0.213333	5.38831E-001	1.01961E-004	0.00000E+000	5.49396E-005	5.99601E-002	5.39047E-001	3.57650E+000	9	...........
	16	0.226667	5.53912E-001	1.00351E-004	0.00000E+000	5.55857E-005	5.99601E-002	5.54134E-001	3.57650E+000	9	...........
	17	0.24	5.68718E-001	1.01341E-004	0.00000E+000	5.76343E-005	5.99601E-002	5.68961E-001	3.57650E+000	9	...........
	18	0.253333	5.83164E-001	1.00694E-004	0.00000E+000	5.87211E-005	5.99601E-002	5.83405E-001	3.57650E+000	9	...........
	19	0.266667	5.97307E-001	1.00658E-004	0.00000E+000	6.01240E-005	5.99601E-002	5.97556E-001	3.57650E+000	9	...........
	20	0.28	6.11107E-001	1.00708E-004	0.00000E+000	6.15436E-005	5.99601E-002	6.11378E-001	3.57650E+000	9	...........
	21	0.293333	6.24615E-001	1.01055E-004	0.00000E+000	6.31207E-005	5.99601E-002	6.24856E-001	3.57650E+000	9	...........
	22	0.306667	6.37755E-001	1.01028E-004	0.00000E+000	6.44312E-005	5.99601E-002	6.38024E-001	3.57650E+000	9	...........
	23	0.32	6.50597E-001	1.02531E-004	0.00000E+000	6.67061E-005	5.99601E-002	6.50859E-001	3.57650E+000	9	...........
	24	0.333333	6.63125E-001	1.00519E-004	0.00000E+000	6.66565E-005	5.99601E-002	6.63384E-001	3.57650E+000	9	...........
	25	0.346667	6.75342E-001	1.00419E-004	0.00000E+000	6.78170E-005	5.99601E-002	6.75589E-001	3.57650E+000	9	...........
	26	0.36	6.87224E-001	1.01069E-004	0.00000E+000	6.94570E-005	5.99601E-002	6.87462E-001	3.57650E+000	9	...........
	27	0.373333	6.98815E-001	9.98916E-005	0.00000E+000	6.98057E-005	5.99601E-002	6.99083E-001	3.57650E+000	9	...........
	28	0.386667	7.10083E-001	1.00776E-004	0.00000E+000	7.15594E-005	5.99601E-002	7.10348E-001	3.57650E+000	9	...........
	29	0.4	7.21092E-001	1.01712E-004	0.00000E+000	7.33435E-005	5.99601E-002	7.21345E-001	3.57650E+000	9	...........
	30	0.413333	7.31756E-001	1.00793E-004	0.00000E+000	7.37557E-005	5.99601E-002	7.32026E-001	3.57650E+000	9	...........
	31	0.426667	7.42167E-001	1.01444E-004	0.00000E+000	7.52884E-005	5.99601E-002	7.42441E-001	3.57650E+000	9	...........
	32	0.44	7.52298E-001	1.01773E-004	0.00000E+000	7.65638E-005	5.99601E-002	7.52544E-001	3.57650E+000	9	...........
	33	0.453333	7.62133E-001	1.01561E-004	0.00000E+000	7.74028E-005	5.99601E-002	7.62366E-001	3.57650E+000	9	...........
	34	0.466667	7.71704E-001	1.01614E-004	0.00000E+000	7.84158E-005	5.99601E-002	7.71945E-001	3.57650E+000	9	...........
	35	0.48	7.80959E-001	1.00506E-004	0.00000E+000	7.84913E-005	5.99601E-002	7.81209E-001	3.57650E+000	9	...........
	36	0.493333	7.89962E-001	1.00530E-004	0.00000E+000	7.94151E-005	5.99601E-002	7.90207E-001	3.57650E+000	9	...........
	37	0.506667	7.98742E-001	1.01871E-004	0.00000E+000	8.13687E-005	5.99601E-002	7.98960E-001	3.57650E+000	9	...........
	38	0.52	8.07170E-001	1.01469E-004	0.00000E+000	8.19027E-005	5.99601E-002	8.07433E-001	3.57650E+000	9	...........
	39	0.533333	8.15407E-001	1.01063E-004	0.00000E+000	8.24071E-005	5.99601E-002	8.15663E-001	3.57650E+000	9	...........
	40	0.546667	8.23380E-001	1.01051E-004	0.00000E+000	8.32035E-005	5.99601E-002	8.23638E-001	3.57650E+000	9	...........
	41	0.56	8.31076E-001	1.00823E-004	0.00000E+000	8.37916E-005	5.99601E-002	8.31341E-001	3.57650E+000	9	...........
	42	0.573333	8.38515E-001	1.01828E-004	0.00000E+000	8.53847E-005	5.99601E-002	8.38805E-001	3.57650E+000	9	...........
	43	0.586667	8.45775E-001	1.00471E-004	0.00000E+000	8.49758E-005	5.99601E-002	8.46052E-001	3.57650E+000	9	...........
	44	0.6	8.52805E-001	1.00732E-004	0.00000E+000	8.59051E-005	5.99601E-002	8.53057E-001	3.57650E+000	9	...........
	45	0.613333	8.59575E-001	1.01334E-004	0.00000E+000	8.71038E-005	5.99601E-002	8.59859E-001	3.57650E+000	9	...........
	46	0.626667	8.66157E-001	1.00994E-004	0.00000E+000	8.74765E-005	5.99601E-002	8.66443E-001	3.57650E+000	9	...........
	47	0.64	8.72568E-001	1.00609E-004	0.00000E+000	8.77885E-005	5.99601E-002	8.72847E-001	3.57650E+000	9	...........
	48	0.653333	8.78777E-001	1.01996E-004	0.00000E+000	8.96319E-005	5.99601E-002	8.79057E-001	3.57650E+000	9	...........
	49	0.666667	8.84821E-001	1.01344E-004	0.00000E+000	8.96713E-005	5.99601E-002	8.85100E-001	3.57650E+000	9	...........
	50	0.68	8.90688E-001	1.02096E-004	0.00000E+000	9.09359E-005	5.99601E-002	8.90965E-001	3.57650E+000	9	...........
	51	0.693333	8.96394E-001	1.00259E-004	0.00000E+000	8.98719E-005	5.99601E-002	8.96718E-001	3.57650E+000	9	...........
	52	0.706667	9.01981E-001	1.00897E-004	0.00000E+000	9.10072E-005	5.99601E-002	9.02307E-001	3.57650E+000	9	...........
	53	0.72	9.07418E-001	1.00430E-004	0.00000E+000	9.11322E-005	5.99601E-002	9.07772E-001	3.57650E+000	9	...........
	54	0.733333	9.12781E-001	1.01410E-004	0.00000E+000	9.25648E-005	5.99601E-002	9.13115E-001	3.57650E+000	9	...........
	55	0.746667	9.17993E-001	1.02159E-004	0.00000E+000	9.37810E-005	5.99601E-002	9.18345E-001	3.57650E+000	9	...........
	56	0.76	9.23188E-001	1.00276E-004	0.00000E+000	9.25736E-005	5.99601E-002	9.23482E-001	3.57650E+000	9	...........
	57	0.773333	9.28238E-001	1.01307E-004	0.00000E+000	9.40375E-005	5.99601E-002	9.28528E-001	3.57650E+000	9	...........
	58	0.786667	9.33146E-001	1.01667E-004	0.00000E+000	9.48701E-005	5.99601E-002	9.33448E-001	3.57650E+000	9	...........
	59	0.8	9.37991E-001	1.00293E-004	0.00000E+000	9.40736E-005	5.99601E-002	9.38319E-001	3.57650E+000	9	...........
	60	0.813333	9.42764E-001	1.00879E-004	0.00000E+000	9.51053E-005	5.99601E-002	9.43084E-001	3.57650E+000	9	...........
	61	0.826667	9.47520E-001	1.01116E-004	0.00000E+000	9.58093E-005	5.99601E-002	9.47853E-001	3.57650E+000	9	...........
	62	0.84	9.52145E-001	9.98395E-005	0.00000E+000	9.50616E-005	5.99601E-002	9.52476E-001	3.57650E+000	9	...........
	63	0.853333	9.56683E-001	1.00592E-004	0.00000E+000	9.62343E-005	5.99601E-002	9.57011E-001	3.57650E+000	9	...........
	64	0.866667	9.61179E-001	1.02033E-004	0.00000E+000	9.80717E-005	5.99601E-002	9.61506E-001	3.57650E+000	9	...........
	65	0.88	9.65573E-001	1.00902E-004	0.00000E+000	9.74285E-005	5.99601E-002	9.65911E-001	3.57650E+000	9	...........
	66	0.893333	9.69900E-001	1.00371E-004	0.00000E+000	9.73497E-005	5.99601E-002	9.70260E-001	3.57650E+000	9	...........
	67	0.906667	9.74199E-001	1.01924E-004	0.00000E+000	9.92945E-005	5.99601E-002	9.74524E-001	3.57650E+000	9	...........
	68	0.92	9.78378E-001	1.02495E-004	0.00000E+000	1.00279E-004	5.99601E-002	9.78711E-001	3.57650E+000	9	...........
	69	0.933333	9.82493E-001	1.00987E-004	0.00000E+000	9.92186E-005	5.99601E-002	9.82789E-001	3.57650E+000	9	...........
	70	0.946667	9.86471E-001	1.01240E-004	0.00000E+000	9.98701E-005	5.99601E-002	9.86829E-001	3.57650E+000	9	...........
	71	0.96	9.90415E-001	1.01537E-004	0.00000E+000	1.00563E-004	5.99601E-002	9.90777E-001	3.57650E+000	9	...........
	72	0.97333	9.94264E-001	9.97259E-005	0.00000E+000	9.91539E-005	5.99601E-002	9.94626E-001	3.57650E+000	9	...........
	73	0.98667	9.98048E-001	1.01907E-004	0.00000E+000	1.01708E-004	5.99601E-002	9.98417E-001	3.57650E+000	9	...........
	74	0.98833	1.00012E+000	1.01056E-004	0.00000E+000	1.01068E-004	5.99601E-002	1.00051E+000	3.57650E+000	9	...........
STARTTIMEOFFSET	QUANT	1635.298	Start Time Offset (s)
