EXPLAIN
TAG	PWR800_CHARGE
TITLE	LABEL	PWR Cyclic Charge Discharge (Cell) - Charge Step	Test &Identifier
DATE	LABEL	12-7-2017	Date
TIME	LABEL	16:47:11	Time
NOTES	NOTES	2	&Notes...
	supercap test cell
	6M KOH
PSTAT	PSTAT	IFC5000-01520	Potentiostat
CAPACITY	QUANT	1.00000E-003	Capacity (A-hr)
CELLTYPE	SELECTOR	1	&Cell Type
WORKINGCONNECTION	SELECTOR	0	&Working Lead
MAXCHARGETIME	VARIABLEANDUNITS	1.00000E+002	s	1.00000E+002	second(s)	Max &Charge Time
CHARGECURRENT	QUANT	1.00000E-004	&Charge Current (A) 
VOLTAGEFINISH	TWOPARAM	F	1.00000E-003	3.60000E+003	&Voltage Finish	 I (A) < 	Max Time(s)
SAMPLETIME	QUANT	1.00000E-002	Sa&mple Period (s)
CHARGESTOPAT1	MULTIPARAM	4	1.00000E+000	Charge Stop At &1	Voltage > Limit	V
CHARGESTOPAT2	MULTIPARAM	0	0.00000E+000	Charge Stop At &2	None	N/A
AESBHCSELECTOR	TOGGLE	F	Save Both Half Cells
IRCOMP	TOGGLE	F	IR &Measure
EOC	QUANT	0	Open Circuit (V)
SEQUENCER	TOGGLE	TRUE	Run as Sequence
PSTATMODEL	IQUANT	53	Pstat Model
PSTATSECTION	LABEL	IFC5000-01520	Pstat Section
PSTATSERIALNO	LABEL	01520	Pstat Serial Number
CTRLMODE	IQUANT	0	Control Mode
ELECTROMETER	IQUANT	1	RE=0 or CS=1
IESTAB	IQUANT	0	I/E Stability
CASPEED	IQUANT	4	Control Amp Speed
CONVENTION	IQUANT	1	Current Convention
ICHRANGE	IQUANT	2	Ich Range
ICHRANGEMODE	TOGGLE	T	Ich Auto Range
ICHOFFSETENABLE	TOGGLE	F	Ich Offset Enable
ICHOFFSET	QUANT	0	Ich Offset (V)
ICHFILTER	IQUANT	1	Ich Filter
VCHRANGE	IQUANT	2	Vch Range
VCHRANGEMODE	TOGGLE	T	Vch Auto Range
VCHOFFSETENABLE	TOGGLE	F	Vch Offset Enable
VCHOFFSET	QUANT	0	Vch Offset (V)
VCHFILTER	IQUANT	1	Vch Filter
IERANGELOWERLIMIT	IQUANT	9	I/E Range Lower Limit
IERANGEMODE	TOGGLE	F	I/E AutoRange
IERANGE	IQUANT	9	I/E Range
ACHSELECT	IQUANT	1	Ach Select
ACHRANGE	IQUANT	2	Ach Range
ACHOFFSETENABLE	TOGGLE	F	Ach Offset Enable
ACHOFFSET	QUANT	0	Ach Offset (V)
ACHFILTER	IQUANT	1	Ach Filter
CABLEID	IQUANT	14	Cable ID
DCCALDATE	LABEL	5-7-2017	DC Calibration Date
ACCALDATE	LABEL	12/3/2015	AC Calibration Date
FRAMEWORKVERSION	QUANT	7.01	Framework Version
INSTRUMENTVERSION	LABEL	4.00	Instrument Version
CURVE	TABLE	75
	Pt	T	Vf	Im	Vu	Pwr	Sig	Ach	Temp	IERange	Over
	#	s	V	A	V	W	V	V	deg C	#	bits
	0	0.013333	2.58417E-001	9.97509E-005	0.00000E+000	2.57774E-005	5.99601E-002	2.58503E-001	3.57650E+000	9	...........
	1	0.026667	2.81491E-001	9.98832E-005	0.00000E+000	2.81162E-005	5.99601E-002	2.81553E-001	3.57650E+000	9	...........
	2	0.04	3.03309E-001	1.00596E-004	0.00000E+000	3.05117E-005	5.99601E-002	3.03382E-001	3.57650E+000	9	...........
	3	0.053333	3.24227E-001	1.00856E-004	0.00000E+000	3.27003E-005	5.99601E-002	3.24301E-001	3.57650E+000	9	...........
	4	0.066667	3.44428E-001	1.00526E-004	0.00000E+000	3.46240E-005	5.99601E-002	3.44500E-001	3.57650E+000	9	...........
	5	0.08	3.64025E-001	1.00608E-004	0.00000E+000	3.66240E-005	5.99601E-002	3.64101E-001	3.57650E+000	9	...........
	6	0.093333	3.83097E-001	1.02494E-004	0.00000E+000	3.92652E-005	5.99601E-002	3.83172E-001	3.57650E+000	9	...........
	7	0.106667	4.01688E-001	1.01017E-004	0.00000E+000	4.05772E-005	5.99601E-002	4.01770E-001	3.57650E+000	9	...........
	8	0.12	4.19851E-001	1.00562E-004	0.00000E+000	4.22209E-005	5.99601E-002	4.19939E-001	3.57650E+000	9	...........
	9	0.133333	4.37607E-001	1.01256E-004	0.00000E+000	4.43105E-005	5.99601E-002	4.37697E-001	3.57650E+000	9	...........
	10	0.146667	4.54964E-001	1.01039E-004	0.00000E+000	4.59689E-005	5.99601E-002	4.55061E-001	3.57650E+000	9	...........
	11	0.16	4.71942E-001	1.00796E-004	0.00000E+000	4.75698E-005	5.99601E-002	4.72037E-001	3.57650E+000	9	...........
	12	0.173333	4.88543E-001	1.00535E-004	0.00000E+000	4.91159E-005	5.99601E-002	4.88646E-001	3.57650E+000	9	...........
	13	0.186667	5.04784E-001	1.01234E-004	0.00000E+000	5.11011E-005	5.99601E-002	5.04897E-001	3.57650E+000	9	...........
	14	0.2	5.20674E-001	1.00261E-004	0.00000E+000	5.22035E-005	5.99601E-002	5.20786E-001	3.57650E+000	9	...........
	15	0.213333	5.36030E-001	1.00680E-004	0.00000E+000	5.39677E-005	5.99601E-002	5.36220E-001	3.57650E+000	9	...........
	16	0.226667	5.51118E-001	1.00223E-004	0.00000E+000	5.52346E-005	5.99601E-002	5.51365E-001	3.57650E+000	9	...........
	17	0.24	5.66001E-001	1.00134E-004	0.00000E+000	5.66761E-005	5.99601E-002	5.66227E-001	3.57680E+000	9	...........
	18	0.253333	5.80502E-001	9.98061E-005	0.00000E+000	5.79377E-005	5.99601E-002	5.80752E-001	3.57690E+000	9	...........
	19	0.266667	5.94724E-001	1.01291E-004	0.00000E+000	6.02401E-005	5.99601E-002	5.94941E-001	3.57690E+000	9	...........
	20	0.28	6.08566E-001	1.00180E-004	0.00000E+000	6.09663E-005	5.99601E-002	6.08818E-001	3.57690E+000	9	...........
	21	0.293333	6.22149E-001	1.00306E-004	0.00000E+000	6.24054E-005	5.99601E-002	6.22377E-001	3.57690E+000	9	...........
	22	0.306667	6.35334E-001	1.01570E-004	0.00000E+000	6.45309E-005	5.99601E-002	6.35572E-001	3.57690E+000	9	...........
	23	0.32	6.48240E-001	1.00556E-004	0.00000E+000	6.51846E-005	5.99601E-002	6.48487E-001	3.57690E+000	9	...........
	24	0.333333	6.60807E-001	1.01215E-004	0.00000E+000	6.68834E-005	5.99601E-002	6.61070E-001	3.57690E+000	9	...........
	25	0.346667	6.73105E-001	1.00223E-004	0.00000E+000	6.74605E-005	5.99601E-002	6.73335E-001	3.57690E+000	9	...........
	26	0.36	6.85035E-001	1.01725E-004	0.00000E+000	6.96853E-005	5.99601E-002	6.85298E-001	3.57690E+000	9	...........
	27	0.373333	6.96685E-001	1.01135E-004	0.00000E+000	7.04589E-005	5.99601E-002	6.96939E-001	3.57690E+000	9	...........
	28	0.386667	7.07998E-001	1.01159E-004	0.00000E+000	7.16200E-005	5.99601E-002	7.08281E-001	3.57690E+000	9	...........
	29	0.4	7.19063E-001	1.00705E-004	0.00000E+000	7.24135E-005	5.99601E-002	7.19324E-001	3.57690E+000	9	...........
	30	0.413333	7.29776E-001	1.01166E-004	0.00000E+000	7.38284E-005	5.99601E-002	7.30089E-001	3.57690E+000	9	...........
	31	0.426667	7.40260E-001	1.01447E-004	0.00000E+000	7.50972E-005	5.99601E-002	7.40535E-001	3.57690E+000	9	...........
	32	0.44	7.50448E-001	1.00321E-004	0.00000E+000	7.52855E-005	5.99601E-002	7.50725E-001	3.57690E+000	9	...........
	33	0.453333	7.60354E-001	9.99145E-005	0.00000E+000	7.59704E-005	5.99601E-002	7.60619E-001	3.57690E+000	9	...........
	34	0.466667	7.69965E-001	9.93040E-005	0.00000E+000	7.64605E-005	5.99601E-002	7.70255E-001	3.57690E+000	9	...........
	35	0.48	7.79301E-001	1.00770E-004	0.00000E+000	7.85300E-005	5.99601E-002	7.79587E-001	3.57690E+000	9	...........
	36	0.493333	7.88360E-001	1.01290E-004	0.00000E+000	7.98528E-005	5.99601E-002	7.88659E-001	3.57690E+000	9	...........
	37	0.506667	7.97174E-001	1.01588E-004	0.00000E+000	8.09831E-005	5.99601E-002	7.97470E-001	3.57690E+000	9	...........
	38	0.52	8.05703E-001	1.01242E-004	0.00000E+000	8.15709E-005	5.99601E-002	8.05996E-001	3.57690E+000	9	...........
	39	0.533333	8.13938E-001	1.00151E-004	0.00000E+000	8.15168E-005	5.99601E-002	8.14233E-001	3.57690E+000	9	...........
	40	0.546667	8.21981E-001	1.00150E-004	0.00000E+000	8.23214E-005	5.99601E-002	8.22247E-001	3.57690E+000	9	...........
	41	0.56	8.29701E-001	1.01201E-004	0.00000E+000	8.39667E-005	5.99601E-002	8.29993E-001	3.57690E+000	9	...........
	42	0.573333	8.37233E-001	1.00681E-004	0.00000E+000	8.42938E-005	5.99601E-002	8.37526E-001	3.57690E+000	9	...........
	43	0.586667	8.44514E-001	1.00445E-004	0.00000E+000	8.48270E-005	5.99601E-002	8.44813E-001	3.57690E+000	9	...........
	44	0.6	8.51587E-001	1.01465E-004	0.00000E+000	8.64062E-005	5.99601E-002	8.51871E-001	3.57690E+000	9	...........
	45	0.613333	8.58414E-001	1.00914E-004	0.00000E+000	8.66257E-005	5.99601E-002	8.58708E-001	3.57690E+000	9	...........
	46	0.626667	8.65030E-001	1.00866E-004	0.00000E+000	8.72519E-005	5.99601E-002	8.65337E-001	3.57690E+000	9	...........
	47	0.64	8.71471E-001	1.01189E-004	0.00000E+000	8.81830E-005	5.99601E-002	8.71792E-001	3.57690E+000	9	...........
	48	0.653333	8.77726E-001	1.01240E-004	0.00000E+000	8.88608E-005	5.99601E-002	8.78022E-001	3.57690E+000	9	...........
	49	0.666667	8.83804E-001	9.94894E-005	0.00000E+000	8.79292E-005	5.99601E-002	8.84117E-001	3.57690E+000	9	...........
	50	0.68	8.89690E-001	1.02231E-004	0.00000E+000	9.09536E-005	5.99601E-002	8.90007E-001	3.57690E+000	9	...........
	51	0.693333	8.95420E-001	1.00783E-004	0.00000E+000	9.02435E-005	5.99601E-002	8.95767E-001	3.57690E+000	9	...........
	52	0.706667	9.01028E-001	1.02247E-004	0.00000E+000	9.21277E-005	5.99601E-002	9.01359E-001	3.57690E+000	9	...........
	53	0.72	9.06521E-001	1.00966E-004	0.00000E+000	9.15276E-005	5.99601E-002	9.06858E-001	3.57690E+000	9	...........
	54	0.733333	9.11863E-001	1.01491E-004	0.00000E+000	9.25458E-005	5.99601E-002	9.12200E-001	3.57690E+000	9	...........
	55	0.746667	9.17104E-001	1.00658E-004	0.00000E+000	9.23142E-005	5.99601E-002	9.17457E-001	3.57690E+000	9	...........
	56	0.76	9.22287E-001	9.99749E-005	0.00000E+000	9.22056E-005	5.99601E-002	9.22604E-001	3.57690E+000	9	...........
	57	0.773333	9.27328E-001	1.00880E-004	0.00000E+000	9.35491E-005	5.99601E-002	9.27644E-001	3.57690E+000	9	...........
	58	0.786667	9.32285E-001	1.02111E-004	0.00000E+000	9.51963E-005	5.99601E-002	9.32615E-001	3.57690E+000	9	...........
	59	0.8	9.37120E-001	1.00235E-004	0.00000E+000	9.39326E-005	5.99601E-002	9.37473E-001	3.57690E+000	9	...........
	60	0.813333	9.41918E-001	1.00674E-004	0.00000E+000	9.48267E-005	5.99601E-002	9.42259E-001	3.57690E+000	9	...........
	61	0.826667	9.46640E-001	1.01682E-004	0.00000E+000	9.62558E-005	5.99601E-002	9.46991E-001	3.57690E+000	9	...........
	62	0.84	9.51303E-001	9.98509E-005	0.00000E+000	9.49885E-005	5.99601E-002	9.51646E-001	3.57690E+000	9	...........
	63	0.853333	9.55856E-001	1.00766E-004	0.00000E+000	9.63175E-005	5.99601E-002	9.56189E-001	3.57690E+000	9	...........
	64	0.866667	9.60348E-001	1.00559E-004	0.00000E+000	9.65720E-005	5.99601E-002	9.60708E-001	3.57690E+000	9	...........
	65	0.88	9.64754E-001	9.95998E-005	0.00000E+000	9.60894E-005	5.99601E-002	9.65115E-001	3.57690E+000	9	...........
	66	0.893333	9.69091E-001	1.00974E-004	0.00000E+000	9.78531E-005	5.99601E-002	9.69461E-001	3.57690E+000	9	...........
	67	0.906667	9.73411E-001	1.01441E-004	0.00000E+000	9.87437E-005	5.99601E-002	9.73763E-001	3.57690E+000	9	...........
	68	0.92	9.77604E-001	1.00918E-004	0.00000E+000	9.86577E-005	5.99601E-002	9.77949E-001	3.57690E+000	9	...........
	69	0.933333	9.81722E-001	1.00235E-004	0.00000E+000	9.84033E-005	5.99601E-002	9.82020E-001	3.57690E+000	9	...........
	70	0.946667	9.85751E-001	1.01395E-004	0.00000E+000	9.99502E-005	5.99601E-002	9.86089E-001	3.57690E+000	9	...........
	71	0.96	9.89670E-001	1.02147E-004	0.00000E+000	1.01092E-004	5.99601E-002	9.90015E-001	3.57690E+000	9	...........
	72	0.97333	9.93516E-001	1.01353E-004	0.00000E+000	1.00696E-004	5.99601E-002	9.93852E-001	3.57690E+000	9	...........
	73	0.98667	9.97306E-001	1.01554E-004	0.00000E+000	1.01281E-004	5.99601E-002	9.97661E-001	3.57690E+000	9	...........
	74	0.99167	9.99836E-001	1.00790E-004	0.00000E+000	1.00773E-004	5.99601E-002	1.00019E+000	3.57690E+000	9	...........
STARTTIMEOFFSET	QUANT	1583.373	Start Time Offset (s)
