EXPLAIN
TAG	PWR800_CHARGE
TITLE	LABEL	PWR Cyclic Charge Discharge (Cell) - Charge Step	Test &Identifier
DATE	LABEL	12-7-2017	Date
TIME	LABEL	16:26:10	Time
NOTES	NOTES	2	&Notes...
	supercap test cell
	6M KOH
PSTAT	PSTAT	IFC5000-01520	Potentiostat
CAPACITY	QUANT	1.00000E-003	Capacity (A-hr)
CELLTYPE	SELECTOR	1	&Cell Type
WORKINGCONNECTION	SELECTOR	0	&Working Lead
MAXCHARGETIME	VARIABLEANDUNITS	1.00000E+002	s	1.00000E+002	second(s)	Max &Charge Time
CHARGECURRENT	QUANT	1.00000E-004	&Charge Current (A) 
VOLTAGEFINISH	TWOPARAM	F	1.00000E-003	3.60000E+003	&Voltage Finish	 I (A) < 	Max Time(s)
SAMPLETIME	QUANT	1.00000E-002	Sa&mple Period (s)
CHARGESTOPAT1	MULTIPARAM	4	1.00000E+000	Charge Stop At &1	Voltage > Limit	V
CHARGESTOPAT2	MULTIPARAM	0	0.00000E+000	Charge Stop At &2	None	N/A
AESBHCSELECTOR	TOGGLE	F	Save Both Half Cells
IRCOMP	TOGGLE	F	IR &Measure
EOC	QUANT	0	Open Circuit (V)
SEQUENCER	TOGGLE	TRUE	Run as Sequence
PSTATMODEL	IQUANT	53	Pstat Model
PSTATSECTION	LABEL	IFC5000-01520	Pstat Section
PSTATSERIALNO	LABEL	01520	Pstat Serial Number
CTRLMODE	IQUANT	0	Control Mode
ELECTROMETER	IQUANT	1	RE=0 or CS=1
IESTAB	IQUANT	0	I/E Stability
CASPEED	IQUANT	4	Control Amp Speed
CONVENTION	IQUANT	1	Current Convention
ICHRANGE	IQUANT	2	Ich Range
ICHRANGEMODE	TOGGLE	T	Ich Auto Range
ICHOFFSETENABLE	TOGGLE	F	Ich Offset Enable
ICHOFFSET	QUANT	0	Ich Offset (V)
ICHFILTER	IQUANT	1	Ich Filter
VCHRANGE	IQUANT	2	Vch Range
VCHRANGEMODE	TOGGLE	T	Vch Auto Range
VCHOFFSETENABLE	TOGGLE	F	Vch Offset Enable
VCHOFFSET	QUANT	0	Vch Offset (V)
VCHFILTER	IQUANT	1	Vch Filter
IERANGELOWERLIMIT	IQUANT	9	I/E Range Lower Limit
IERANGEMODE	TOGGLE	F	I/E AutoRange
IERANGE	IQUANT	9	I/E Range
ACHSELECT	IQUANT	1	Ach Select
ACHRANGE	IQUANT	2	Ach Range
ACHOFFSETENABLE	TOGGLE	F	Ach Offset Enable
ACHOFFSET	QUANT	0	Ach Offset (V)
ACHFILTER	IQUANT	1	Ach Filter
CABLEID	IQUANT	14	Cable ID
DCCALDATE	LABEL	5-7-2017	DC Calibration Date
ACCALDATE	LABEL	12/3/2015	AC Calibration Date
FRAMEWORKVERSION	QUANT	7.01	Framework Version
INSTRUMENTVERSION	LABEL	4.00	Instrument Version
CURVE	TABLE	77
	Pt	T	Vf	Im	Vu	Pwr	Sig	Ach	Temp	IERange	Over
	#	s	V	A	V	W	V	V	deg C	#	bits
	0	0.013333	2.62162E-001	9.98655E-005	0.00000E+000	2.61809E-005	5.99601E-002	2.62238E-001	3.57680E+000	9	...........
	1	0.026667	2.84915E-001	1.00737E-004	0.00000E+000	2.87014E-005	5.99601E-002	2.84973E-001	3.57680E+000	9	...........
	2	0.04	3.06283E-001	1.01672E-004	0.00000E+000	3.11405E-005	5.99601E-002	3.06346E-001	3.57680E+000	9	...........
	3	0.053333	3.26651E-001	1.01935E-004	0.00000E+000	3.32971E-005	5.99601E-002	3.26713E-001	3.57680E+000	9	...........
	4	0.066667	3.46223E-001	1.00840E-004	0.00000E+000	3.49130E-005	5.99601E-002	3.46290E-001	3.57680E+000	9	...........
	5	0.08	3.65132E-001	1.00203E-004	0.00000E+000	3.65873E-005	5.99601E-002	3.65205E-001	3.57680E+000	9	...........
	6	0.093333	3.83476E-001	1.01410E-004	0.00000E+000	3.88882E-005	5.99601E-002	3.83551E-001	3.57680E+000	9	...........
	7	0.106667	4.01317E-001	1.02617E-004	0.00000E+000	4.11820E-005	5.99601E-002	4.01395E-001	3.57680E+000	9	...........
	8	0.12	4.18688E-001	1.00034E-004	0.00000E+000	4.18832E-005	5.99601E-002	4.18773E-001	3.57680E+000	9	...........
	9	0.133333	4.35639E-001	1.00815E-004	0.00000E+000	4.39188E-005	5.99601E-002	4.35733E-001	3.57680E+000	9	...........
	10	0.146667	4.52196E-001	9.98061E-005	0.00000E+000	4.51319E-005	5.99601E-002	4.52295E-001	3.57680E+000	9	...........
	11	0.16	4.68378E-001	1.00602E-004	0.00000E+000	4.71199E-005	5.99601E-002	4.68473E-001	3.57680E+000	9	...........
	12	0.173333	4.84207E-001	1.01403E-004	0.00000E+000	4.91002E-005	5.99601E-002	4.84311E-001	3.57680E+000	9	...........
	13	0.186667	4.99691E-001	1.00851E-004	0.00000E+000	5.03944E-005	5.99601E-002	4.99805E-001	3.57680E+000	9	...........
	14	0.2	5.14848E-001	1.00505E-004	0.00000E+000	5.17449E-005	5.99601E-002	5.14964E-001	3.57680E+000	9	...........
	15	0.213333	5.29654E-001	1.01367E-004	0.00000E+000	5.36894E-005	5.99601E-002	5.29763E-001	3.57680E+000	9	...........
	16	0.226667	5.43956E-001	1.01338E-004	0.00000E+000	5.51233E-005	5.99601E-002	5.44185E-001	3.57680E+000	9	...........
	17	0.24	5.58201E-001	1.00539E-004	0.00000E+000	5.61208E-005	5.99601E-002	5.58431E-001	3.57680E+000	9	...........
	18	0.253333	5.72162E-001	1.01249E-004	0.00000E+000	5.79309E-005	5.99601E-002	5.72406E-001	3.57680E+000	9	...........
	19	0.266667	5.85829E-001	1.01478E-004	0.00000E+000	5.94490E-005	5.99601E-002	5.86076E-001	3.57680E+000	9	...........
	20	0.28	5.99220E-001	1.00113E-004	0.00000E+000	5.99900E-005	5.99601E-002	5.99478E-001	3.57680E+000	9	...........
	21	0.293333	6.12308E-001	1.01242E-004	0.00000E+000	6.19912E-005	5.99601E-002	6.12570E-001	3.57680E+000	9	...........
	22	0.306667	6.25175E-001	1.00614E-004	0.00000E+000	6.29011E-005	5.99601E-002	6.25396E-001	3.57680E+000	9	...........
	23	0.32	6.37730E-001	1.00898E-004	0.00000E+000	6.43457E-005	5.99601E-002	6.37992E-001	3.57680E+000	9	...........
	24	0.333333	6.50047E-001	1.01680E-004	0.00000E+000	6.60971E-005	5.99601E-002	6.50294E-001	3.57680E+000	9	...........
	25	0.346667	6.62077E-001	1.00698E-004	0.00000E+000	6.66699E-005	5.99601E-002	6.62313E-001	3.57680E+000	9	...........
	26	0.36	6.73865E-001	1.01130E-004	0.00000E+000	6.81483E-005	5.99601E-002	6.74129E-001	3.57680E+000	9	...........
	27	0.373333	6.85344E-001	1.00516E-004	0.00000E+000	6.88878E-005	5.99601E-002	6.85620E-001	3.57680E+000	9	...........
	28	0.386667	6.96598E-001	9.95113E-005	0.00000E+000	6.93193E-005	5.99601E-002	6.96856E-001	3.57680E+000	9	...........
	29	0.4	7.07595E-001	1.02123E-004	0.00000E+000	7.22620E-005	5.99601E-002	7.07856E-001	3.57680E+000	9	...........
	30	0.413333	7.18349E-001	1.01569E-004	0.00000E+000	7.29620E-005	5.99601E-002	7.18583E-001	3.57680E+000	9	...........
	31	0.426667	7.28842E-001	1.01147E-004	0.00000E+000	7.37202E-005	5.99601E-002	7.29076E-001	3.57680E+000	9	...........
	32	0.44	7.39058E-001	1.00784E-004	0.00000E+000	7.44856E-005	5.99601E-002	7.39274E-001	3.57680E+000	9	...........
	33	0.453333	7.49049E-001	1.00516E-004	0.00000E+000	7.52912E-005	5.99601E-002	7.49290E-001	3.57680E+000	9	...........
	34	0.466667	7.58792E-001	1.00271E-004	0.00000E+000	7.60847E-005	5.99601E-002	7.59029E-001	3.57680E+000	9	...........
	35	0.48	7.68275E-001	1.01170E-004	0.00000E+000	7.77264E-005	5.99601E-002	7.68542E-001	3.57680E+000	9	...........
	36	0.493333	7.77530E-001	1.00947E-004	0.00000E+000	7.84893E-005	5.99601E-002	7.77777E-001	3.57680E+000	9	...........
	37	0.506667	7.86541E-001	1.01965E-004	0.00000E+000	8.01996E-005	5.99601E-002	7.86785E-001	3.57680E+000	9	...........
	38	0.52	7.95318E-001	1.01310E-004	0.00000E+000	8.05733E-005	5.99601E-002	7.95575E-001	3.57680E+000	9	...........
	39	0.533333	8.03846E-001	1.02202E-004	0.00000E+000	8.21551E-005	5.99601E-002	8.04106E-001	3.57680E+000	9	...........
	40	0.546667	8.12143E-001	1.01269E-004	0.00000E+000	8.22448E-005	5.99601E-002	8.12412E-001	3.57680E+000	9	...........
	41	0.56	8.20190E-001	1.00360E-004	0.00000E+000	8.23146E-005	5.99601E-002	8.20471E-001	3.57680E+000	9	...........
	42	0.573333	8.28007E-001	1.01017E-004	0.00000E+000	8.36427E-005	5.99601E-002	8.28300E-001	3.57680E+000	9	...........
	43	0.586667	8.35589E-001	1.01044E-004	0.00000E+000	8.44312E-005	5.99601E-002	8.35916E-001	3.57680E+000	9	...........
	44	0.6	8.42987E-001	1.00540E-004	0.00000E+000	8.47536E-005	5.99601E-002	8.43283E-001	3.57680E+000	9	...........
	45	0.613333	8.50147E-001	1.01044E-004	0.00000E+000	8.59022E-005	5.99601E-002	8.50471E-001	3.57680E+000	9	...........
	46	0.626667	8.57071E-001	1.00933E-004	0.00000E+000	8.65071E-005	5.99601E-002	8.57414E-001	3.57680E+000	9	...........
	47	0.64	8.63821E-001	1.01757E-004	0.00000E+000	8.78994E-005	5.99601E-002	8.64139E-001	3.57680E+000	9	...........
	48	0.653333	8.70376E-001	1.01690E-004	0.00000E+000	8.85084E-005	5.99601E-002	8.70687E-001	3.57680E+000	9	...........
	49	0.666667	8.76693E-001	1.02441E-004	0.00000E+000	8.98094E-005	5.99601E-002	8.77007E-001	3.57680E+000	9	...........
	50	0.68	8.82835E-001	1.01332E-004	0.00000E+000	8.94599E-005	5.99601E-002	8.83156E-001	3.57680E+000	9	...........
	51	0.693333	8.88781E-001	1.00709E-004	0.00000E+000	8.95087E-005	5.99601E-002	8.89076E-001	3.57680E+000	9	...........
	52	0.706667	8.94536E-001	9.96624E-005	0.00000E+000	8.91515E-005	5.99601E-002	8.94869E-001	3.57680E+000	9	...........
	53	0.72	9.00144E-001	1.00360E-004	0.00000E+000	9.03388E-005	5.99601E-002	9.00477E-001	3.57680E+000	9	...........
	54	0.733333	9.05595E-001	1.01876E-004	0.00000E+000	9.22587E-005	5.99601E-002	9.05957E-001	3.57680E+000	9	...........
	55	0.746667	9.10916E-001	1.01090E-004	0.00000E+000	9.20842E-005	5.99601E-002	9.11237E-001	3.57680E+000	9	...........
	56	0.76	9.16095E-001	1.00793E-004	0.00000E+000	9.23358E-005	5.99601E-002	9.16430E-001	3.57680E+000	9	...........
	57	0.773333	9.21187E-001	1.01756E-004	0.00000E+000	9.37358E-005	5.99601E-002	9.21489E-001	3.57680E+000	9	...........
	58	0.786667	9.26133E-001	1.00667E-004	0.00000E+000	9.32307E-005	5.99601E-002	9.26430E-001	3.57680E+000	9	...........
	59	0.8	9.30953E-001	1.00540E-004	0.00000E+000	9.35977E-005	5.99601E-002	9.31260E-001	3.57680E+000	9	...........
	60	0.813333	9.35661E-001	1.00649E-004	0.00000E+000	9.41734E-005	5.99601E-002	9.35999E-001	3.57680E+000	9	...........
	61	0.826667	9.40286E-001	1.00689E-004	0.00000E+000	9.46761E-005	5.99601E-002	9.40606E-001	3.57680E+000	9	...........
	62	0.84	9.44822E-001	1.01395E-004	0.00000E+000	9.58002E-005	5.99601E-002	9.45140E-001	3.57680E+000	9	...........
	63	0.853333	9.49309E-001	1.01095E-004	0.00000E+000	9.59703E-005	5.99601E-002	9.49633E-001	3.57732E+000	9	...........
	64	0.866667	9.53673E-001	1.00554E-004	0.00000E+000	9.58958E-005	5.99601E-002	9.54013E-001	3.57820E+000	9	...........
	65	0.88	9.57974E-001	1.00287E-004	0.00000E+000	9.60728E-005	5.99601E-002	9.58311E-001	3.57820E+000	9	...........
	66	0.893333	9.62160E-001	1.01676E-004	0.00000E+000	9.78288E-005	5.99601E-002	9.62524E-001	3.57820E+000	9	...........
	67	0.906667	9.66304E-001	1.01172E-004	0.00000E+000	9.77629E-005	5.99601E-002	9.66658E-001	3.57820E+000	9	...........
	68	0.92	9.70360E-001	1.01317E-004	0.00000E+000	9.83139E-005	5.99601E-002	9.70711E-001	3.57820E+000	9	...........
	69	0.933333	9.74382E-001	1.00577E-004	0.00000E+000	9.80005E-005	5.99601E-002	9.74724E-001	3.57820E+000	9	...........
	70	0.946667	9.78294E-001	1.00766E-004	0.00000E+000	9.85785E-005	5.99601E-002	9.78615E-001	3.57820E+000	9	...........
	71	0.96	9.82097E-001	1.00318E-004	0.00000E+000	9.85217E-005	5.99601E-002	9.82403E-001	3.57820E+000	9	...........
	72	0.97333	9.85827E-001	1.01397E-004	0.00000E+000	9.99600E-005	5.99601E-002	9.86157E-001	3.57820E+000	9	...........
	73	0.98667	9.89515E-001	1.00907E-004	0.00000E+000	9.98494E-005	5.99601E-002	9.89835E-001	3.57820E+000	9	...........
	74	1	9.93070E-001	9.99958E-005	0.00000E+000	9.93028E-005	5.99601E-002	9.93407E-001	3.57820E+000	9	...........
	75	1.01333	9.96574E-001	1.01023E-004	0.00000E+000	1.00677E-004	5.99601E-002	9.96935E-001	3.57820E+000	9	...........
	76	1.02167	9.99388E-001	1.00873E-004	0.00000E+000	1.00811E-004	5.99601E-002	9.99713E-001	3.57820E+000	9	...........
STARTTIMEOFFSET	QUANT	689.2414	Start Time Offset (s)
