EXPLAIN
TAG	PWR800_CHARGE
TITLE	LABEL	PWR Cyclic Charge Discharge (Cell) - Charge Step	Test &Identifier
DATE	LABEL	12-7-2017	Date
TIME	LABEL	16:50:15	Time
NOTES	NOTES	2	&Notes...
	supercap test cell
	6M KOH
PSTAT	PSTAT	IFC5000-01520	Potentiostat
CAPACITY	QUANT	1.00000E-003	Capacity (A-hr)
CELLTYPE	SELECTOR	1	&Cell Type
WORKINGCONNECTION	SELECTOR	0	&Working Lead
MAXCHARGETIME	VARIABLEANDUNITS	1.00000E+002	s	1.00000E+002	second(s)	Max &Charge Time
CHARGECURRENT	QUANT	1.00000E-004	&Charge Current (A) 
VOLTAGEFINISH	TWOPARAM	F	1.00000E-003	3.60000E+003	&Voltage Finish	 I (A) < 	Max Time(s)
SAMPLETIME	QUANT	1.00000E-002	Sa&mple Period (s)
CHARGESTOPAT1	MULTIPARAM	4	1.00000E+000	Charge Stop At &1	Voltage > Limit	V
CHARGESTOPAT2	MULTIPARAM	0	0.00000E+000	Charge Stop At &2	None	N/A
AESBHCSELECTOR	TOGGLE	F	Save Both Half Cells
IRCOMP	TOGGLE	F	IR &Measure
EOC	QUANT	0	Open Circuit (V)
SEQUENCER	TOGGLE	TRUE	Run as Sequence
PSTATMODEL	IQUANT	53	Pstat Model
PSTATSECTION	LABEL	IFC5000-01520	Pstat Section
PSTATSERIALNO	LABEL	01520	Pstat Serial Number
CTRLMODE	IQUANT	0	Control Mode
ELECTROMETER	IQUANT	1	RE=0 or CS=1
IESTAB	IQUANT	0	I/E Stability
CASPEED	IQUANT	4	Control Amp Speed
CONVENTION	IQUANT	1	Current Convention
ICHRANGE	IQUANT	2	Ich Range
ICHRANGEMODE	TOGGLE	T	Ich Auto Range
ICHOFFSETENABLE	TOGGLE	F	Ich Offset Enable
ICHOFFSET	QUANT	0	Ich Offset (V)
ICHFILTER	IQUANT	1	Ich Filter
VCHRANGE	IQUANT	2	Vch Range
VCHRANGEMODE	TOGGLE	T	Vch Auto Range
VCHOFFSETENABLE	TOGGLE	F	Vch Offset Enable
VCHOFFSET	QUANT	0	Vch Offset (V)
VCHFILTER	IQUANT	1	Vch Filter
IERANGELOWERLIMIT	IQUANT	9	I/E Range Lower Limit
IERANGEMODE	TOGGLE	F	I/E AutoRange
IERANGE	IQUANT	9	I/E Range
ACHSELECT	IQUANT	1	Ach Select
ACHRANGE	IQUANT	2	Ach Range
ACHOFFSETENABLE	TOGGLE	F	Ach Offset Enable
ACHOFFSET	QUANT	0	Ach Offset (V)
ACHFILTER	IQUANT	1	Ach Filter
CABLEID	IQUANT	14	Cable ID
DCCALDATE	LABEL	5-7-2017	DC Calibration Date
ACCALDATE	LABEL	12/3/2015	AC Calibration Date
FRAMEWORKVERSION	QUANT	7.01	Framework Version
INSTRUMENTVERSION	LABEL	4.00	Instrument Version
CURVE	TABLE	74
	Pt	T	Vf	Im	Vu	Pwr	Sig	Ach	Temp	IERange	Over
	#	s	V	A	V	W	V	V	deg C	#	bits
	0	0.013333	2.59170E-001	1.00236E-004	0.00000E+000	2.59783E-005	5.99601E-002	2.59244E-001	3.57640E+000	9	...........
	1	0.026667	2.82237E-001	1.02389E-004	0.00000E+000	2.88980E-005	5.99601E-002	2.82295E-001	3.57640E+000	9	...........
	2	0.04	3.04062E-001	9.98634E-005	0.00000E+000	3.03647E-005	5.99601E-002	3.04118E-001	3.57640E+000	9	...........
	3	0.053333	3.25004E-001	1.01763E-004	0.00000E+000	3.30733E-005	5.99601E-002	3.25069E-001	3.57640E+000	9	...........
	4	0.066667	3.45238E-001	1.00939E-004	0.00000E+000	3.48479E-005	5.99601E-002	3.45306E-001	3.57640E+000	9	...........
	5	0.08	3.64872E-001	1.00808E-004	0.00000E+000	3.67822E-005	5.99601E-002	3.64942E-001	3.57640E+000	9	...........
	6	0.093333	3.83991E-001	1.01128E-004	0.00000E+000	3.88323E-005	5.99601E-002	3.84062E-001	3.57640E+000	9	...........
	7	0.106667	4.02632E-001	1.00690E-004	0.00000E+000	4.05409E-005	5.99601E-002	4.02718E-001	3.57640E+000	9	...........
	8	0.12	4.20840E-001	1.00857E-004	0.00000E+000	4.24448E-005	5.99601E-002	4.20920E-001	3.57640E+000	9	...........
	9	0.133333	4.38636E-001	1.01187E-004	0.00000E+000	4.43841E-005	5.99601E-002	4.38726E-001	3.57640E+000	9	...........
	10	0.146667	4.56038E-001	9.97540E-005	0.00000E+000	4.54916E-005	5.99601E-002	4.56134E-001	3.57640E+000	9	...........
	11	0.16	4.73056E-001	9.95634E-005	0.00000E+000	4.70990E-005	5.99601E-002	4.73153E-001	3.57640E+000	9	...........
	12	0.173333	4.89709E-001	1.00464E-004	0.00000E+000	4.91979E-005	5.99601E-002	4.89813E-001	3.57640E+000	9	...........
	13	0.186667	5.06005E-001	1.00582E-004	0.00000E+000	5.08952E-005	5.99601E-002	5.06112E-001	3.57640E+000	9	...........
	14	0.2	5.21947E-001	1.00815E-004	0.00000E+000	5.26199E-005	5.99601E-002	5.22060E-001	3.57640E+000	9	...........
	15	0.213333	5.37352E-001	1.01000E-004	0.00000E+000	5.42726E-005	5.99601E-002	5.37513E-001	3.57640E+000	9	...........
	16	0.226667	5.52473E-001	1.01338E-004	0.00000E+000	5.59864E-005	5.99601E-002	5.52722E-001	3.57640E+000	9	...........
	17	0.24	5.67395E-001	1.01539E-004	0.00000E+000	5.76126E-005	5.99601E-002	5.67621E-001	3.57640E+000	9	...........
	18	0.253333	5.81951E-001	9.99239E-005	0.00000E+000	5.81508E-005	5.99601E-002	5.82161E-001	3.57640E+000	9	...........
	19	0.266667	5.96162E-001	1.02470E-004	0.00000E+000	6.10888E-005	5.99601E-002	5.96403E-001	3.57640E+000	9	...........
	20	0.28	6.10033E-001	1.00841E-004	0.00000E+000	6.15162E-005	5.99601E-002	6.10301E-001	3.57640E+000	9	...........
	21	0.293333	6.23626E-001	1.00931E-004	0.00000E+000	6.29434E-005	5.99601E-002	6.23862E-001	3.57640E+000	9	...........
	22	0.306667	6.36864E-001	1.00421E-004	0.00000E+000	6.39545E-005	5.99601E-002	6.37077E-001	3.57640E+000	9	...........
	23	0.32	6.49774E-001	1.01447E-004	0.00000E+000	6.59177E-005	5.99601E-002	6.50016E-001	3.57640E+000	9	...........
	24	0.333333	6.62361E-001	1.00853E-004	0.00000E+000	6.68013E-005	5.99601E-002	6.62619E-001	3.57640E+000	9	...........
	25	0.346667	6.74649E-001	1.00451E-004	0.00000E+000	6.77693E-005	5.99601E-002	6.74905E-001	3.57640E+000	9	...........
	26	0.36	6.86601E-001	1.01793E-004	0.00000E+000	6.98912E-005	5.99601E-002	6.86855E-001	3.57640E+000	9	...........
	27	0.373333	6.98252E-001	1.00730E-004	0.00000E+000	7.03351E-005	5.99601E-002	6.98503E-001	3.57640E+000	9	...........
	28	0.386667	7.09591E-001	1.01679E-004	0.00000E+000	7.21508E-005	5.99601E-002	7.09834E-001	3.57640E+000	9	...........
	29	0.4	7.20667E-001	1.00699E-004	0.00000E+000	7.25704E-005	5.99601E-002	7.20891E-001	3.57640E+000	9	...........
	30	0.413333	7.31408E-001	1.01406E-004	0.00000E+000	7.41695E-005	5.99601E-002	7.31635E-001	3.57640E+000	9	...........
	31	0.426667	7.41849E-001	1.01246E-004	0.00000E+000	7.51093E-005	5.99601E-002	7.42091E-001	3.57640E+000	9	...........
	32	0.44	7.52003E-001	1.01360E-004	0.00000E+000	7.62227E-005	5.99601E-002	7.52245E-001	3.57640E+000	9	...........
	33	0.453333	7.61896E-001	1.00858E-004	0.00000E+000	7.68436E-005	5.99601E-002	7.62109E-001	3.57640E+000	9	...........
	34	0.466667	7.71493E-001	1.00563E-004	0.00000E+000	7.75833E-005	5.99601E-002	7.71725E-001	3.57640E+000	9	...........
	35	0.48	7.80794E-001	1.00521E-004	0.00000E+000	7.84861E-005	5.99601E-002	7.81035E-001	3.57640E+000	9	...........
	36	0.493333	7.89838E-001	1.00009E-004	0.00000E+000	7.89912E-005	5.99601E-002	7.90081E-001	3.57640E+000	9	...........
	37	0.506667	7.98628E-001	1.01652E-004	0.00000E+000	8.11824E-005	5.99601E-002	7.98881E-001	3.57640E+000	9	...........
	38	0.52	8.07102E-001	1.00394E-004	0.00000E+000	8.10280E-005	5.99601E-002	8.07381E-001	3.57640E+000	9	...........
	39	0.533333	8.15340E-001	1.00867E-004	0.00000E+000	8.22407E-005	5.99601E-002	8.15625E-001	3.57640E+000	9	...........
	40	0.546667	8.23312E-001	1.00207E-004	0.00000E+000	8.25018E-005	5.99601E-002	8.23632E-001	3.57640E+000	9	...........
	41	0.56	8.31051E-001	1.01193E-004	0.00000E+000	8.40965E-005	5.99601E-002	8.31350E-001	3.57640E+000	9	...........
	42	0.573333	8.38515E-001	1.00415E-004	0.00000E+000	8.41992E-005	5.99601E-002	8.38842E-001	3.57640E+000	9	...........
	43	0.586667	8.45792E-001	1.01889E-004	0.00000E+000	8.61767E-005	5.99601E-002	8.46120E-001	3.57640E+000	9	...........
	44	0.6	8.52812E-001	1.01633E-004	0.00000E+000	8.66734E-005	5.99601E-002	8.53132E-001	3.57640E+000	9	...........
	45	0.613333	8.59619E-001	1.01831E-004	0.00000E+000	8.75355E-005	5.99601E-002	8.59943E-001	3.57640E+000	9	...........
	46	0.626667	8.66233E-001	1.01516E-004	0.00000E+000	8.79364E-005	5.99601E-002	8.66536E-001	3.57640E+000	9	...........
	47	0.64	8.72685E-001	1.01013E-004	0.00000E+000	8.81522E-005	5.99601E-002	8.72963E-001	3.57640E+000	9	...........
	48	0.653333	8.78884E-001	1.00693E-004	0.00000E+000	8.84972E-005	5.99601E-002	8.79171E-001	3.57640E+000	9	...........
	49	0.666667	8.84960E-001	1.02240E-004	0.00000E+000	9.04783E-005	5.99601E-002	8.85226E-001	3.57640E+000	9	...........
	50	0.68	8.90842E-001	1.00761E-004	0.00000E+000	8.97617E-005	5.99601E-002	8.91112E-001	3.57640E+000	9	...........
	51	0.693333	8.96568E-001	1.00966E-004	0.00000E+000	9.05226E-005	5.99601E-002	8.96874E-001	3.57640E+000	9	...........
	52	0.706667	9.02174E-001	1.00407E-004	0.00000E+000	9.05848E-005	5.99601E-002	9.02455E-001	3.57640E+000	9	...........
	53	0.72	9.07651E-001	1.01570E-004	0.00000E+000	9.21901E-005	5.99601E-002	9.07958E-001	3.57640E+000	9	...........
	54	0.733333	9.12991E-001	1.00546E-004	0.00000E+000	9.17975E-005	5.99601E-002	9.13299E-001	3.57640E+000	9	...........
	55	0.746667	9.18262E-001	1.02855E-004	0.00000E+000	9.44476E-005	5.99601E-002	9.18578E-001	3.57640E+000	9	...........
	56	0.76	9.23460E-001	1.01127E-004	0.00000E+000	9.33870E-005	5.99601E-002	9.23729E-001	3.57640E+000	9	...........
	57	0.773333	9.28505E-001	1.01359E-004	0.00000E+000	9.41119E-005	5.99601E-002	9.28763E-001	3.57640E+000	9	...........
	58	0.786667	9.33466E-001	1.00712E-004	0.00000E+000	9.40108E-005	5.99601E-002	9.33739E-001	3.57640E+000	9	...........
	59	0.8	9.38337E-001	1.00280E-004	0.00000E+000	9.40966E-005	5.99601E-002	9.38626E-001	3.57640E+000	9	...........
	60	0.813333	9.43130E-001	1.00700E-004	0.00000E+000	9.49733E-005	5.99601E-002	9.43435E-001	3.57640E+000	9	...........
	61	0.826667	9.47894E-001	1.01310E-004	0.00000E+000	9.60308E-005	5.99601E-002	9.48189E-001	3.57640E+000	9	...........
	62	0.84	9.52563E-001	1.01242E-004	0.00000E+000	9.64393E-005	5.99601E-002	9.52845E-001	3.57640E+000	9	...........
	63	0.853333	9.57121E-001	1.01697E-004	0.00000E+000	9.73365E-005	5.99601E-002	9.57441E-001	3.57640E+000	9	...........
	64	0.866667	9.61638E-001	1.01041E-004	0.00000E+000	9.71647E-005	5.99601E-002	9.61951E-001	3.57640E+000	9	...........
	65	0.88	9.66048E-001	1.00298E-004	0.00000E+000	9.68926E-005	5.99601E-002	9.66369E-001	3.57752E+000	9	...........
	66	0.893333	9.70386E-001	1.01032E-004	0.00000E+000	9.80405E-005	5.99601E-002	9.70720E-001	3.57790E+000	9	...........
	67	0.906667	9.74719E-001	1.01248E-004	0.00000E+000	9.86885E-005	5.99601E-002	9.75015E-001	3.57790E+000	9	...........
	68	0.92	9.78922E-001	9.99999E-005	0.00000E+000	9.78921E-005	5.99601E-002	9.79209E-001	3.57790E+000	9	...........
	69	0.933333	9.83000E-001	1.00802E-004	0.00000E+000	9.90885E-005	5.99601E-002	9.83333E-001	3.57790E+000	9	...........
	70	0.946667	9.87059E-001	1.00024E-004	0.00000E+000	9.87295E-005	5.99601E-002	9.87370E-001	3.57790E+000	9	...........
	71	0.96	9.90989E-001	1.01275E-004	0.00000E+000	1.00363E-004	5.99601E-002	9.91326E-001	3.57790E+000	9	...........
	72	0.97333	9.94858E-001	9.99510E-005	0.00000E+000	9.94370E-005	5.99601E-002	9.95190E-001	3.57790E+000	9	...........
	73	0.98667	9.98640E-001	1.01320E-004	0.00000E+000	1.01182E-004	5.99601E-002	9.99011E-001	3.57790E+000	9	...........
STARTTIMEOFFSET	QUANT	1713.955	Start Time Offset (s)
