EXPLAIN
TAG	PWR800_CHARGE
TITLE	LABEL	PWR Cyclic Charge Discharge (Cell) - Charge Step	Test &Identifier
DATE	LABEL	12-7-2017	Date
TIME	LABEL	16:39:11	Time
NOTES	NOTES	2	&Notes...
	supercap test cell
	6M KOH
PSTAT	PSTAT	IFC5000-01520	Potentiostat
CAPACITY	QUANT	1.00000E-003	Capacity (A-hr)
CELLTYPE	SELECTOR	1	&Cell Type
WORKINGCONNECTION	SELECTOR	0	&Working Lead
MAXCHARGETIME	VARIABLEANDUNITS	1.00000E+002	s	1.00000E+002	second(s)	Max &Charge Time
CHARGECURRENT	QUANT	1.00000E-004	&Charge Current (A) 
VOLTAGEFINISH	TWOPARAM	F	1.00000E-003	3.60000E+003	&Voltage Finish	 I (A) < 	Max Time(s)
SAMPLETIME	QUANT	1.00000E-002	Sa&mple Period (s)
CHARGESTOPAT1	MULTIPARAM	4	1.00000E+000	Charge Stop At &1	Voltage > Limit	V
CHARGESTOPAT2	MULTIPARAM	0	0.00000E+000	Charge Stop At &2	None	N/A
AESBHCSELECTOR	TOGGLE	F	Save Both Half Cells
IRCOMP	TOGGLE	F	IR &Measure
EOC	QUANT	0	Open Circuit (V)
SEQUENCER	TOGGLE	TRUE	Run as Sequence
PSTATMODEL	IQUANT	53	Pstat Model
PSTATSECTION	LABEL	IFC5000-01520	Pstat Section
PSTATSERIALNO	LABEL	01520	Pstat Serial Number
CTRLMODE	IQUANT	0	Control Mode
ELECTROMETER	IQUANT	1	RE=0 or CS=1
IESTAB	IQUANT	0	I/E Stability
CASPEED	IQUANT	4	Control Amp Speed
CONVENTION	IQUANT	1	Current Convention
ICHRANGE	IQUANT	2	Ich Range
ICHRANGEMODE	TOGGLE	T	Ich Auto Range
ICHOFFSETENABLE	TOGGLE	F	Ich Offset Enable
ICHOFFSET	QUANT	0	Ich Offset (V)
ICHFILTER	IQUANT	1	Ich Filter
VCHRANGE	IQUANT	2	Vch Range
VCHRANGEMODE	TOGGLE	T	Vch Auto Range
VCHOFFSETENABLE	TOGGLE	F	Vch Offset Enable
VCHOFFSET	QUANT	0	Vch Offset (V)
VCHFILTER	IQUANT	1	Vch Filter
IERANGELOWERLIMIT	IQUANT	9	I/E Range Lower Limit
IERANGEMODE	TOGGLE	F	I/E AutoRange
IERANGE	IQUANT	9	I/E Range
ACHSELECT	IQUANT	1	Ach Select
ACHRANGE	IQUANT	2	Ach Range
ACHOFFSETENABLE	TOGGLE	F	Ach Offset Enable
ACHOFFSET	QUANT	0	Ach Offset (V)
ACHFILTER	IQUANT	1	Ach Filter
CABLEID	IQUANT	14	Cable ID
DCCALDATE	LABEL	5-7-2017	DC Calibration Date
ACCALDATE	LABEL	12/3/2015	AC Calibration Date
FRAMEWORKVERSION	QUANT	7.01	Framework Version
INSTRUMENTVERSION	LABEL	4.00	Instrument Version
CURVE	TABLE	75
	Pt	T	Vf	Im	Vu	Pwr	Sig	Ach	Temp	IERange	Over
	#	s	V	A	V	W	V	V	deg C	#	bits
	0	0.013333	2.59410E-001	1.01495E-004	0.00000E+000	2.63288E-005	5.99601E-002	2.59488E-001	3.57640E+000	9	...........
	1	0.026667	2.82371E-001	1.01953E-004	0.00000E+000	2.87887E-005	5.99601E-002	2.82435E-001	3.57640E+000	9	...........
	2	0.04	3.04064E-001	1.00769E-004	0.00000E+000	3.06402E-005	5.99601E-002	3.04129E-001	3.57640E+000	9	...........
	3	0.053333	3.24840E-001	1.01716E-004	0.00000E+000	3.30414E-005	5.99601E-002	3.24910E-001	3.57640E+000	9	...........
	4	0.066667	3.44873E-001	1.01671E-004	0.00000E+000	3.50636E-005	5.99601E-002	3.44945E-001	3.57640E+000	9	...........
	5	0.08	3.64287E-001	1.00144E-004	0.00000E+000	3.64811E-005	5.99601E-002	3.64362E-001	3.57640E+000	9	...........
	6	0.093333	3.83180E-001	1.01634E-004	0.00000E+000	3.89439E-005	5.99601E-002	3.83255E-001	3.57640E+000	9	...........
	7	0.106667	4.01591E-001	1.00677E-004	0.00000E+000	4.04311E-005	5.99601E-002	4.01674E-001	3.57640E+000	9	...........
	8	0.12	4.19554E-001	1.00250E-004	0.00000E+000	4.20603E-005	5.99601E-002	4.19645E-001	3.57640E+000	9	...........
	9	0.133333	4.37111E-001	1.00690E-004	0.00000E+000	4.40125E-005	5.99601E-002	4.37206E-001	3.57640E+000	9	...........
	10	0.146667	4.54272E-001	1.01515E-004	0.00000E+000	4.61154E-005	5.99601E-002	4.54370E-001	3.57640E+000	9	...........
	11	0.16	4.71048E-001	1.00734E-004	0.00000E+000	4.74508E-005	5.99601E-002	4.71146E-001	3.57640E+000	9	...........
	12	0.173333	4.87470E-001	1.01898E-004	0.00000E+000	4.96723E-005	5.99601E-002	4.87577E-001	3.57640E+000	9	...........
	13	0.186667	5.03523E-001	1.00709E-004	0.00000E+000	5.07095E-005	5.99601E-002	5.03635E-001	3.57640E+000	9	...........
	14	0.2	5.19242E-001	9.94029E-005	0.00000E+000	5.16141E-005	5.99601E-002	5.19358E-001	3.57655E+000	9	...........
	15	0.213333	5.34475E-001	1.01976E-004	0.00000E+000	5.45038E-005	5.99601E-002	5.34648E-001	3.57680E+000	9	...........
	16	0.226667	5.49373E-001	1.00775E-004	0.00000E+000	5.53631E-005	5.99601E-002	5.49610E-001	3.57680E+000	9	...........
	17	0.24	5.64104E-001	1.01970E-004	0.00000E+000	5.75217E-005	5.99601E-002	5.64341E-001	3.57680E+000	9	...........
	18	0.253333	5.78480E-001	1.01675E-004	0.00000E+000	5.88171E-005	5.99601E-002	5.78735E-001	3.57680E+000	9	...........
	19	0.266667	5.92540E-001	1.01017E-004	0.00000E+000	5.98565E-005	5.99601E-002	5.92796E-001	3.57680E+000	9	...........
	20	0.28	6.06265E-001	1.01455E-004	0.00000E+000	6.15089E-005	5.99601E-002	6.06563E-001	3.57680E+000	9	...........
	21	0.293333	6.19783E-001	1.00883E-004	0.00000E+000	6.25258E-005	5.99601E-002	6.19993E-001	3.57680E+000	9	...........
	22	0.306667	6.32862E-001	1.00151E-004	0.00000E+000	6.33817E-005	5.99601E-002	6.33121E-001	3.57680E+000	9	...........
	23	0.32	6.45713E-001	9.97426E-005	0.00000E+000	6.44050E-005	5.99601E-002	6.45958E-001	3.57680E+000	9	...........
	24	0.333333	6.58220E-001	1.00720E-004	0.00000E+000	6.62958E-005	5.99601E-002	6.58462E-001	3.57680E+000	9	...........
	25	0.346667	6.70438E-001	1.00569E-004	0.00000E+000	6.74251E-005	5.99601E-002	6.70698E-001	3.57680E+000	9	...........
	26	0.36	6.82352E-001	1.01604E-004	0.00000E+000	6.93300E-005	5.99601E-002	6.82599E-001	3.57680E+000	9	...........
	27	0.373333	6.93942E-001	1.01878E-004	0.00000E+000	7.06977E-005	5.99601E-002	6.94238E-001	3.57680E+000	9	...........
	28	0.386667	7.05273E-001	9.94290E-005	0.00000E+000	7.01246E-005	5.99601E-002	7.05545E-001	3.57680E+000	9	...........
	29	0.4	7.16294E-001	1.01989E-004	0.00000E+000	7.30540E-005	5.99601E-002	7.16579E-001	3.57680E+000	9	...........
	30	0.413333	7.27074E-001	1.00312E-004	0.00000E+000	7.29346E-005	5.99601E-002	7.27338E-001	3.57680E+000	9	...........
	31	0.426667	7.37527E-001	1.01234E-004	0.00000E+000	7.46624E-005	5.99601E-002	7.37771E-001	3.57680E+000	9	...........
	32	0.44	7.47729E-001	1.01239E-004	0.00000E+000	7.56991E-005	5.99601E-002	7.47983E-001	3.57680E+000	9	...........
	33	0.453333	7.57640E-001	1.01155E-004	0.00000E+000	7.66394E-005	5.99601E-002	7.57887E-001	3.57680E+000	9	...........
	34	0.466667	7.67270E-001	1.00516E-004	0.00000E+000	7.71226E-005	5.99601E-002	7.67559E-001	3.57680E+000	9	...........
	35	0.48	7.76653E-001	9.99030E-005	0.00000E+000	7.75900E-005	5.99601E-002	7.76906E-001	3.57680E+000	9	...........
	36	0.493333	7.85747E-001	1.00631E-004	0.00000E+000	7.90707E-005	5.99601E-002	7.86014E-001	3.57680E+000	9	...........
	37	0.506667	7.94598E-001	1.00083E-004	0.00000E+000	7.95259E-005	5.99601E-002	7.94894E-001	3.57680E+000	9	...........
	38	0.52	8.03174E-001	9.98374E-005	0.00000E+000	8.01869E-005	5.99601E-002	8.03470E-001	3.57680E+000	9	...........
	39	0.533333	8.11475E-001	1.01347E-004	0.00000E+000	8.22406E-005	5.99601E-002	8.11788E-001	3.57680E+000	9	...........
	40	0.546667	8.19552E-001	1.00778E-004	0.00000E+000	8.25930E-005	5.99601E-002	8.19872E-001	3.57680E+000	9	...........
	41	0.56	8.27380E-001	1.01464E-004	0.00000E+000	8.39491E-005	5.99601E-002	8.27693E-001	3.57680E+000	9	...........
	42	0.573333	8.34953E-001	1.00135E-004	0.00000E+000	8.36083E-005	5.99601E-002	8.35281E-001	3.57680E+000	9	...........
	43	0.586667	8.42304E-001	1.00268E-004	0.00000E+000	8.44559E-005	5.99601E-002	8.42629E-001	3.57680E+000	9	...........
	44	0.6	8.49428E-001	1.00495E-004	0.00000E+000	8.53631E-005	5.99601E-002	8.49764E-001	3.57680E+000	9	...........
	45	0.613333	8.56318E-001	1.00967E-004	0.00000E+000	8.64597E-005	5.99601E-002	8.56649E-001	3.57680E+000	9	...........
	46	0.626667	8.63003E-001	1.01173E-004	0.00000E+000	8.73127E-005	5.99601E-002	8.63324E-001	3.57680E+000	9	...........
	47	0.64	8.69507E-001	1.00870E-004	0.00000E+000	8.77070E-005	5.99601E-002	8.69811E-001	3.57680E+000	9	...........
	48	0.653333	8.75803E-001	1.01070E-004	0.00000E+000	8.85173E-005	5.99601E-002	8.76108E-001	3.57680E+000	9	...........
	49	0.666667	8.81905E-001	1.00496E-004	0.00000E+000	8.86278E-005	5.99601E-002	8.82181E-001	3.57680E+000	9	...........
	50	0.68	8.87820E-001	1.00323E-004	0.00000E+000	8.90686E-005	5.99601E-002	8.88137E-001	3.57680E+000	9	...........
	51	0.693333	8.93580E-001	1.02103E-004	0.00000E+000	9.12377E-005	5.99601E-002	8.93904E-001	3.57680E+000	9	...........
	52	0.706667	8.99194E-001	1.00832E-004	0.00000E+000	9.06679E-005	5.99601E-002	8.99527E-001	3.57680E+000	9	...........
	53	0.72	9.04682E-001	1.01451E-004	0.00000E+000	9.17811E-005	5.99601E-002	9.05022E-001	3.57680E+000	9	...........
	54	0.733333	9.10047E-001	1.01727E-004	0.00000E+000	9.25766E-005	5.99601E-002	9.10365E-001	3.57680E+000	9	...........
	55	0.746667	9.15278E-001	1.01510E-004	0.00000E+000	9.29096E-005	5.99601E-002	9.15598E-001	3.57680E+000	9	...........
	56	0.76	9.20409E-001	1.01347E-004	0.00000E+000	9.32808E-005	5.99601E-002	9.20745E-001	3.57680E+000	9	...........
	57	0.773333	9.25477E-001	1.01957E-004	0.00000E+000	9.43585E-005	5.99601E-002	9.25767E-001	3.57680E+000	9	...........
	58	0.786667	9.30387E-001	1.01655E-004	0.00000E+000	9.45789E-005	5.99601E-002	9.30698E-001	3.57680E+000	9	...........
	59	0.8	9.35218E-001	1.01988E-004	0.00000E+000	9.53809E-005	5.99601E-002	9.35553E-001	3.57680E+000	9	...........
	60	0.813333	9.39953E-001	1.01206E-004	0.00000E+000	9.51292E-005	5.99601E-002	9.40318E-001	3.57680E+000	9	...........
	61	0.826667	9.44618E-001	9.98582E-005	0.00000E+000	9.43279E-005	5.99601E-002	9.44975E-001	3.57680E+000	9	...........
	62	0.84	9.49265E-001	1.01763E-004	0.00000E+000	9.65998E-005	5.99601E-002	9.49618E-001	3.57680E+000	9	...........
	63	0.853333	9.53763E-001	1.01340E-004	0.00000E+000	9.66541E-005	5.99601E-002	9.54116E-001	3.57680E+000	9	...........
	64	0.866667	9.58199E-001	1.01122E-004	0.00000E+000	9.68951E-005	5.99601E-002	9.58564E-001	3.57680E+000	9	...........
	65	0.88	9.62566E-001	1.01214E-004	0.00000E+000	9.74249E-005	5.99601E-002	9.62936E-001	3.57680E+000	9	...........
	66	0.893333	9.66859E-001	1.00255E-004	0.00000E+000	9.69326E-005	5.99601E-002	9.67226E-001	3.57680E+000	9	...........
	67	0.906667	9.71098E-001	1.01502E-004	0.00000E+000	9.85687E-005	5.99601E-002	9.71470E-001	3.57680E+000	9	...........
	68	0.92	9.75267E-001	1.01067E-004	0.00000E+000	9.85671E-005	5.99601E-002	9.75596E-001	3.57680E+000	9	...........
	69	0.933333	9.79341E-001	1.00481E-004	0.00000E+000	9.84054E-005	5.99601E-002	9.79675E-001	3.57680E+000	9	...........
	70	0.946667	9.83332E-001	1.00704E-004	0.00000E+000	9.90257E-005	5.99601E-002	9.83649E-001	3.57680E+000	9	...........
	71	0.96	9.87198E-001	9.93394E-005	0.00000E+000	9.80676E-005	5.99601E-002	9.87559E-001	3.57680E+000	9	...........
	72	0.97333	9.91041E-001	1.01334E-004	0.00000E+000	1.00426E-004	5.99601E-002	9.91351E-001	3.57680E+000	9	...........
	73	0.98667	9.94768E-001	1.00190E-004	0.00000E+000	9.96653E-005	5.99601E-002	9.95076E-001	3.57680E+000	9	...........
	74	1	9.98448E-001	1.01569E-004	0.00000E+000	1.01411E-004	5.99601E-002	9.98759E-001	3.57680E+000	9	...........
STARTTIMEOFFSET	QUANT	1243.587	Start Time Offset (s)
