EXPLAIN
TAG	PWR800_CHARGE
TITLE	LABEL	PWR Cyclic Charge Discharge (Cell) - Charge Step	Test &Identifier
DATE	LABEL	12-7-2017	Date
TIME	LABEL	16:18:55	Time
NOTES	NOTES	2	&Notes...
	supercap test cell
	6M KOH
PSTAT	PSTAT	IFC5000-01520	Potentiostat
CAPACITY	QUANT	1.00000E-003	Capacity (A-hr)
CELLTYPE	SELECTOR	1	&Cell Type
WORKINGCONNECTION	SELECTOR	0	&Working Lead
MAXCHARGETIME	VARIABLEANDUNITS	1.00000E+002	s	1.00000E+002	second(s)	Max &Charge Time
CHARGECURRENT	QUANT	1.00000E-004	&Charge Current (A) 
VOLTAGEFINISH	TWOPARAM	F	1.00000E-003	3.60000E+003	&Voltage Finish	 I (A) < 	Max Time(s)
SAMPLETIME	QUANT	1.00000E-002	Sa&mple Period (s)
CHARGESTOPAT1	MULTIPARAM	4	1.00000E+000	Charge Stop At &1	Voltage > Limit	V
CHARGESTOPAT2	MULTIPARAM	0	0.00000E+000	Charge Stop At &2	None	N/A
AESBHCSELECTOR	TOGGLE	F	Save Both Half Cells
IRCOMP	TOGGLE	F	IR &Measure
EOC	QUANT	0	Open Circuit (V)
SEQUENCER	TOGGLE	TRUE	Run as Sequence
PSTATMODEL	IQUANT	53	Pstat Model
PSTATSECTION	LABEL	IFC5000-01520	Pstat Section
PSTATSERIALNO	LABEL	01520	Pstat Serial Number
CTRLMODE	IQUANT	0	Control Mode
ELECTROMETER	IQUANT	1	RE=0 or CS=1
IESTAB	IQUANT	0	I/E Stability
CASPEED	IQUANT	4	Control Amp Speed
CONVENTION	IQUANT	1	Current Convention
ICHRANGE	IQUANT	2	Ich Range
ICHRANGEMODE	TOGGLE	T	Ich Auto Range
ICHOFFSETENABLE	TOGGLE	F	Ich Offset Enable
ICHOFFSET	QUANT	0	Ich Offset (V)
ICHFILTER	IQUANT	1	Ich Filter
VCHRANGE	IQUANT	2	Vch Range
VCHRANGEMODE	TOGGLE	T	Vch Auto Range
VCHOFFSETENABLE	TOGGLE	F	Vch Offset Enable
VCHOFFSET	QUANT	0	Vch Offset (V)
VCHFILTER	IQUANT	1	Vch Filter
IERANGELOWERLIMIT	IQUANT	9	I/E Range Lower Limit
IERANGEMODE	TOGGLE	F	I/E AutoRange
IERANGE	IQUANT	9	I/E Range
ACHSELECT	IQUANT	1	Ach Select
ACHRANGE	IQUANT	2	Ach Range
ACHOFFSETENABLE	TOGGLE	F	Ach Offset Enable
ACHOFFSET	QUANT	0	Ach Offset (V)
ACHFILTER	IQUANT	1	Ach Filter
CABLEID	IQUANT	14	Cable ID
DCCALDATE	LABEL	5-7-2017	DC Calibration Date
ACCALDATE	LABEL	12/3/2015	AC Calibration Date
FRAMEWORKVERSION	QUANT	7.01	Framework Version
INSTRUMENTVERSION	LABEL	4.00	Instrument Version
CURVE	TABLE	79
	Pt	T	Vf	Im	Vu	Pwr	Sig	Ach	Temp	IERange	Over
	#	s	V	A	V	W	V	V	deg C	#	bits
	0	0.013333	2.62581E-001	1.00684E-004	0.00000E+000	2.64379E-005	5.99601E-002	2.62669E-001	3.57840E+000	9	...........
	1	0.026667	2.85269E-001	1.00679E-004	0.00000E+000	2.87207E-005	5.99601E-002	2.85334E-001	3.57840E+000	9	...........
	2	0.04	3.06446E-001	1.00898E-004	0.00000E+000	3.09198E-005	5.99601E-002	3.06517E-001	3.57840E+000	9	...........
	3	0.053333	3.26509E-001	1.01447E-004	0.00000E+000	3.31234E-005	5.99601E-002	3.26582E-001	3.57840E+000	9	...........
	4	0.066667	3.45677E-001	1.01152E-004	0.00000E+000	3.49660E-005	5.99601E-002	3.45748E-001	3.57840E+000	9	...........
	5	0.08	3.64106E-001	1.00908E-004	0.00000E+000	3.67414E-005	5.99601E-002	3.64176E-001	3.57840E+000	9	...........
	6	0.093333	3.81885E-001	1.00612E-004	0.00000E+000	3.84220E-005	5.99601E-002	3.81963E-001	3.57840E+000	9	...........
	7	0.106667	3.99124E-001	1.00898E-004	0.00000E+000	4.02708E-005	5.99601E-002	3.99207E-001	3.57840E+000	9	...........
	8	0.12	4.15874E-001	1.01245E-004	0.00000E+000	4.21052E-005	5.99601E-002	4.15956E-001	3.57840E+000	9	...........
	9	0.133333	4.32175E-001	1.00444E-004	0.00000E+000	4.34093E-005	5.99601E-002	4.32263E-001	3.57840E+000	9	...........
	10	0.146667	4.48077E-001	1.02080E-004	0.00000E+000	4.57395E-005	5.99601E-002	4.48176E-001	3.57840E+000	9	...........
	11	0.16	4.63607E-001	1.00153E-004	0.00000E+000	4.64317E-005	5.99601E-002	4.63703E-001	3.57840E+000	9	...........
	12	0.173333	4.78774E-001	1.00056E-004	0.00000E+000	4.79043E-005	5.99601E-002	4.78880E-001	3.57840E+000	9	...........
	13	0.186667	4.93616E-001	1.00429E-004	0.00000E+000	4.95735E-005	5.99601E-002	4.93723E-001	3.57840E+000	9	...........
	14	0.2	5.08157E-001	1.00872E-004	0.00000E+000	5.12588E-005	5.99601E-002	5.08270E-001	3.57840E+000	9	...........
	15	0.213333	5.22405E-001	1.00872E-004	0.00000E+000	5.26961E-005	5.99601E-002	5.22517E-001	3.57840E+000	9	...........
	16	0.226667	5.36167E-001	1.01445E-004	0.00000E+000	5.43915E-005	5.99601E-002	5.36348E-001	3.57840E+000	9	...........
	17	0.24	5.49755E-001	1.00226E-004	0.00000E+000	5.50997E-005	5.99601E-002	5.49959E-001	3.57840E+000	9	...........
	18	0.253333	5.63182E-001	1.00506E-004	0.00000E+000	5.66033E-005	5.99601E-002	5.63384E-001	3.57840E+000	9	...........
	19	0.266667	5.76372E-001	1.01411E-004	0.00000E+000	5.84502E-005	5.99601E-002	5.76558E-001	3.57840E+000	9	...........
	20	0.28	5.89319E-001	1.01219E-004	0.00000E+000	5.96503E-005	5.99601E-002	5.89521E-001	3.57840E+000	9	...........
	21	0.293333	6.01979E-001	1.00858E-004	0.00000E+000	6.07147E-005	5.99601E-002	6.02203E-001	3.57840E+000	9	...........
	22	0.306667	6.14462E-001	1.02027E-004	0.00000E+000	6.26920E-005	5.99601E-002	6.14689E-001	3.57840E+000	9	...........
	23	0.32	6.26717E-001	1.01632E-004	0.00000E+000	6.36942E-005	5.99601E-002	6.26951E-001	3.57840E+000	9	...........
	24	0.333333	6.38726E-001	1.01171E-004	0.00000E+000	6.46206E-005	5.99601E-002	6.38963E-001	3.57840E+000	9	...........
	25	0.346667	6.50503E-001	1.02026E-004	0.00000E+000	6.63685E-005	5.99601E-002	6.50762E-001	3.57840E+000	9	...........
	26	0.36	6.62040E-001	1.00702E-004	0.00000E+000	6.66688E-005	5.99601E-002	6.62337E-001	3.57840E+000	9	...........
	27	0.373333	6.73399E-001	1.00341E-004	0.00000E+000	6.75693E-005	5.99601E-002	6.73673E-001	3.57840E+000	9	...........
	28	0.386667	6.84509E-001	1.00299E-004	0.00000E+000	6.86556E-005	5.99601E-002	6.84783E-001	3.57840E+000	9	...........
	29	0.4	6.95416E-001	1.00081E-004	0.00000E+000	6.95981E-005	5.99601E-002	6.95693E-001	3.57840E+000	9	...........
	30	0.413333	7.06094E-001	1.01170E-004	0.00000E+000	7.14355E-005	5.99601E-002	7.06368E-001	3.57840E+000	9	...........
	31	0.426667	7.16574E-001	1.01822E-004	0.00000E+000	7.29631E-005	5.99601E-002	7.16830E-001	3.57840E+000	9	...........
	32	0.44	7.26814E-001	1.00968E-004	0.00000E+000	7.33848E-005	5.99601E-002	7.27095E-001	3.57840E+000	9	...........
	33	0.453333	7.36806E-001	1.00825E-004	0.00000E+000	7.42886E-005	5.99601E-002	7.37123E-001	3.57840E+000	9	...........
	34	0.466667	7.46650E-001	1.00346E-004	0.00000E+000	7.49232E-005	5.99601E-002	7.46930E-001	3.57840E+000	9	...........
	35	0.48	7.56233E-001	1.02292E-004	0.00000E+000	7.73567E-005	5.99601E-002	7.56519E-001	3.57840E+000	9	...........
	36	0.493333	7.65632E-001	1.00505E-004	0.00000E+000	7.69500E-005	5.99601E-002	7.65920E-001	3.57840E+000	9	...........
	37	0.506667	7.74790E-001	1.01288E-004	0.00000E+000	7.84767E-005	5.99601E-002	7.75084E-001	3.57773E+000	9	...........
	38	0.52	7.83740E-001	1.01353E-004	0.00000E+000	7.94346E-005	5.99601E-002	7.84029E-001	3.57770E+000	9	...........
	39	0.533333	7.92488E-001	1.01052E-004	0.00000E+000	8.00827E-005	5.99601E-002	7.92772E-001	3.57770E+000	9	...........
	40	0.546667	8.01029E-001	1.00725E-004	0.00000E+000	8.06837E-005	5.99601E-002	8.01290E-001	3.57770E+000	9	...........
	41	0.56	8.09326E-001	1.01640E-004	0.00000E+000	8.22597E-005	5.99601E-002	8.09613E-001	3.57770E+000	9	...........
	42	0.573333	8.17432E-001	1.00865E-004	0.00000E+000	8.24501E-005	5.99601E-002	8.17726E-001	3.57770E+000	9	...........
	43	0.586667	8.25325E-001	1.01516E-004	0.00000E+000	8.37836E-005	5.99601E-002	8.25613E-001	3.57770E+000	9	...........
	44	0.6	8.33008E-001	1.01006E-004	0.00000E+000	8.41391E-005	5.99601E-002	8.33316E-001	3.57770E+000	9	...........
	45	0.613333	8.40470E-001	1.01219E-004	0.00000E+000	8.50714E-005	5.99601E-002	8.40806E-001	3.57770E+000	9	...........
	46	0.626667	8.47782E-001	1.01572E-004	0.00000E+000	8.61111E-005	5.99601E-002	8.48108E-001	3.57770E+000	9	...........
	47	0.64	8.54866E-001	1.01438E-004	0.00000E+000	8.67157E-005	5.99601E-002	8.55197E-001	3.57770E+000	9	...........
	48	0.653333	8.61751E-001	1.01439E-004	0.00000E+000	8.74150E-005	5.99601E-002	8.62093E-001	3.57770E+000	9	...........
	49	0.666667	8.68437E-001	1.02097E-004	0.00000E+000	8.86651E-005	5.99601E-002	8.68787E-001	3.57770E+000	9	...........
	50	0.68	8.74954E-001	1.00878E-004	0.00000E+000	8.82638E-005	5.99601E-002	8.75303E-001	3.57770E+000	9	...........
	51	0.693333	8.81238E-001	1.01022E-004	0.00000E+000	8.90245E-005	5.99601E-002	8.81592E-001	3.57770E+000	9	...........
	52	0.706667	8.87351E-001	1.00268E-004	0.00000E+000	8.89726E-005	5.99601E-002	8.87712E-001	3.57770E+000	9	...........
	53	0.72	8.93283E-001	1.00763E-004	0.00000E+000	9.00095E-005	5.99601E-002	8.93647E-001	3.57770E+000	9	...........
	54	0.733333	8.99032E-001	9.99801E-005	0.00000E+000	8.98854E-005	5.99601E-002	8.99418E-001	3.57770E+000	9	...........
	55	0.746667	9.04626E-001	1.00664E-004	0.00000E+000	9.10629E-005	5.99601E-002	9.04999E-001	3.57770E+000	9	...........
	56	0.76	9.10067E-001	1.00820E-004	0.00000E+000	9.17528E-005	5.99601E-002	9.10445E-001	3.57770E+000	9	...........
	57	0.773333	9.15340E-001	1.01290E-004	0.00000E+000	9.27146E-005	5.99601E-002	9.15724E-001	3.57770E+000	9	...........
	58	0.786667	9.20502E-001	1.01056E-004	0.00000E+000	9.30226E-005	5.99601E-002	9.20862E-001	3.57770E+000	9	...........
	59	0.8	9.25531E-001	1.02050E-004	0.00000E+000	9.44508E-005	5.99601E-002	9.25864E-001	3.57770E+000	9	...........
	60	0.813333	9.30374E-001	1.00649E-004	0.00000E+000	9.36412E-005	5.99601E-002	9.30683E-001	3.57770E+000	9	...........
	61	0.826667	9.35111E-001	1.01222E-004	0.00000E+000	9.46538E-005	5.99601E-002	9.35425E-001	3.57770E+000	9	...........
	62	0.84	9.39736E-001	1.00585E-004	0.00000E+000	9.45238E-005	5.99601E-002	9.40053E-001	3.57770E+000	9	...........
	63	0.853333	9.44249E-001	1.00931E-004	0.00000E+000	9.53044E-005	5.99601E-002	9.44580E-001	3.57770E+000	9	...........
	64	0.866667	9.48720E-001	1.01136E-004	0.00000E+000	9.59493E-005	5.99601E-002	9.49039E-001	3.57770E+000	9	...........
	65	0.88	9.53032E-001	1.01101E-004	0.00000E+000	9.63527E-005	5.99601E-002	9.53340E-001	3.57770E+000	9	...........
	66	0.893333	9.57246E-001	1.01360E-004	0.00000E+000	9.70261E-005	5.99601E-002	9.57546E-001	3.57770E+000	9	...........
	67	0.906667	9.61375E-001	1.01270E-004	0.00000E+000	9.73585E-005	5.99601E-002	9.61701E-001	3.57770E+000	9	...........
	68	0.92	9.65429E-001	1.00990E-004	0.00000E+000	9.74985E-005	5.99601E-002	9.65746E-001	3.57770E+000	9	...........
	69	0.933333	9.69408E-001	1.01156E-004	0.00000E+000	9.80619E-005	5.99601E-002	9.69725E-001	3.57770E+000	9	...........
	70	0.946667	9.73346E-001	1.01254E-004	0.00000E+000	9.85555E-005	5.99601E-002	9.73646E-001	3.57770E+000	9	...........
	71	0.96	9.77146E-001	1.01466E-004	0.00000E+000	9.91470E-005	5.99601E-002	9.77460E-001	3.57770E+000	9	...........
	72	0.97333	9.80865E-001	1.00404E-004	0.00000E+000	9.84830E-005	5.99601E-002	9.81193E-001	3.57770E+000	9	...........
	73	0.98667	9.84498E-001	1.00396E-004	0.00000E+000	9.88395E-005	5.99601E-002	9.84847E-001	3.57770E+000	9	...........
	74	1	9.88075E-001	1.00713E-004	0.00000E+000	9.95116E-005	5.99601E-002	9.88394E-001	3.57770E+000	9	...........
	75	1.01333	9.91523E-001	1.00699E-004	0.00000E+000	9.98454E-005	5.99601E-002	9.91890E-001	3.57770E+000	9	...........
	76	1.02667	9.94948E-001	1.01241E-004	0.00000E+000	1.00729E-004	5.99601E-002	9.95280E-001	3.57770E+000	9	...........
	77	1.04	9.98268E-001	1.00921E-004	0.00000E+000	1.00746E-004	5.99601E-002	9.98629E-001	3.57770E+000	9	...........
	78	1.04167	1.00007E+000	9.92393E-005	0.00000E+000	9.92459E-005	5.99601E-002	1.00046E+000	3.57770E+000	9	...........
STARTTIMEOFFSET	QUANT	378.7717	Start Time Offset (s)
