EXPLAIN
TAG	PWR800_CHARGE
TITLE	LABEL	PWR Cyclic Charge Discharge (Cell) - Charge Step	Test &Identifier
DATE	LABEL	12-7-2017	Date
TIME	LABEL	16:42:36	Time
NOTES	NOTES	2	&Notes...
	supercap test cell
	6M KOH
PSTAT	PSTAT	IFC5000-01520	Potentiostat
CAPACITY	QUANT	1.00000E-003	Capacity (A-hr)
CELLTYPE	SELECTOR	1	&Cell Type
WORKINGCONNECTION	SELECTOR	0	&Working Lead
MAXCHARGETIME	VARIABLEANDUNITS	1.00000E+002	s	1.00000E+002	second(s)	Max &Charge Time
CHARGECURRENT	QUANT	1.00000E-004	&Charge Current (A) 
VOLTAGEFINISH	TWOPARAM	F	1.00000E-003	3.60000E+003	&Voltage Finish	 I (A) < 	Max Time(s)
SAMPLETIME	QUANT	1.00000E-002	Sa&mple Period (s)
CHARGESTOPAT1	MULTIPARAM	4	1.00000E+000	Charge Stop At &1	Voltage > Limit	V
CHARGESTOPAT2	MULTIPARAM	0	0.00000E+000	Charge Stop At &2	None	N/A
AESBHCSELECTOR	TOGGLE	F	Save Both Half Cells
IRCOMP	TOGGLE	F	IR &Measure
EOC	QUANT	0	Open Circuit (V)
SEQUENCER	TOGGLE	TRUE	Run as Sequence
PSTATMODEL	IQUANT	53	Pstat Model
PSTATSECTION	LABEL	IFC5000-01520	Pstat Section
PSTATSERIALNO	LABEL	01520	Pstat Serial Number
CTRLMODE	IQUANT	0	Control Mode
ELECTROMETER	IQUANT	1	RE=0 or CS=1
IESTAB	IQUANT	0	I/E Stability
CASPEED	IQUANT	4	Control Amp Speed
CONVENTION	IQUANT	1	Current Convention
ICHRANGE	IQUANT	2	Ich Range
ICHRANGEMODE	TOGGLE	T	Ich Auto Range
ICHOFFSETENABLE	TOGGLE	F	Ich Offset Enable
ICHOFFSET	QUANT	0	Ich Offset (V)
ICHFILTER	IQUANT	1	Ich Filter
VCHRANGE	IQUANT	2	Vch Range
VCHRANGEMODE	TOGGLE	T	Vch Auto Range
VCHOFFSETENABLE	TOGGLE	F	Vch Offset Enable
VCHOFFSET	QUANT	0	Vch Offset (V)
VCHFILTER	IQUANT	1	Vch Filter
IERANGELOWERLIMIT	IQUANT	9	I/E Range Lower Limit
IERANGEMODE	TOGGLE	F	I/E AutoRange
IERANGE	IQUANT	9	I/E Range
ACHSELECT	IQUANT	1	Ach Select
ACHRANGE	IQUANT	2	Ach Range
ACHOFFSETENABLE	TOGGLE	F	Ach Offset Enable
ACHOFFSET	QUANT	0	Ach Offset (V)
ACHFILTER	IQUANT	1	Ach Filter
CABLEID	IQUANT	14	Cable ID
DCCALDATE	LABEL	5-7-2017	DC Calibration Date
ACCALDATE	LABEL	12/3/2015	AC Calibration Date
FRAMEWORKVERSION	QUANT	7.01	Framework Version
INSTRUMENTVERSION	LABEL	4.00	Instrument Version
CURVE	TABLE	75
	Pt	T	Vf	Im	Vu	Pwr	Sig	Ach	Temp	IERange	Over
	#	s	V	A	V	W	V	V	deg C	#	bits
	0	0.013333	2.59122E-001	1.00815E-004	0.00000E+000	2.61233E-005	5.99601E-002	2.59201E-001	3.57640E+000	9	...........
	1	0.026667	2.82148E-001	1.02062E-004	0.00000E+000	2.87965E-005	5.99601E-002	2.82210E-001	3.57640E+000	9	...........
	2	0.04	3.03908E-001	1.01687E-004	0.00000E+000	3.09035E-005	5.99601E-002	3.03974E-001	3.57640E+000	9	...........
	3	0.053333	3.24753E-001	1.01533E-004	0.00000E+000	3.29730E-005	5.99601E-002	3.24820E-001	3.57640E+000	9	...........
	4	0.066667	3.44876E-001	1.02789E-004	0.00000E+000	3.54495E-005	5.99601E-002	3.44947E-001	3.57640E+000	9	...........
	5	0.08	3.64395E-001	1.01349E-004	0.00000E+000	3.69311E-005	5.99601E-002	3.64464E-001	3.57640E+000	9	...........
	6	0.093333	3.83378E-001	1.00920E-004	0.00000E+000	3.86905E-005	5.99601E-002	3.83455E-001	3.57640E+000	9	...........
	7	0.106667	4.01888E-001	1.00888E-004	0.00000E+000	4.05455E-005	5.99601E-002	4.01969E-001	3.57640E+000	9	...........
	8	0.12	4.19954E-001	1.01003E-004	0.00000E+000	4.24167E-005	5.99601E-002	4.20043E-001	3.57640E+000	9	...........
	9	0.133333	4.37603E-001	1.02729E-004	0.00000E+000	4.49544E-005	5.99601E-002	4.37697E-001	3.57640E+000	9	...........
	10	0.146667	4.54859E-001	9.99989E-005	0.00000E+000	4.54854E-005	5.99601E-002	4.54951E-001	3.57640E+000	9	...........
	11	0.16	4.71742E-001	1.00395E-004	0.00000E+000	4.73604E-005	5.99601E-002	4.71844E-001	3.57640E+000	9	...........
	12	0.173333	4.88264E-001	1.00812E-004	0.00000E+000	4.92226E-005	5.99601E-002	4.88362E-001	3.57640E+000	9	...........
	13	0.186667	5.04424E-001	1.00572E-004	0.00000E+000	5.07309E-005	5.99601E-002	5.04531E-001	3.57640E+000	9	...........
	14	0.2	5.20233E-001	1.01086E-004	0.00000E+000	5.25880E-005	5.99601E-002	5.20348E-001	3.57640E+000	9	...........
	15	0.213333	5.35553E-001	1.01031E-004	0.00000E+000	5.41077E-005	5.99601E-002	5.35683E-001	3.57640E+000	9	...........
	16	0.226667	5.50517E-001	1.00126E-004	0.00000E+000	5.51211E-005	5.99601E-002	5.50755E-001	3.57640E+000	9	...........
	17	0.24	5.65328E-001	1.00352E-004	0.00000E+000	5.67318E-005	5.99601E-002	5.65547E-001	3.57640E+000	9	...........
	18	0.253333	5.79774E-001	1.02139E-004	0.00000E+000	5.92175E-005	5.99601E-002	5.80015E-001	3.57640E+000	9	...........
	19	0.266667	5.93913E-001	1.02728E-004	0.00000E+000	6.10113E-005	5.99601E-002	5.94142E-001	3.57640E+000	9	...........
	20	0.28	6.07692E-001	1.00616E-004	0.00000E+000	6.11434E-005	5.99601E-002	6.07958E-001	3.57640E+000	9	...........
	21	0.293333	6.21231E-001	1.01359E-004	0.00000E+000	6.29671E-005	5.99601E-002	6.21436E-001	3.57640E+000	9	...........
	22	0.306667	6.34368E-001	1.00719E-004	0.00000E+000	6.38928E-005	5.99601E-002	6.34613E-001	3.57640E+000	9	...........
	23	0.32	6.47232E-001	1.01813E-004	0.00000E+000	6.58965E-005	5.99601E-002	6.47458E-001	3.57640E+000	9	...........
	24	0.333333	6.59769E-001	1.00012E-004	0.00000E+000	6.59851E-005	5.99601E-002	6.60018E-001	3.57640E+000	9	...........
	25	0.346667	6.72029E-001	1.01728E-004	0.00000E+000	6.83644E-005	5.99601E-002	6.72283E-001	3.57640E+000	9	...........
	26	0.36	6.83963E-001	1.00720E-004	0.00000E+000	6.88887E-005	5.99601E-002	6.84209E-001	3.57640E+000	9	...........
	27	0.373333	6.95570E-001	1.01314E-004	0.00000E+000	7.04708E-005	5.99601E-002	6.95858E-001	3.57640E+000	9	...........
	28	0.386667	7.06939E-001	1.01066E-004	0.00000E+000	7.14473E-005	5.99601E-002	7.07198E-001	3.57640E+000	9	...........
	29	0.4	7.17974E-001	1.01338E-004	0.00000E+000	7.27579E-005	5.99601E-002	7.18241E-001	3.57640E+000	9	...........
	30	0.413333	7.28728E-001	1.00820E-004	0.00000E+000	7.34703E-005	5.99601E-002	7.28998E-001	3.57640E+000	9	...........
	31	0.426667	7.39187E-001	1.00510E-004	0.00000E+000	7.42960E-005	5.99601E-002	7.39459E-001	3.57640E+000	9	...........
	32	0.44	7.49371E-001	9.96207E-005	0.00000E+000	7.46528E-005	5.99601E-002	7.49624E-001	3.57640E+000	9	...........
	33	0.453333	7.59295E-001	1.00741E-004	0.00000E+000	7.64919E-005	5.99601E-002	7.59534E-001	3.57640E+000	9	...........
	34	0.466667	7.68913E-001	1.02165E-004	0.00000E+000	7.85560E-005	5.99601E-002	7.69191E-001	3.57640E+000	9	...........
	35	0.48	7.78270E-001	1.01699E-004	0.00000E+000	7.91495E-005	5.99601E-002	7.78539E-001	3.57640E+000	9	...........
	36	0.493333	7.87337E-001	1.01213E-004	0.00000E+000	7.96885E-005	5.99601E-002	7.87614E-001	3.57640E+000	9	...........
	37	0.506667	7.96196E-001	1.01027E-004	0.00000E+000	8.04374E-005	5.99601E-002	7.96466E-001	3.57640E+000	9	...........
	38	0.52	8.04714E-001	1.00444E-004	0.00000E+000	8.08285E-005	5.99601E-002	8.05006E-001	3.57640E+000	9	...........
	39	0.533333	8.13023E-001	1.00779E-004	0.00000E+000	8.19359E-005	5.99601E-002	8.13307E-001	3.57640E+000	9	...........
	40	0.546667	8.21077E-001	1.01290E-004	0.00000E+000	8.31668E-005	5.99601E-002	8.21373E-001	3.57640E+000	9	...........
	41	0.56	8.28865E-001	1.01104E-004	0.00000E+000	8.38019E-005	5.99601E-002	8.29162E-001	3.57640E+000	9	...........
	42	0.573333	8.36408E-001	1.01483E-004	0.00000E+000	8.48808E-005	5.99601E-002	8.36701E-001	3.57640E+000	9	...........
	43	0.586667	8.43716E-001	1.01102E-004	0.00000E+000	8.53016E-005	5.99601E-002	8.44002E-001	3.57640E+000	9	...........
	44	0.6	8.50791E-001	1.00234E-004	0.00000E+000	8.52785E-005	5.99601E-002	8.51101E-001	3.57640E+000	9	...........
	45	0.613333	8.57635E-001	9.99166E-005	0.00000E+000	8.56919E-005	5.99601E-002	8.57973E-001	3.57640E+000	9	...........
	46	0.626667	8.64291E-001	1.01849E-004	0.00000E+000	8.80274E-005	5.99601E-002	8.64618E-001	3.57640E+000	9	...........
	47	0.64	8.70756E-001	1.00737E-004	0.00000E+000	8.77169E-005	5.99601E-002	8.71091E-001	3.57640E+000	9	...........
	48	0.653333	8.77023E-001	1.02459E-004	0.00000E+000	8.98587E-005	5.99601E-002	8.77354E-001	3.57640E+000	9	...........
	49	0.666667	8.83090E-001	9.95259E-005	0.00000E+000	8.78903E-005	5.99601E-002	8.83429E-001	3.57640E+000	9	...........
	50	0.68	8.89025E-001	1.01521E-004	0.00000E+000	9.02548E-005	5.99601E-002	8.89319E-001	3.57640E+000	9	...........
	51	0.693333	8.94753E-001	1.01309E-004	0.00000E+000	9.06461E-005	5.99601E-002	8.95094E-001	3.57640E+000	9	...........
	52	0.706667	9.00365E-001	1.00006E-004	0.00000E+000	9.00421E-005	5.99601E-002	9.00700E-001	3.57640E+000	9	...........
	53	0.72	9.05835E-001	1.00379E-004	0.00000E+000	9.09270E-005	5.99601E-002	9.06173E-001	3.57640E+000	9	...........
	54	0.733333	9.11192E-001	1.01182E-004	0.00000E+000	9.21966E-005	5.99601E-002	9.11548E-001	3.57640E+000	9	...........
	55	0.746667	9.16441E-001	1.01550E-004	0.00000E+000	9.30649E-005	5.99601E-002	9.16793E-001	3.57640E+000	9	...........
	56	0.76	9.21600E-001	1.01019E-004	0.00000E+000	9.30990E-005	5.99601E-002	9.21898E-001	3.57640E+000	9	...........
	57	0.773333	9.26650E-001	1.01170E-004	0.00000E+000	9.37492E-005	5.99601E-002	9.26939E-001	3.57640E+000	9	...........
	58	0.786667	9.31586E-001	1.00300E-004	0.00000E+000	9.34380E-005	5.99601E-002	9.31878E-001	3.57640E+000	9	...........
	59	0.8	9.36420E-001	1.01944E-004	0.00000E+000	9.54625E-005	5.99601E-002	9.36745E-001	3.57640E+000	9	...........
	60	0.813333	9.41183E-001	9.94144E-005	0.00000E+000	9.35671E-005	5.99601E-002	9.41516E-001	3.57640E+000	9	...........
	61	0.826667	9.45877E-001	1.01635E-004	0.00000E+000	9.61339E-005	5.99601E-002	9.46218E-001	3.57640E+000	9	...........
	62	0.84	9.50525E-001	1.00460E-004	0.00000E+000	9.54902E-005	5.99601E-002	9.50826E-001	3.57640E+000	9	...........
	63	0.853333	9.55047E-001	1.01418E-004	0.00000E+000	9.68589E-005	5.99601E-002	9.55353E-001	3.57640E+000	9	...........
	64	0.866667	9.59514E-001	1.00567E-004	0.00000E+000	9.64951E-005	5.99601E-002	9.59833E-001	3.57640E+000	9	...........
	65	0.88	9.63881E-001	1.00932E-004	0.00000E+000	9.72869E-005	5.99601E-002	9.64240E-001	3.57640E+000	9	...........
	66	0.893333	9.68201E-001	1.00579E-004	0.00000E+000	9.73808E-005	5.99601E-002	9.68539E-001	3.57640E+000	9	...........
	67	0.906667	9.72462E-001	1.02618E-004	0.00000E+000	9.97923E-005	5.99601E-002	9.72795E-001	3.57640E+000	9	...........
	68	0.92	9.76636E-001	1.01309E-004	0.00000E+000	9.89416E-005	5.99601E-002	9.76958E-001	3.57640E+000	9	...........
	69	0.933333	9.80696E-001	9.98718E-005	0.00000E+000	9.79439E-005	5.99601E-002	9.81032E-001	3.57640E+000	9	...........
	70	0.946667	9.84697E-001	1.00484E-004	0.00000E+000	9.89467E-005	5.99601E-002	9.85046E-001	3.57640E+000	9	...........
	71	0.96	9.88614E-001	1.02560E-004	0.00000E+000	1.01392E-004	5.99601E-002	9.88954E-001	3.57640E+000	9	...........
	72	0.97333	9.92452E-001	1.01707E-004	0.00000E+000	1.00939E-004	5.99601E-002	9.92785E-001	3.57640E+000	9	...........
	73	0.98667	9.96191E-001	1.00483E-004	0.00000E+000	1.00101E-004	5.99601E-002	9.96522E-001	3.57640E+000	9	...........
	74	0.995	9.99200E-001	1.01356E-004	0.00000E+000	1.01275E-004	5.99601E-002	9.99533E-001	3.57640E+000	9	...........
STARTTIMEOFFSET	QUANT	1388.659	Start Time Offset (s)
