EXPLAIN
TAG	PWR800_CHARGE
TITLE	LABEL	PWR Cyclic Charge Discharge (Cell) - Charge Step	Test &Identifier
DATE	LABEL	12-7-2017	Date
TIME	LABEL	16:11:27	Time
NOTES	NOTES	2	&Notes...
	supercap test cell
	6M KOH
PSTAT	PSTAT	IFC5000-01520	Potentiostat
CAPACITY	QUANT	1.00000E-003	Capacity (A-hr)
CELLTYPE	SELECTOR	1	&Cell Type
WORKINGCONNECTION	SELECTOR	0	&Working Lead
MAXCHARGETIME	VARIABLEANDUNITS	1.00000E+002	s	1.00000E+002	second(s)	Max &Charge Time
CHARGECURRENT	QUANT	1.00000E-004	&Charge Current (A) 
VOLTAGEFINISH	TWOPARAM	F	1.00000E-003	3.60000E+003	&Voltage Finish	 I (A) < 	Max Time(s)
SAMPLETIME	QUANT	1.00000E-002	Sa&mple Period (s)
CHARGESTOPAT1	MULTIPARAM	4	1.00000E+000	Charge Stop At &1	Voltage > Limit	V
CHARGESTOPAT2	MULTIPARAM	0	0.00000E+000	Charge Stop At &2	None	N/A
AESBHCSELECTOR	TOGGLE	F	Save Both Half Cells
IRCOMP	TOGGLE	F	IR &Measure
EOC	QUANT	0	Open Circuit (V)
SEQUENCER	TOGGLE	TRUE	Run as Sequence
PSTATMODEL	IQUANT	53	Pstat Model
PSTATSECTION	LABEL	IFC5000-01520	Pstat Section
PSTATSERIALNO	LABEL	01520	Pstat Serial Number
CTRLMODE	IQUANT	0	Control Mode
ELECTROMETER	IQUANT	1	RE=0 or CS=1
IESTAB	IQUANT	0	I/E Stability
CASPEED	IQUANT	4	Control Amp Speed
CONVENTION	IQUANT	1	Current Convention
ICHRANGE	IQUANT	2	Ich Range
ICHRANGEMODE	TOGGLE	T	Ich Auto Range
ICHOFFSETENABLE	TOGGLE	F	Ich Offset Enable
ICHOFFSET	QUANT	0	Ich Offset (V)
ICHFILTER	IQUANT	1	Ich Filter
VCHRANGE	IQUANT	2	Vch Range
VCHRANGEMODE	TOGGLE	T	Vch Auto Range
VCHOFFSETENABLE	TOGGLE	F	Vch Offset Enable
VCHOFFSET	QUANT	0	Vch Offset (V)
VCHFILTER	IQUANT	1	Vch Filter
IERANGELOWERLIMIT	IQUANT	9	I/E Range Lower Limit
IERANGEMODE	TOGGLE	F	I/E AutoRange
IERANGE	IQUANT	9	I/E Range
ACHSELECT	IQUANT	1	Ach Select
ACHRANGE	IQUANT	2	Ach Range
ACHOFFSETENABLE	TOGGLE	F	Ach Offset Enable
ACHOFFSET	QUANT	0	Ach Offset (V)
ACHFILTER	IQUANT	1	Ach Filter
CABLEID	IQUANT	14	Cable ID
DCCALDATE	LABEL	5-7-2017	DC Calibration Date
ACCALDATE	LABEL	12/3/2015	AC Calibration Date
FRAMEWORKVERSION	QUANT	7.01	Framework Version
INSTRUMENTVERSION	LABEL	4.00	Instrument Version
CURVE	TABLE	85
	Pt	T	Vf	Im	Vu	Pwr	Sig	Ach	Temp	IERange	Over
	#	s	V	A	V	W	V	V	deg C	#	bits
	0	0.013333	2.60643E-001	1.01180E-004	0.00000E+000	2.63720E-005	5.99601E-002	2.60717E-001	3.57720E+000	9	...........
	1	0.026667	2.83109E-001	1.01075E-004	0.00000E+000	2.86153E-005	5.99601E-002	2.83167E-001	3.57720E+000	9	...........
	2	0.04	3.03957E-001	1.01680E-004	0.00000E+000	3.09065E-005	5.99601E-002	3.04014E-001	3.57720E+000	9	...........
	3	0.053333	3.23549E-001	1.00401E-004	0.00000E+000	3.24846E-005	5.99601E-002	3.23615E-001	3.57720E+000	9	...........
	4	0.066667	3.42111E-001	1.00522E-004	0.00000E+000	3.43896E-005	5.99601E-002	3.42184E-001	3.57720E+000	9	...........
	5	0.08	3.59807E-001	1.00697E-004	0.00000E+000	3.62315E-005	5.99601E-002	3.59877E-001	3.57720E+000	9	...........
	6	0.093333	3.76715E-001	1.00457E-004	0.00000E+000	3.78438E-005	5.99601E-002	3.76788E-001	3.57720E+000	9	...........
	7	0.106667	3.92942E-001	1.00655E-004	0.00000E+000	3.95517E-005	5.99601E-002	3.93022E-001	3.57720E+000	9	...........
	8	0.12	4.08557E-001	1.01025E-004	0.00000E+000	4.12745E-005	5.99601E-002	4.08639E-001	3.57720E+000	9	...........
	9	0.133333	4.23614E-001	1.00595E-004	0.00000E+000	4.26134E-005	5.99601E-002	4.23703E-001	3.57720E+000	9	...........
	10	0.146667	4.38184E-001	1.01540E-004	0.00000E+000	4.44932E-005	5.99601E-002	4.38279E-001	3.57720E+000	9	...........
	11	0.16	4.52310E-001	1.01165E-004	0.00000E+000	4.57578E-005	5.99601E-002	4.52408E-001	3.57720E+000	9	...........
	12	0.173333	4.66036E-001	1.00398E-004	0.00000E+000	4.67891E-005	5.99601E-002	4.66136E-001	3.57720E+000	9	...........
	13	0.186667	4.79400E-001	1.01162E-004	0.00000E+000	4.84969E-005	5.99601E-002	4.79502E-001	3.57720E+000	9	...........
	14	0.2	4.92436E-001	1.00767E-004	0.00000E+000	4.96212E-005	5.99601E-002	4.92545E-001	3.57720E+000	9	...........
	15	0.213333	5.05180E-001	1.01594E-004	0.00000E+000	5.13232E-005	5.99601E-002	5.05290E-001	3.57720E+000	9	...........
	16	0.226667	5.17644E-001	1.01117E-004	0.00000E+000	5.23426E-005	5.99601E-002	5.17749E-001	3.57720E+000	9	...........
	17	0.24	5.29802E-001	1.00589E-004	0.00000E+000	5.32921E-005	5.99601E-002	5.29935E-001	3.57720E+000	9	...........
	18	0.253333	5.41508E-001	1.00890E-004	0.00000E+000	5.46326E-005	5.99601E-002	5.41751E-001	3.57720E+000	9	...........
	19	0.266667	5.53236E-001	1.01228E-004	0.00000E+000	5.60031E-005	5.99601E-002	5.53476E-001	3.57720E+000	9	...........
	20	0.28	5.64768E-001	1.01038E-004	0.00000E+000	5.70628E-005	5.99601E-002	5.65033E-001	3.57720E+000	9	...........
	21	0.293333	5.76121E-001	1.00727E-004	0.00000E+000	5.80310E-005	5.99601E-002	5.76376E-001	3.57720E+000	9	...........
	22	0.306667	5.87268E-001	1.00748E-004	0.00000E+000	5.91661E-005	5.99601E-002	5.87527E-001	3.57720E+000	9	...........
	23	0.32	5.98245E-001	1.00553E-004	0.00000E+000	6.01554E-005	5.99601E-002	5.98497E-001	3.57720E+000	9	...........
	24	0.333333	6.09005E-001	1.00837E-004	0.00000E+000	6.14100E-005	5.99601E-002	6.09303E-001	3.57720E+000	9	...........
	25	0.346667	6.19697E-001	1.01808E-004	0.00000E+000	6.30898E-005	5.99601E-002	6.19947E-001	3.57720E+000	9	...........
	26	0.36	6.30168E-001	1.00967E-004	0.00000E+000	6.36261E-005	5.99601E-002	6.30401E-001	3.57720E+000	9	...........
	27	0.373333	6.40498E-001	1.00583E-004	0.00000E+000	6.44235E-005	5.99601E-002	6.40737E-001	3.57720E+000	9	...........
	28	0.386667	6.50654E-001	1.01292E-004	0.00000E+000	6.59060E-005	5.99601E-002	6.50888E-001	3.57720E+000	9	...........
	29	0.4	6.60652E-001	1.00849E-004	0.00000E+000	6.66261E-005	5.99601E-002	6.60918E-001	3.57720E+000	9	...........
	30	0.413333	6.70541E-001	1.00663E-004	0.00000E+000	6.74983E-005	5.99601E-002	6.70792E-001	3.57720E+000	9	...........
	31	0.426667	6.80265E-001	1.01152E-004	0.00000E+000	6.88104E-005	5.99601E-002	6.80522E-001	3.57720E+000	9	...........
	32	0.44	6.89833E-001	1.01117E-004	0.00000E+000	6.97537E-005	5.99601E-002	6.90097E-001	3.57720E+000	9	...........
	33	0.453333	6.99296E-001	1.00608E-004	0.00000E+000	7.03551E-005	5.99601E-002	6.99550E-001	3.57720E+000	9	...........
	34	0.466667	7.08605E-001	1.01370E-004	0.00000E+000	7.18313E-005	5.99601E-002	7.08869E-001	3.57720E+000	9	...........
	35	0.48	7.17784E-001	1.01056E-004	0.00000E+000	7.25367E-005	5.99601E-002	7.18040E-001	3.57720E+000	9	...........
	36	0.493333	7.26829E-001	1.02262E-004	0.00000E+000	7.43269E-005	5.99601E-002	7.27083E-001	3.57720E+000	9	...........
	37	0.506667	7.35696E-001	1.00483E-004	0.00000E+000	7.39252E-005	5.99601E-002	7.35969E-001	3.57720E+000	9	...........
	38	0.52	7.44462E-001	1.01545E-004	0.00000E+000	7.55964E-005	5.99601E-002	7.44723E-001	3.57720E+000	9	...........
	39	0.533333	7.53075E-001	1.01464E-004	0.00000E+000	7.64098E-005	5.99601E-002	7.53345E-001	3.57720E+000	9	...........
	40	0.546667	7.61540E-001	1.00235E-004	0.00000E+000	7.63333E-005	5.99601E-002	7.61797E-001	3.57720E+000	9	...........
	41	0.56	7.69896E-001	1.01452E-004	0.00000E+000	7.81077E-005	5.99601E-002	7.70175E-001	3.57720E+000	9	...........
	42	0.573333	7.78083E-001	1.02379E-004	0.00000E+000	7.96590E-005	5.99601E-002	7.78364E-001	3.57720E+000	9	...........
	43	0.586667	7.86150E-001	1.00719E-004	0.00000E+000	7.91801E-005	5.99601E-002	7.86406E-001	3.57720E+000	9	...........
	44	0.6	7.94087E-001	1.01609E-004	0.00000E+000	8.06861E-005	5.99601E-002	7.94330E-001	3.57720E+000	9	...........
	45	0.613333	8.01858E-001	1.01090E-004	0.00000E+000	8.10596E-005	5.99601E-002	8.02106E-001	3.57720E+000	9	...........
	46	0.626667	8.09474E-001	1.00859E-004	0.00000E+000	8.16432E-005	5.99601E-002	8.09735E-001	3.57720E+000	9	...........
	47	0.64	8.16943E-001	1.01503E-004	0.00000E+000	8.29225E-005	5.99601E-002	8.17218E-001	3.57720E+000	9	...........
	48	0.653333	8.24301E-001	1.00768E-004	0.00000E+000	8.30630E-005	5.99601E-002	8.24552E-001	3.57720E+000	9	...........
	49	0.666667	8.31499E-001	1.01433E-004	0.00000E+000	8.43410E-005	5.99601E-002	8.31748E-001	3.57720E+000	9	...........
	50	0.68	8.38535E-001	1.01342E-004	0.00000E+000	8.49787E-005	5.99601E-002	8.38811E-001	3.57720E+000	9	...........
	51	0.693333	8.45455E-001	1.00983E-004	0.00000E+000	8.53770E-005	5.99601E-002	8.45751E-001	3.57720E+000	9	...........
	52	0.706667	8.52234E-001	1.01311E-004	0.00000E+000	8.63403E-005	5.99601E-002	8.52553E-001	3.57720E+000	9	...........
	53	0.72	8.58840E-001	1.00254E-004	0.00000E+000	8.61023E-005	5.99601E-002	8.59184E-001	3.57720E+000	9	...........
	54	0.733333	8.65346E-001	1.01302E-004	0.00000E+000	8.76616E-005	5.99601E-002	8.65644E-001	3.57720E+000	9	...........
	55	0.746667	8.71699E-001	1.00906E-004	0.00000E+000	8.79599E-005	5.99601E-002	8.72001E-001	3.57720E+000	9	...........
	56	0.76	8.77907E-001	1.01329E-004	0.00000E+000	8.89578E-005	5.99601E-002	8.78179E-001	3.57720E+000	9	...........
	57	0.773333	8.83957E-001	1.01181E-004	0.00000E+000	8.94400E-005	5.99601E-002	8.84283E-001	3.57737E+000	9	...........
	58	0.786667	8.89873E-001	1.00168E-004	0.00000E+000	8.91365E-005	5.99601E-002	8.90169E-001	3.57860E+000	9	...........
	59	0.8	8.95660E-001	1.00883E-004	0.00000E+000	9.03573E-005	5.99601E-002	8.95999E-001	3.57860E+000	9	...........
	60	0.813333	9.01272E-001	1.00891E-004	0.00000E+000	9.09300E-005	5.99601E-002	9.01608E-001	3.57860E+000	9	...........
	61	0.826667	9.06770E-001	1.00827E-004	0.00000E+000	9.14271E-005	5.99601E-002	9.07100E-001	3.57860E+000	9	...........
	62	0.84	9.12135E-001	1.01511E-004	0.00000E+000	9.25914E-005	5.99601E-002	9.12475E-001	3.57860E+000	9	...........
	63	0.853333	9.17343E-001	1.00667E-004	0.00000E+000	9.23459E-005	5.99601E-002	9.17692E-001	3.57860E+000	9	...........
	64	0.866667	9.22501E-001	1.01295E-004	0.00000E+000	9.34447E-005	5.99601E-002	9.22814E-001	3.57860E+000	9	...........
	65	0.88	9.27453E-001	1.00820E-004	0.00000E+000	9.35057E-005	5.99601E-002	9.27775E-001	3.57860E+000	9	...........
	66	0.893333	9.32263E-001	1.01073E-004	0.00000E+000	9.42267E-005	5.99601E-002	9.32599E-001	3.57860E+000	9	...........
	67	0.906667	9.36973E-001	1.01493E-004	0.00000E+000	9.50961E-005	5.99601E-002	9.37338E-001	3.57860E+000	9	...........
	68	0.92	9.41571E-001	1.00591E-004	0.00000E+000	9.47132E-005	5.99601E-002	9.41910E-001	3.57860E+000	9	...........
	69	0.933333	9.46046E-001	1.01177E-004	0.00000E+000	9.57184E-005	5.99601E-002	9.46376E-001	3.57860E+000	9	...........
	70	0.946667	9.50440E-001	1.00946E-004	0.00000E+000	9.59431E-005	5.99601E-002	9.50758E-001	3.57860E+000	9	...........
	71	0.96	9.54662E-001	1.01213E-004	0.00000E+000	9.66239E-005	5.99601E-002	9.54979E-001	3.57860E+000	9	...........
	72	0.97333	9.58797E-001	1.01170E-004	0.00000E+000	9.70015E-005	5.99601E-002	9.59145E-001	3.57860E+000	9	...........
	73	0.98667	9.62813E-001	1.01352E-004	0.00000E+000	9.75834E-005	5.99601E-002	9.63151E-001	3.57860E+000	9	...........
	74	1	9.66772E-001	1.01037E-004	0.00000E+000	9.76794E-005	5.99601E-002	9.67094E-001	3.57860E+000	9	...........
	75	1.01333	9.70580E-001	1.00794E-004	0.00000E+000	9.78285E-005	5.99601E-002	9.70970E-001	3.57860E+000	9	...........
	76	1.02667	9.74387E-001	1.00918E-004	0.00000E+000	9.83330E-005	5.99601E-002	9.74725E-001	3.57860E+000	9	...........
	77	1.04	9.78015E-001	1.01242E-004	0.00000E+000	9.90161E-005	5.99601E-002	9.78361E-001	3.57860E+000	9	...........
	78	1.05333	9.81582E-001	1.00954E-004	0.00000E+000	9.90949E-005	5.99601E-002	9.81907E-001	3.57860E+000	9	...........
	79	1.06667	9.85040E-001	1.01068E-004	0.00000E+000	9.95559E-005	5.99601E-002	9.85392E-001	3.57860E+000	9	...........
	80	1.08	9.88424E-001	1.01140E-004	0.00000E+000	9.99690E-005	5.99601E-002	9.88769E-001	3.57860E+000	9	...........
	81	1.09333	9.91713E-001	1.01559E-004	0.00000E+000	1.00717E-004	5.99601E-002	9.92049E-001	3.57860E+000	9	...........
	82	1.10667	9.94912E-001	1.02102E-004	0.00000E+000	1.01583E-004	5.99601E-002	9.95249E-001	3.57860E+000	9	...........
	83	1.12	9.98050E-001	1.00857E-004	0.00000E+000	1.00661E-004	5.99601E-002	9.98395E-001	3.57860E+000	9	...........
	84	1.12333	9.99991E-001	1.00248E-004	0.00000E+000	1.00247E-004	5.99601E-002	1.00031E+000	3.57860E+000	9	...........
STARTTIMEOFFSET	QUANT	58.70334	Start Time Offset (s)
