EXPLAIN
TAG	PWR800_CHARGE
TITLE	LABEL	PWR Cyclic Charge Discharge (Cell) - Charge Step	Test &Identifier
DATE	LABEL	12-7-2017	Date
TIME	LABEL	16:33:13	Time
NOTES	NOTES	2	&Notes...
	supercap test cell
	6M KOH
PSTAT	PSTAT	IFC5000-01520	Potentiostat
CAPACITY	QUANT	1.00000E-003	Capacity (A-hr)
CELLTYPE	SELECTOR	1	&Cell Type
WORKINGCONNECTION	SELECTOR	0	&Working Lead
MAXCHARGETIME	VARIABLEANDUNITS	1.00000E+002	s	1.00000E+002	second(s)	Max &Charge Time
CHARGECURRENT	QUANT	1.00000E-004	&Charge Current (A) 
VOLTAGEFINISH	TWOPARAM	F	1.00000E-003	3.60000E+003	&Voltage Finish	 I (A) < 	Max Time(s)
SAMPLETIME	QUANT	1.00000E-002	Sa&mple Period (s)
CHARGESTOPAT1	MULTIPARAM	4	1.00000E+000	Charge Stop At &1	Voltage > Limit	V
CHARGESTOPAT2	MULTIPARAM	0	0.00000E+000	Charge Stop At &2	None	N/A
AESBHCSELECTOR	TOGGLE	F	Save Both Half Cells
IRCOMP	TOGGLE	F	IR &Measure
EOC	QUANT	0	Open Circuit (V)
SEQUENCER	TOGGLE	TRUE	Run as Sequence
PSTATMODEL	IQUANT	53	Pstat Model
PSTATSECTION	LABEL	IFC5000-01520	Pstat Section
PSTATSERIALNO	LABEL	01520	Pstat Serial Number
CTRLMODE	IQUANT	0	Control Mode
ELECTROMETER	IQUANT	1	RE=0 or CS=1
IESTAB	IQUANT	0	I/E Stability
CASPEED	IQUANT	4	Control Amp Speed
CONVENTION	IQUANT	1	Current Convention
ICHRANGE	IQUANT	2	Ich Range
ICHRANGEMODE	TOGGLE	T	Ich Auto Range
ICHOFFSETENABLE	TOGGLE	F	Ich Offset Enable
ICHOFFSET	QUANT	0	Ich Offset (V)
ICHFILTER	IQUANT	1	Ich Filter
VCHRANGE	IQUANT	2	Vch Range
VCHRANGEMODE	TOGGLE	T	Vch Auto Range
VCHOFFSETENABLE	TOGGLE	F	Vch Offset Enable
VCHOFFSET	QUANT	0	Vch Offset (V)
VCHFILTER	IQUANT	1	Vch Filter
IERANGELOWERLIMIT	IQUANT	9	I/E Range Lower Limit
IERANGEMODE	TOGGLE	F	I/E AutoRange
IERANGE	IQUANT	9	I/E Range
ACHSELECT	IQUANT	1	Ach Select
ACHRANGE	IQUANT	2	Ach Range
ACHOFFSETENABLE	TOGGLE	F	Ach Offset Enable
ACHOFFSET	QUANT	0	Ach Offset (V)
ACHFILTER	IQUANT	1	Ach Filter
CABLEID	IQUANT	14	Cable ID
DCCALDATE	LABEL	5-7-2017	DC Calibration Date
ACCALDATE	LABEL	12/3/2015	AC Calibration Date
FRAMEWORKVERSION	QUANT	7.01	Framework Version
INSTRUMENTVERSION	LABEL	4.00	Instrument Version
CURVE	TABLE	76
	Pt	T	Vf	Im	Vu	Pwr	Sig	Ach	Temp	IERange	Over
	#	s	V	A	V	W	V	V	deg C	#	bits
	0	0.013333	2.62019E-001	1.01113E-004	0.00000E+000	2.64934E-005	5.99601E-002	2.62089E-001	3.57670E+000	9	...........
	1	0.026667	2.84856E-001	1.00993E-004	0.00000E+000	2.87684E-005	5.99601E-002	2.84913E-001	3.57670E+000	9	...........
	2	0.04	3.06388E-001	1.01196E-004	0.00000E+000	3.10052E-005	5.99601E-002	3.06451E-001	3.57670E+000	9	...........
	3	0.053333	3.26986E-001	9.99364E-005	0.00000E+000	3.26778E-005	5.99601E-002	3.27047E-001	3.57670E+000	9	...........
	4	0.066667	3.46821E-001	1.01253E-004	0.00000E+000	3.51168E-005	5.99601E-002	3.46890E-001	3.57670E+000	9	...........
	5	0.08	3.66042E-001	1.01928E-004	0.00000E+000	3.73101E-005	5.99601E-002	3.66115E-001	3.57670E+000	9	...........
	6	0.093333	3.84712E-001	1.01132E-004	0.00000E+000	3.89069E-005	5.99601E-002	3.84792E-001	3.57670E+000	9	...........
	7	0.106667	4.02898E-001	1.01533E-004	0.00000E+000	4.09072E-005	5.99601E-002	4.02980E-001	3.57670E+000	9	...........
	8	0.12	4.20630E-001	1.01488E-004	0.00000E+000	4.26888E-005	5.99601E-002	4.20719E-001	3.57670E+000	9	...........
	9	0.133333	4.37951E-001	1.01238E-004	0.00000E+000	4.43372E-005	5.99601E-002	4.38041E-001	3.57670E+000	9	...........
	10	0.146667	4.54870E-001	1.02023E-004	0.00000E+000	4.64074E-005	5.99601E-002	4.54964E-001	3.57670E+000	9	...........
	11	0.16	4.71420E-001	1.00764E-004	0.00000E+000	4.75020E-005	5.99601E-002	4.71518E-001	3.57670E+000	9	...........
	12	0.173333	4.87604E-001	1.00947E-004	0.00000E+000	4.92221E-005	5.99601E-002	4.87708E-001	3.57670E+000	9	...........
	13	0.186667	5.03446E-001	1.00899E-004	0.00000E+000	5.07972E-005	5.99601E-002	5.03554E-001	3.57670E+000	9	...........
	14	0.2	5.18945E-001	1.01007E-004	0.00000E+000	5.24173E-005	5.99601E-002	5.19056E-001	3.57670E+000	9	...........
	15	0.213333	5.33960E-001	1.01687E-004	0.00000E+000	5.42966E-005	5.99601E-002	5.34135E-001	3.57670E+000	9	...........
	16	0.226667	5.48657E-001	1.01131E-004	0.00000E+000	5.54864E-005	5.99601E-002	5.48882E-001	3.57670E+000	9	...........
	17	0.24	5.63192E-001	1.01019E-004	0.00000E+000	5.68930E-005	5.99601E-002	5.63436E-001	3.57670E+000	9	...........
	18	0.253333	5.77410E-001	9.98176E-005	0.00000E+000	5.76357E-005	5.99601E-002	5.77642E-001	3.57670E+000	9	...........
	19	0.266667	5.91307E-001	1.00937E-004	0.00000E+000	5.96846E-005	5.99601E-002	5.91556E-001	3.57670E+000	9	...........
	20	0.28	6.04897E-001	1.01324E-004	0.00000E+000	6.12907E-005	5.99601E-002	6.05163E-001	3.57670E+000	9	...........
	21	0.293333	6.18225E-001	1.00155E-004	0.00000E+000	6.19184E-005	5.99601E-002	6.18456E-001	3.57670E+000	9	...........
	22	0.306667	6.31222E-001	1.01399E-004	0.00000E+000	6.40054E-005	5.99601E-002	6.31446E-001	3.57670E+000	9	...........
	23	0.32	6.43944E-001	1.01204E-004	0.00000E+000	6.51700E-005	5.99601E-002	6.44163E-001	3.57670E+000	9	...........
	24	0.333333	6.56345E-001	1.01436E-004	0.00000E+000	6.65768E-005	5.99601E-002	6.56568E-001	3.57670E+000	9	...........
	25	0.346667	6.68515E-001	1.01534E-004	0.00000E+000	6.78767E-005	5.99601E-002	6.68709E-001	3.57670E+000	9	...........
	26	0.36	6.80353E-001	1.01225E-004	0.00000E+000	6.88688E-005	5.99601E-002	6.80568E-001	3.57670E+000	9	...........
	27	0.373333	6.91898E-001	1.00932E-004	0.00000E+000	6.98350E-005	5.99601E-002	6.92120E-001	3.57670E+000	9	...........
	28	0.386667	7.03176E-001	1.00511E-004	0.00000E+000	7.06773E-005	5.99601E-002	7.03404E-001	3.57670E+000	9	...........
	29	0.4	7.14174E-001	1.01076E-004	0.00000E+000	7.21860E-005	5.99601E-002	7.14414E-001	3.57670E+000	9	...........
	30	0.413333	7.24933E-001	1.00509E-004	0.00000E+000	7.28626E-005	5.99601E-002	7.25161E-001	3.57670E+000	9	...........
	31	0.426667	7.35379E-001	1.00788E-004	0.00000E+000	7.41171E-005	5.99601E-002	7.35618E-001	3.57670E+000	9	...........
	32	0.44	7.45586E-001	1.01068E-004	0.00000E+000	7.53548E-005	5.99601E-002	7.45814E-001	3.57670E+000	9	...........
	33	0.453333	7.55504E-001	1.01644E-004	0.00000E+000	7.67925E-005	5.99601E-002	7.55727E-001	3.57670E+000	9	...........
	34	0.466667	7.65147E-001	1.01298E-004	0.00000E+000	7.75079E-005	5.99601E-002	7.65400E-001	3.57670E+000	9	...........
	35	0.48	7.74543E-001	1.01193E-004	0.00000E+000	7.83782E-005	5.99601E-002	7.74802E-001	3.57670E+000	9	...........
	36	0.493333	7.83675E-001	1.00641E-004	0.00000E+000	7.88696E-005	5.99601E-002	7.83941E-001	3.57670E+000	9	...........
	37	0.506667	7.92591E-001	1.00764E-004	0.00000E+000	7.98643E-005	5.99601E-002	7.92830E-001	3.57670E+000	9	...........
	38	0.52	8.01211E-001	1.01729E-004	0.00000E+000	8.15068E-005	5.99601E-002	8.01477E-001	3.57670E+000	9	...........
	39	0.533333	8.09572E-001	1.01356E-004	0.00000E+000	8.20553E-005	5.99601E-002	8.09836E-001	3.57670E+000	9	...........
	40	0.546667	8.17685E-001	1.00515E-004	0.00000E+000	8.21893E-005	5.99601E-002	8.17978E-001	3.57670E+000	9	...........
	41	0.56	8.25590E-001	9.97811E-005	0.00000E+000	8.23783E-005	5.99601E-002	8.25838E-001	3.57670E+000	9	...........
	42	0.573333	8.33241E-001	1.00861E-004	0.00000E+000	8.40411E-005	5.99601E-002	8.33511E-001	3.57670E+000	9	...........
	43	0.586667	8.40637E-001	1.01061E-004	0.00000E+000	8.49553E-005	5.99601E-002	8.40933E-001	3.57670E+000	9	...........
	44	0.6	8.47846E-001	1.00524E-004	0.00000E+000	8.52289E-005	5.99601E-002	8.48144E-001	3.57670E+000	9	...........
	45	0.613333	8.54814E-001	1.00951E-004	0.00000E+000	8.62944E-005	5.99601E-002	8.55113E-001	3.57670E+000	9	...........
	46	0.626667	8.61537E-001	1.00170E-004	0.00000E+000	8.63000E-005	5.99601E-002	8.61848E-001	3.57670E+000	9	...........
	47	0.64	8.68105E-001	1.00411E-004	0.00000E+000	8.71677E-005	5.99601E-002	8.68402E-001	3.57670E+000	9	...........
	48	0.653333	8.74441E-001	1.00240E-004	0.00000E+000	8.76536E-005	5.99601E-002	8.74736E-001	3.57670E+000	9	...........
	49	0.666667	8.80592E-001	1.00980E-004	0.00000E+000	8.89225E-005	5.99601E-002	8.80902E-001	3.57670E+000	9	...........
	50	0.68	8.86550E-001	1.00704E-004	0.00000E+000	8.92794E-005	5.99601E-002	8.86865E-001	3.57670E+000	9	...........
	51	0.693333	8.92334E-001	1.01684E-004	0.00000E+000	9.07357E-005	5.99601E-002	8.92660E-001	3.57670E+000	9	...........
	52	0.706667	8.97988E-001	1.00222E-004	0.00000E+000	8.99981E-005	5.99601E-002	8.98308E-001	3.57670E+000	9	...........
	53	0.72	9.03472E-001	1.00765E-004	0.00000E+000	9.10380E-005	5.99601E-002	9.03818E-001	3.57670E+000	9	...........
	54	0.733333	9.08856E-001	1.00588E-004	0.00000E+000	9.14196E-005	5.99601E-002	9.09184E-001	3.57670E+000	9	...........
	55	0.746667	9.14082E-001	1.03387E-004	0.00000E+000	9.45043E-005	5.99601E-002	9.14422E-001	3.57670E+000	9	...........
	56	0.76	9.19217E-001	1.00609E-004	0.00000E+000	9.24819E-005	5.99601E-002	9.19537E-001	3.57670E+000	9	...........
	57	0.773333	9.24256E-001	9.94842E-005	0.00000E+000	9.19488E-005	5.99601E-002	9.24560E-001	3.57670E+000	9	...........
	58	0.786667	9.29145E-001	1.00173E-004	0.00000E+000	9.30751E-005	5.99601E-002	9.29480E-001	3.57670E+000	9	...........
	59	0.8	9.33949E-001	1.01633E-004	0.00000E+000	9.49196E-005	5.99601E-002	9.34304E-001	3.57792E+000	9	...........
	60	0.813333	9.38665E-001	9.97113E-005	0.00000E+000	9.35955E-005	5.99601E-002	9.39021E-001	3.57810E+000	9	...........
	61	0.826667	9.43289E-001	1.01490E-004	0.00000E+000	9.57342E-005	5.99601E-002	9.43660E-001	3.57810E+000	9	...........
	62	0.84	9.47899E-001	1.00968E-004	0.00000E+000	9.57073E-005	5.99601E-002	9.48246E-001	3.57810E+000	9	...........
	63	0.853333	9.52351E-001	1.00518E-004	0.00000E+000	9.57282E-005	5.99601E-002	9.52711E-001	3.57810E+000	9	...........
	64	0.866667	9.56755E-001	9.99687E-005	0.00000E+000	9.56455E-005	5.99601E-002	9.57103E-001	3.57810E+000	9	...........
	65	0.88	9.61097E-001	1.00882E-004	0.00000E+000	9.69577E-005	5.99601E-002	9.61439E-001	3.57810E+000	9	...........
	66	0.893333	9.65333E-001	1.01192E-004	0.00000E+000	9.76839E-005	5.99601E-002	9.65685E-001	3.57810E+000	9	...........
	67	0.906667	9.69487E-001	1.01110E-004	0.00000E+000	9.80244E-005	5.99601E-002	9.69844E-001	3.57810E+000	9	...........
	68	0.92	9.73630E-001	1.00853E-004	0.00000E+000	9.81937E-005	5.99601E-002	9.73975E-001	3.57810E+000	9	...........
	69	0.933333	9.77665E-001	1.00326E-004	0.00000E+000	9.80853E-005	5.99601E-002	9.77983E-001	3.57810E+000	9	...........
	70	0.946667	9.81605E-001	1.01285E-004	0.00000E+000	9.94215E-005	5.99601E-002	9.81923E-001	3.57810E+000	9	...........
	71	0.96	9.85449E-001	1.01298E-004	0.00000E+000	9.98242E-005	5.99601E-002	9.85776E-001	3.57810E+000	9	...........
	72	0.97333	9.89240E-001	1.01354E-004	0.00000E+000	1.00264E-004	5.99601E-002	9.89571E-001	3.57810E+000	9	...........
	73	0.98667	9.92898E-001	1.00685E-004	0.00000E+000	9.99705E-005	5.99601E-002	9.93252E-001	3.57810E+000	9	...........
	74	1	9.96539E-001	1.00504E-004	0.00000E+000	1.00156E-004	5.99601E-002	9.96870E-001	3.57810E+000	9	...........
	75	1.00833	9.99416E-001	1.02072E-004	0.00000E+000	1.02012E-004	5.99601E-002	9.99771E-001	3.57810E+000	9	...........
STARTTIMEOFFSET	QUANT	990.855	Start Time Offset (s)
