EXPLAIN
TAG	PWR800_CHARGE
TITLE	LABEL	PWR Cyclic Charge Discharge (Cell) - Charge Step	Test &Identifier
DATE	LABEL	12-7-2017	Date
TIME	LABEL	16:51:55	Time
NOTES	NOTES	2	&Notes...
	supercap test cell
	6M KOH
PSTAT	PSTAT	IFC5000-01520	Potentiostat
CAPACITY	QUANT	1.00000E-003	Capacity (A-hr)
CELLTYPE	SELECTOR	1	&Cell Type
WORKINGCONNECTION	SELECTOR	0	&Working Lead
MAXCHARGETIME	VARIABLEANDUNITS	1.00000E+002	s	1.00000E+002	second(s)	Max &Charge Time
CHARGECURRENT	QUANT	1.00000E-004	&Charge Current (A) 
VOLTAGEFINISH	TWOPARAM	F	1.00000E-003	3.60000E+003	&Voltage Finish	 I (A) < 	Max Time(s)
SAMPLETIME	QUANT	1.00000E-002	Sa&mple Period (s)
CHARGESTOPAT1	MULTIPARAM	4	1.00000E+000	Charge Stop At &1	Voltage > Limit	V
CHARGESTOPAT2	MULTIPARAM	0	0.00000E+000	Charge Stop At &2	None	N/A
AESBHCSELECTOR	TOGGLE	F	Save Both Half Cells
IRCOMP	TOGGLE	F	IR &Measure
EOC	QUANT	0	Open Circuit (V)
SEQUENCER	TOGGLE	TRUE	Run as Sequence
PSTATMODEL	IQUANT	53	Pstat Model
PSTATSECTION	LABEL	IFC5000-01520	Pstat Section
PSTATSERIALNO	LABEL	01520	Pstat Serial Number
CTRLMODE	IQUANT	0	Control Mode
ELECTROMETER	IQUANT	1	RE=0 or CS=1
IESTAB	IQUANT	0	I/E Stability
CASPEED	IQUANT	4	Control Amp Speed
CONVENTION	IQUANT	1	Current Convention
ICHRANGE	IQUANT	2	Ich Range
ICHRANGEMODE	TOGGLE	T	Ich Auto Range
ICHOFFSETENABLE	TOGGLE	F	Ich Offset Enable
ICHOFFSET	QUANT	0	Ich Offset (V)
ICHFILTER	IQUANT	1	Ich Filter
VCHRANGE	IQUANT	2	Vch Range
VCHRANGEMODE	TOGGLE	T	Vch Auto Range
VCHOFFSETENABLE	TOGGLE	F	Vch Offset Enable
VCHOFFSET	QUANT	0	Vch Offset (V)
VCHFILTER	IQUANT	1	Vch Filter
IERANGELOWERLIMIT	IQUANT	9	I/E Range Lower Limit
IERANGEMODE	TOGGLE	F	I/E AutoRange
IERANGE	IQUANT	9	I/E Range
ACHSELECT	IQUANT	1	Ach Select
ACHRANGE	IQUANT	2	Ach Range
ACHOFFSETENABLE	TOGGLE	F	Ach Offset Enable
ACHOFFSET	QUANT	0	Ach Offset (V)
ACHFILTER	IQUANT	1	Ach Filter
CABLEID	IQUANT	14	Cable ID
DCCALDATE	LABEL	5-7-2017	DC Calibration Date
ACCALDATE	LABEL	12/3/2015	AC Calibration Date
FRAMEWORKVERSION	QUANT	7.01	Framework Version
INSTRUMENTVERSION	LABEL	4.00	Instrument Version
CURVE	TABLE	74
	Pt	T	Vf	Im	Vu	Pwr	Sig	Ach	Temp	IERange	Over
	#	s	V	A	V	W	V	V	deg C	#	bits
	0	0.013333	2.58586E-001	1.01153E-004	0.00000E+000	2.61569E-005	5.99601E-002	2.58661E-001	3.57630E+000	9	...........
	1	0.026667	2.81670E-001	1.00441E-004	0.00000E+000	2.82911E-005	5.99601E-002	2.81733E-001	3.57630E+000	9	...........
	2	0.04	3.03516E-001	1.00907E-004	0.00000E+000	3.06270E-005	5.99601E-002	3.03584E-001	3.57630E+000	9	...........
	3	0.053333	3.24488E-001	1.01666E-004	0.00000E+000	3.29893E-005	5.99601E-002	3.24552E-001	3.57630E+000	9	...........
	4	0.066667	3.44744E-001	1.01721E-004	0.00000E+000	3.50678E-005	5.99601E-002	3.44812E-001	3.57630E+000	9	...........
	5	0.08	3.64395E-001	1.00223E-004	0.00000E+000	3.65207E-005	5.99601E-002	3.64468E-001	3.57630E+000	9	...........
	6	0.093333	3.83532E-001	1.01413E-004	0.00000E+000	3.88951E-005	5.99601E-002	3.83606E-001	3.57630E+000	9	...........
	7	0.106667	4.02194E-001	9.96801E-005	0.00000E+000	4.00907E-005	5.99601E-002	4.02274E-001	3.57630E+000	9	...........
	8	0.12	4.20429E-001	1.01206E-004	0.00000E+000	4.25501E-005	5.99601E-002	4.20512E-001	3.57630E+000	9	...........
	9	0.133333	4.38255E-001	1.00026E-004	0.00000E+000	4.38369E-005	5.99601E-002	4.38340E-001	3.57630E+000	9	...........
	10	0.146667	4.55679E-001	1.00292E-004	0.00000E+000	4.57008E-005	5.99601E-002	4.55772E-001	3.57630E+000	9	...........
	11	0.16	4.72736E-001	1.02286E-004	0.00000E+000	4.83541E-005	5.99601E-002	4.72833E-001	3.57630E+000	9	...........
	12	0.173333	4.89422E-001	1.00158E-004	0.00000E+000	4.90197E-005	5.99601E-002	4.89518E-001	3.57630E+000	9	...........
	13	0.186667	5.05740E-001	1.00920E-004	0.00000E+000	5.10392E-005	5.99601E-002	5.05845E-001	3.57630E+000	9	...........
	14	0.2	5.21715E-001	1.01502E-004	0.00000E+000	5.29553E-005	5.99601E-002	5.21820E-001	3.57630E+000	9	...........
	15	0.213333	5.37141E-001	9.94957E-005	0.00000E+000	5.34432E-005	5.99601E-002	5.37298E-001	3.57630E+000	9	...........
	16	0.226667	5.52301E-001	9.97384E-005	0.00000E+000	5.50856E-005	5.99601E-002	5.52531E-001	3.57630E+000	9	...........
	17	0.24	5.67230E-001	1.01335E-004	0.00000E+000	5.74800E-005	5.99601E-002	5.67464E-001	3.57630E+000	9	...........
	18	0.253333	5.81809E-001	1.01594E-004	0.00000E+000	5.91083E-005	5.99601E-002	5.82051E-001	3.57630E+000	9	...........
	19	0.266667	5.96058E-001	1.00209E-004	0.00000E+000	5.97306E-005	5.99601E-002	5.96311E-001	3.57630E+000	9	...........
	20	0.28	6.09954E-001	1.01061E-004	0.00000E+000	6.16423E-005	5.99601E-002	6.10216E-001	3.57630E+000	9	...........
	21	0.293333	6.23574E-001	1.00828E-004	0.00000E+000	6.28739E-005	5.99601E-002	6.23812E-001	3.57630E+000	9	...........
	22	0.306667	6.36821E-001	9.96363E-005	0.00000E+000	6.34504E-005	5.99601E-002	6.37064E-001	3.57630E+000	9	...........
	23	0.32	6.49750E-001	1.02871E-004	0.00000E+000	6.68407E-005	5.99601E-002	6.50012E-001	3.57630E+000	9	...........
	24	0.333333	6.62359E-001	1.01270E-004	0.00000E+000	6.70771E-005	5.99601E-002	6.62633E-001	3.57630E+000	9	...........
	25	0.346667	6.74672E-001	1.01791E-004	0.00000E+000	6.86755E-005	5.99601E-002	6.74905E-001	3.57630E+000	9	...........
	26	0.36	6.86620E-001	1.00861E-004	0.00000E+000	6.92529E-005	5.99601E-002	6.86872E-001	3.57630E+000	9	...........
	27	0.373333	6.98301E-001	1.00592E-004	0.00000E+000	7.02433E-005	5.99601E-002	6.98540E-001	3.57630E+000	9	...........
	28	0.386667	7.09641E-001	1.00454E-004	0.00000E+000	7.12864E-005	5.99601E-002	7.09881E-001	3.57630E+000	9	...........
	29	0.4	7.20727E-001	1.00929E-004	0.00000E+000	7.27424E-005	5.99601E-002	7.20966E-001	3.57630E+000	9	...........
	30	0.413333	7.31457E-001	1.00696E-004	0.00000E+000	7.36547E-005	5.99601E-002	7.31691E-001	3.57630E+000	9	...........
	31	0.426667	7.41909E-001	9.95311E-005	0.00000E+000	7.38430E-005	5.99601E-002	7.42156E-001	3.57630E+000	9	...........
	32	0.44	7.52072E-001	1.01906E-004	0.00000E+000	7.66403E-005	5.99601E-002	7.52312E-001	3.57630E+000	9	...........
	33	0.453333	7.61949E-001	1.01974E-004	0.00000E+000	7.76992E-005	5.99601E-002	7.62190E-001	3.57630E+000	9	...........
	34	0.466667	7.71573E-001	1.00514E-004	0.00000E+000	7.75535E-005	5.99601E-002	7.71822E-001	3.57630E+000	9	...........
	35	0.48	7.80888E-001	1.00783E-004	0.00000E+000	7.87005E-005	5.99601E-002	7.81130E-001	3.57630E+000	9	...........
	36	0.493333	7.89925E-001	9.99624E-005	0.00000E+000	7.89628E-005	5.99601E-002	7.90199E-001	3.57630E+000	9	...........
	37	0.506667	7.98720E-001	1.01282E-004	0.00000E+000	8.08964E-005	5.99601E-002	7.98974E-001	3.57630E+000	9	...........
	38	0.52	8.07206E-001	1.01286E-004	0.00000E+000	8.17584E-005	5.99601E-002	8.07478E-001	3.57630E+000	9	...........
	39	0.533333	8.15448E-001	1.01299E-004	0.00000E+000	8.26042E-005	5.99601E-002	8.15733E-001	3.57630E+000	9	...........
	40	0.546667	8.23462E-001	1.01212E-004	0.00000E+000	8.33439E-005	5.99601E-002	8.23728E-001	3.57630E+000	9	...........
	41	0.56	8.31177E-001	1.00605E-004	0.00000E+000	8.36208E-005	5.99601E-002	8.31453E-001	3.57630E+000	9	...........
	42	0.573333	8.38650E-001	1.00528E-004	0.00000E+000	8.43080E-005	5.99601E-002	8.38935E-001	3.57630E+000	9	...........
	43	0.586667	8.45934E-001	1.01349E-004	0.00000E+000	8.57347E-005	5.99601E-002	8.46235E-001	3.57630E+000	9	...........
	44	0.6	8.52942E-001	1.01022E-004	0.00000E+000	8.61659E-005	5.99601E-002	8.53244E-001	3.57630E+000	9	...........
	45	0.613333	8.59762E-001	1.00229E-004	0.00000E+000	8.61732E-005	5.99601E-002	8.60079E-001	3.57630E+000	9	...........
	46	0.626667	8.66355E-001	1.00966E-004	0.00000E+000	8.74722E-005	5.99601E-002	8.66662E-001	3.57630E+000	9	...........
	47	0.64	8.72795E-001	1.01289E-004	0.00000E+000	8.84043E-005	5.99601E-002	8.73113E-001	3.57630E+000	9	...........
	48	0.653333	8.79010E-001	1.02258E-004	0.00000E+000	8.98855E-005	5.99601E-002	8.79347E-001	3.57630E+000	9	...........
	49	0.666667	8.85082E-001	9.99989E-005	0.00000E+000	8.85072E-005	5.99601E-002	8.85413E-001	3.57630E+000	9	...........
	50	0.68	8.90961E-001	1.02267E-004	0.00000E+000	9.11159E-005	5.99601E-002	8.91294E-001	3.57630E+000	9	...........
	51	0.693333	8.96714E-001	1.01259E-004	0.00000E+000	9.07999E-005	5.99601E-002	8.97065E-001	3.57630E+000	9	...........
	52	0.706667	9.02331E-001	9.99134E-005	0.00000E+000	9.01550E-005	5.99601E-002	9.02692E-001	3.57630E+000	9	...........
	53	0.72	9.07808E-001	1.00088E-004	0.00000E+000	9.08611E-005	5.99601E-002	9.08170E-001	3.57630E+000	9	...........
	54	0.733333	9.13191E-001	1.00344E-004	0.00000E+000	9.16331E-005	5.99601E-002	9.13518E-001	3.57630E+000	9	...........
	55	0.746667	9.18450E-001	9.98197E-005	0.00000E+000	9.16793E-005	5.99601E-002	9.18787E-001	3.57630E+000	9	...........
	56	0.76	9.23658E-001	1.01996E-004	0.00000E+000	9.42096E-005	5.99601E-002	9.23942E-001	3.57700E+000	9	...........
	57	0.773333	9.28726E-001	1.01469E-004	0.00000E+000	9.42369E-005	5.99601E-002	9.28998E-001	3.57770E+000	9	...........
	58	0.786667	9.33685E-001	1.01069E-004	0.00000E+000	9.43665E-005	5.99601E-002	9.33989E-001	3.57770E+000	9	...........
	59	0.8	9.38573E-001	1.02605E-004	0.00000E+000	9.63020E-005	5.99601E-002	9.38873E-001	3.57770E+000	9	...........
	60	0.813333	9.43378E-001	1.00790E-004	0.00000E+000	9.50827E-005	5.99601E-002	9.43691E-001	3.57770E+000	9	...........
	61	0.826667	9.48142E-001	1.01504E-004	0.00000E+000	9.62406E-005	5.99601E-002	9.48455E-001	3.57770E+000	9	...........
	62	0.84	9.52787E-001	1.00839E-004	0.00000E+000	9.60778E-005	5.99601E-002	9.53118E-001	3.57770E+000	9	...........
	63	0.853333	9.57372E-001	1.01147E-004	0.00000E+000	9.68353E-005	5.99601E-002	9.57705E-001	3.57770E+000	9	...........
	64	0.866667	9.61874E-001	1.02121E-004	0.00000E+000	9.82278E-005	5.99601E-002	9.62221E-001	3.57770E+000	9	...........
	65	0.88	9.66297E-001	1.00723E-004	0.00000E+000	9.73284E-005	5.99601E-002	9.66635E-001	3.57770E+000	9	...........
	66	0.893333	9.70661E-001	9.93592E-005	0.00000E+000	9.64441E-005	5.99601E-002	9.71026E-001	3.57770E+000	9	...........
	67	0.906667	9.74996E-001	1.00476E-004	0.00000E+000	9.79637E-005	5.99601E-002	9.75339E-001	3.57770E+000	9	...........
	68	0.92	9.79203E-001	1.00243E-004	0.00000E+000	9.81580E-005	5.99601E-002	9.79550E-001	3.57770E+000	9	...........
	69	0.933333	9.83341E-001	1.00618E-004	0.00000E+000	9.89416E-005	5.99601E-002	9.83680E-001	3.57770E+000	9	...........
	70	0.946667	9.87370E-001	1.01328E-004	0.00000E+000	1.00049E-004	5.99601E-002	9.87761E-001	3.57770E+000	9	...........
	71	0.96	9.91357E-001	1.01533E-004	0.00000E+000	1.00655E-004	5.99601E-002	9.91704E-001	3.57770E+000	9	...........
	72	0.97333	9.95209E-001	1.00677E-004	0.00000E+000	1.00195E-004	5.99601E-002	9.95581E-001	3.57770E+000	9	...........
	73	0.985	9.98791E-001	1.01722E-004	0.00000E+000	1.01599E-004	5.99601E-002	9.99166E-001	3.57770E+000	9	...........
STARTTIMEOFFSET	QUANT	1784.847	Start Time Offset (s)
