EXPLAIN
TAG	PWR800_CHARGE
TITLE	LABEL	PWR Cyclic Charge Discharge (Cell) - Charge Step	Test &Identifier
DATE	LABEL	12-7-2017	Date
TIME	LABEL	16:39:19	Time
NOTES	NOTES	2	&Notes...
	supercap test cell
	6M KOH
PSTAT	PSTAT	IFC5000-01520	Potentiostat
CAPACITY	QUANT	1.00000E-003	Capacity (A-hr)
CELLTYPE	SELECTOR	1	&Cell Type
WORKINGCONNECTION	SELECTOR	0	&Working Lead
MAXCHARGETIME	VARIABLEANDUNITS	1.00000E+002	s	1.00000E+002	second(s)	Max &Charge Time
CHARGECURRENT	QUANT	1.00000E-004	&Charge Current (A) 
VOLTAGEFINISH	TWOPARAM	F	1.00000E-003	3.60000E+003	&Voltage Finish	 I (A) < 	Max Time(s)
SAMPLETIME	QUANT	1.00000E-002	Sa&mple Period (s)
CHARGESTOPAT1	MULTIPARAM	4	1.00000E+000	Charge Stop At &1	Voltage > Limit	V
CHARGESTOPAT2	MULTIPARAM	0	0.00000E+000	Charge Stop At &2	None	N/A
AESBHCSELECTOR	TOGGLE	F	Save Both Half Cells
IRCOMP	TOGGLE	F	IR &Measure
EOC	QUANT	0	Open Circuit (V)
SEQUENCER	TOGGLE	TRUE	Run as Sequence
PSTATMODEL	IQUANT	53	Pstat Model
PSTATSECTION	LABEL	IFC5000-01520	Pstat Section
PSTATSERIALNO	LABEL	01520	Pstat Serial Number
CTRLMODE	IQUANT	0	Control Mode
ELECTROMETER	IQUANT	1	RE=0 or CS=1
IESTAB	IQUANT	0	I/E Stability
CASPEED	IQUANT	4	Control Amp Speed
CONVENTION	IQUANT	1	Current Convention
ICHRANGE	IQUANT	2	Ich Range
ICHRANGEMODE	TOGGLE	T	Ich Auto Range
ICHOFFSETENABLE	TOGGLE	F	Ich Offset Enable
ICHOFFSET	QUANT	0	Ich Offset (V)
ICHFILTER	IQUANT	1	Ich Filter
VCHRANGE	IQUANT	2	Vch Range
VCHRANGEMODE	TOGGLE	T	Vch Auto Range
VCHOFFSETENABLE	TOGGLE	F	Vch Offset Enable
VCHOFFSET	QUANT	0	Vch Offset (V)
VCHFILTER	IQUANT	1	Vch Filter
IERANGELOWERLIMIT	IQUANT	9	I/E Range Lower Limit
IERANGEMODE	TOGGLE	F	I/E AutoRange
IERANGE	IQUANT	9	I/E Range
ACHSELECT	IQUANT	1	Ach Select
ACHRANGE	IQUANT	2	Ach Range
ACHOFFSETENABLE	TOGGLE	F	Ach Offset Enable
ACHOFFSET	QUANT	0	Ach Offset (V)
ACHFILTER	IQUANT	1	Ach Filter
CABLEID	IQUANT	14	Cable ID
DCCALDATE	LABEL	5-7-2017	DC Calibration Date
ACCALDATE	LABEL	12/3/2015	AC Calibration Date
FRAMEWORKVERSION	QUANT	7.01	Framework Version
INSTRUMENTVERSION	LABEL	4.00	Instrument Version
CURVE	TABLE	75
	Pt	T	Vf	Im	Vu	Pwr	Sig	Ach	Temp	IERange	Over
	#	s	V	A	V	W	V	V	deg C	#	bits
	0	0.013333	2.60825E-001	9.99020E-005	0.00000E+000	2.60569E-005	5.99601E-002	2.60905E-001	3.57640E+000	9	...........
	1	0.026667	2.83766E-001	1.01692E-004	0.00000E+000	2.88567E-005	5.99601E-002	2.83829E-001	3.57640E+000	9	...........
	2	0.04	3.05429E-001	1.00784E-004	0.00000E+000	3.07825E-005	5.99601E-002	3.05490E-001	3.57640E+000	9	...........
	3	0.053333	3.26175E-001	1.01343E-004	0.00000E+000	3.30555E-005	5.99601E-002	3.26242E-001	3.57640E+000	9	...........
	4	0.066667	3.46197E-001	1.01272E-004	0.00000E+000	3.50601E-005	5.99601E-002	3.46268E-001	3.57640E+000	9	...........
	5	0.08	3.65600E-001	1.01713E-004	0.00000E+000	3.71862E-005	5.99601E-002	3.65679E-001	3.57640E+000	9	...........
	6	0.093333	3.84481E-001	1.00508E-004	0.00000E+000	3.86435E-005	5.99601E-002	3.84557E-001	3.57640E+000	9	...........
	7	0.106667	4.02867E-001	1.00441E-004	0.00000E+000	4.04642E-005	5.99601E-002	4.02954E-001	3.57640E+000	9	...........
	8	0.12	4.20812E-001	1.01230E-004	0.00000E+000	4.25990E-005	5.99601E-002	4.20906E-001	3.57640E+000	9	...........
	9	0.133333	4.38352E-001	1.00639E-004	0.00000E+000	4.41151E-005	5.99601E-002	4.38449E-001	3.57640E+000	9	...........
	10	0.146667	4.55503E-001	1.01570E-004	0.00000E+000	4.62655E-005	5.99601E-002	4.55599E-001	3.57640E+000	9	...........
	11	0.16	4.72268E-001	1.01147E-004	0.00000E+000	4.77685E-005	5.99601E-002	4.72376E-001	3.57640E+000	9	...........
	12	0.173333	4.88679E-001	1.00758E-004	0.00000E+000	4.92385E-005	5.99601E-002	4.88780E-001	3.57640E+000	9	...........
	13	0.186667	5.04730E-001	1.01660E-004	0.00000E+000	5.13107E-005	5.99601E-002	5.04835E-001	3.57640E+000	9	...........
	14	0.2	5.20428E-001	1.02533E-004	0.00000E+000	5.33609E-005	5.99601E-002	5.20538E-001	3.57640E+000	9	...........
	15	0.213333	5.35639E-001	1.02280E-004	0.00000E+000	5.47849E-005	5.99601E-002	5.35778E-001	3.57640E+000	9	...........
	16	0.226667	5.50494E-001	1.00570E-004	0.00000E+000	5.53631E-005	5.99601E-002	5.50739E-001	3.57640E+000	9	...........
	17	0.24	5.65203E-001	1.00769E-004	0.00000E+000	5.69548E-005	5.99601E-002	5.65452E-001	3.57640E+000	9	...........
	18	0.253333	5.79562E-001	1.01648E-004	0.00000E+000	5.89114E-005	5.99601E-002	5.79828E-001	3.57640E+000	9	...........
	19	0.266667	5.93630E-001	1.00767E-004	0.00000E+000	5.98181E-005	5.99601E-002	5.93903E-001	3.57640E+000	9	...........
	20	0.28	6.07317E-001	1.00415E-004	0.00000E+000	6.09835E-005	5.99601E-002	6.07630E-001	3.57640E+000	9	...........
	21	0.293333	6.20793E-001	1.02196E-004	0.00000E+000	6.34427E-005	5.99601E-002	6.21032E-001	3.57640E+000	9	...........
	22	0.306667	6.33877E-001	9.97228E-005	0.00000E+000	6.32120E-005	5.99601E-002	6.34132E-001	3.57640E+000	9	...........
	23	0.32	6.46703E-001	1.01268E-004	0.00000E+000	6.54902E-005	5.99601E-002	6.46932E-001	3.57640E+000	9	...........
	24	0.333333	6.59179E-001	1.01524E-004	0.00000E+000	6.69226E-005	5.99601E-002	6.59412E-001	3.57640E+000	9	...........
	25	0.346667	6.71391E-001	1.00801E-004	0.00000E+000	6.76770E-005	5.99601E-002	6.71602E-001	3.57640E+000	9	...........
	26	0.36	6.83248E-001	9.98270E-005	0.00000E+000	6.82066E-005	5.99601E-002	6.83495E-001	3.57640E+000	9	...........
	27	0.373333	6.94862E-001	1.01369E-004	0.00000E+000	7.04374E-005	5.99601E-002	6.95085E-001	3.57640E+000	9	...........
	28	0.386667	7.06150E-001	1.00906E-004	0.00000E+000	7.12550E-005	5.99601E-002	7.06401E-001	3.57640E+000	9	...........
	29	0.4	7.17158E-001	1.01253E-004	0.00000E+000	7.26146E-005	5.99601E-002	7.17408E-001	3.57640E+000	9	...........
	30	0.413333	7.27889E-001	1.00191E-004	0.00000E+000	7.29277E-005	5.99601E-002	7.28135E-001	3.57640E+000	9	...........
	31	0.426667	7.38308E-001	1.00592E-004	0.00000E+000	7.42677E-005	5.99601E-002	7.38581E-001	3.57640E+000	9	...........
	32	0.44	7.48487E-001	1.01553E-004	0.00000E+000	7.60114E-005	5.99601E-002	7.48741E-001	3.57640E+000	9	...........
	33	0.453333	7.58359E-001	1.00307E-004	0.00000E+000	7.60690E-005	5.99601E-002	7.58646E-001	3.57640E+000	9	...........
	34	0.466667	7.67980E-001	1.01216E-004	0.00000E+000	7.77317E-005	5.99601E-002	7.68257E-001	3.57640E+000	9	...........
	35	0.48	7.77327E-001	1.01159E-004	0.00000E+000	7.86333E-005	5.99601E-002	7.77587E-001	3.57640E+000	9	...........
	36	0.493333	7.86417E-001	1.00838E-004	0.00000E+000	7.93004E-005	5.99601E-002	7.86669E-001	3.57640E+000	9	...........
	37	0.506667	7.95240E-001	1.00889E-004	0.00000E+000	8.02307E-005	5.99601E-002	7.95536E-001	3.57640E+000	9	...........
	38	0.52	8.03815E-001	1.01207E-004	0.00000E+000	8.13521E-005	5.99601E-002	8.04118E-001	3.57640E+000	9	...........
	39	0.533333	8.12113E-001	1.00642E-004	0.00000E+000	8.17324E-005	5.99601E-002	8.12430E-001	3.57640E+000	9	...........
	40	0.546667	8.20198E-001	1.01219E-004	0.00000E+000	8.30196E-005	5.99601E-002	8.20507E-001	3.57640E+000	9	...........
	41	0.56	8.28015E-001	1.00243E-004	0.00000E+000	8.30024E-005	5.99601E-002	8.28317E-001	3.57640E+000	9	...........
	42	0.573333	8.35558E-001	1.00510E-004	0.00000E+000	8.39823E-005	5.99601E-002	8.35858E-001	3.57640E+000	9	...........
	43	0.586667	8.42885E-001	1.01480E-004	0.00000E+000	8.55364E-005	5.99601E-002	8.43153E-001	3.57640E+000	9	...........
	44	0.6	8.50003E-001	1.00369E-004	0.00000E+000	8.53138E-005	5.99601E-002	8.50281E-001	3.57640E+000	9	...........
	45	0.613333	8.56871E-001	1.01377E-004	0.00000E+000	8.68672E-005	5.99601E-002	8.57151E-001	3.57640E+000	9	...........
	46	0.626667	8.63528E-001	1.01408E-004	0.00000E+000	8.75682E-005	5.99601E-002	8.63837E-001	3.57640E+000	9	...........
	47	0.64	8.70010E-001	1.00019E-004	0.00000E+000	8.70173E-005	5.99601E-002	8.70328E-001	3.57640E+000	9	...........
	48	0.653333	8.76282E-001	1.00404E-004	0.00000E+000	8.79823E-005	5.99601E-002	8.76581E-001	3.57640E+000	9	...........
	49	0.666667	8.82376E-001	1.00186E-004	0.00000E+000	8.84021E-005	5.99601E-002	8.82682E-001	3.57640E+000	9	...........
	50	0.68	8.88290E-001	1.01392E-004	0.00000E+000	9.00654E-005	5.99601E-002	8.88596E-001	3.57640E+000	9	...........
	51	0.693333	8.94028E-001	1.00573E-004	0.00000E+000	8.99151E-005	5.99601E-002	8.94352E-001	3.57640E+000	9	...........
	52	0.706667	8.99614E-001	1.00451E-004	0.00000E+000	9.03672E-005	5.99601E-002	8.99964E-001	3.57640E+000	9	...........
	53	0.72	9.05105E-001	1.00800E-004	0.00000E+000	9.12346E-005	5.99601E-002	9.05443E-001	3.57640E+000	9	...........
	54	0.733333	9.10463E-001	9.93300E-005	0.00000E+000	9.04363E-005	5.99601E-002	9.10789E-001	3.57640E+000	9	...........
	55	0.746667	9.15680E-001	1.00767E-004	0.00000E+000	9.22701E-005	5.99601E-002	9.16025E-001	3.57640E+000	9	...........
	56	0.76	9.20827E-001	1.01798E-004	0.00000E+000	9.37385E-005	5.99601E-002	9.21149E-001	3.57640E+000	9	...........
	57	0.773333	9.25850E-001	1.00585E-004	0.00000E+000	9.31270E-005	5.99601E-002	9.26192E-001	3.57640E+000	9	...........
	58	0.786667	9.30768E-001	1.00973E-004	0.00000E+000	9.39825E-005	5.99601E-002	9.31090E-001	3.57640E+000	9	...........
	59	0.8	9.35580E-001	1.00028E-004	0.00000E+000	9.35842E-005	5.99601E-002	9.35943E-001	3.57640E+000	9	...........
	60	0.813333	9.40351E-001	1.00702E-004	0.00000E+000	9.46954E-005	5.99601E-002	9.40684E-001	3.57640E+000	9	...........
	61	0.826667	9.45019E-001	1.00276E-004	0.00000E+000	9.47628E-005	5.99601E-002	9.45374E-001	3.57640E+000	9	...........
	62	0.84	9.49649E-001	1.01329E-004	0.00000E+000	9.62273E-005	5.99601E-002	9.49974E-001	3.57640E+000	9	...........
	63	0.853333	9.54149E-001	1.01080E-004	0.00000E+000	9.64457E-005	5.99601E-002	9.54484E-001	3.57640E+000	9	...........
	64	0.866667	9.58583E-001	1.00839E-004	0.00000E+000	9.66622E-005	5.99601E-002	9.58914E-001	3.57640E+000	9	...........
	65	0.88	9.62932E-001	1.02471E-004	0.00000E+000	9.86729E-005	5.99601E-002	9.63294E-001	3.57640E+000	9	...........
	66	0.893333	9.67211E-001	1.00522E-004	0.00000E+000	9.72259E-005	5.99601E-002	9.67546E-001	3.57640E+000	9	...........
	67	0.906667	9.71429E-001	1.01274E-004	0.00000E+000	9.83807E-005	5.99601E-002	9.71823E-001	3.57640E+000	9	...........
	68	0.92	9.75620E-001	1.00964E-004	0.00000E+000	9.85021E-005	5.99601E-002	9.75936E-001	3.57640E+000	9	...........
	69	0.933333	9.79665E-001	1.00691E-004	0.00000E+000	9.86431E-005	5.99601E-002	9.80015E-001	3.57640E+000	9	...........
	70	0.946667	9.83629E-001	1.00533E-004	0.00000E+000	9.88875E-005	5.99601E-002	9.83971E-001	3.57640E+000	9	...........
	71	0.96	9.87555E-001	1.01263E-004	0.00000E+000	1.00002E-004	5.99601E-002	9.87886E-001	3.57640E+000	9	...........
	72	0.97333	9.91343E-001	1.00109E-004	0.00000E+000	9.92427E-005	5.99601E-002	9.91711E-001	3.57640E+000	9	...........
	73	0.98667	9.95064E-001	1.00272E-004	0.00000E+000	9.97769E-005	5.99601E-002	9.95416E-001	3.57640E+000	9	...........
	74	1	9.98737E-001	1.00277E-004	0.00000E+000	1.00150E-004	5.99601E-002	9.99092E-001	3.57640E+000	9	...........
STARTTIMEOFFSET	QUANT	1249.397	Start Time Offset (s)
