EXPLAIN
TAG	PWR800_CHARGE
TITLE	LABEL	PWR Cyclic Charge Discharge (Cell) - Charge Step	Test &Identifier
DATE	LABEL	12-7-2017	Date
TIME	LABEL	16:45:17	Time
NOTES	NOTES	2	&Notes...
	supercap test cell
	6M KOH
PSTAT	PSTAT	IFC5000-01520	Potentiostat
CAPACITY	QUANT	1.00000E-003	Capacity (A-hr)
CELLTYPE	SELECTOR	1	&Cell Type
WORKINGCONNECTION	SELECTOR	0	&Working Lead
MAXCHARGETIME	VARIABLEANDUNITS	1.00000E+002	s	1.00000E+002	second(s)	Max &Charge Time
CHARGECURRENT	QUANT	1.00000E-004	&Charge Current (A) 
VOLTAGEFINISH	TWOPARAM	F	1.00000E-003	3.60000E+003	&Voltage Finish	 I (A) < 	Max Time(s)
SAMPLETIME	QUANT	1.00000E-002	Sa&mple Period (s)
CHARGESTOPAT1	MULTIPARAM	4	1.00000E+000	Charge Stop At &1	Voltage > Limit	V
CHARGESTOPAT2	MULTIPARAM	0	0.00000E+000	Charge Stop At &2	None	N/A
AESBHCSELECTOR	TOGGLE	F	Save Both Half Cells
IRCOMP	TOGGLE	F	IR &Measure
EOC	QUANT	0	Open Circuit (V)
SEQUENCER	TOGGLE	TRUE	Run as Sequence
PSTATMODEL	IQUANT	53	Pstat Model
PSTATSECTION	LABEL	IFC5000-01520	Pstat Section
PSTATSERIALNO	LABEL	01520	Pstat Serial Number
CTRLMODE	IQUANT	0	Control Mode
ELECTROMETER	IQUANT	1	RE=0 or CS=1
IESTAB	IQUANT	0	I/E Stability
CASPEED	IQUANT	4	Control Amp Speed
CONVENTION	IQUANT	1	Current Convention
ICHRANGE	IQUANT	2	Ich Range
ICHRANGEMODE	TOGGLE	T	Ich Auto Range
ICHOFFSETENABLE	TOGGLE	F	Ich Offset Enable
ICHOFFSET	QUANT	0	Ich Offset (V)
ICHFILTER	IQUANT	1	Ich Filter
VCHRANGE	IQUANT	2	Vch Range
VCHRANGEMODE	TOGGLE	T	Vch Auto Range
VCHOFFSETENABLE	TOGGLE	F	Vch Offset Enable
VCHOFFSET	QUANT	0	Vch Offset (V)
VCHFILTER	IQUANT	1	Vch Filter
IERANGELOWERLIMIT	IQUANT	9	I/E Range Lower Limit
IERANGEMODE	TOGGLE	F	I/E AutoRange
IERANGE	IQUANT	9	I/E Range
ACHSELECT	IQUANT	1	Ach Select
ACHRANGE	IQUANT	2	Ach Range
ACHOFFSETENABLE	TOGGLE	F	Ach Offset Enable
ACHOFFSET	QUANT	0	Ach Offset (V)
ACHFILTER	IQUANT	1	Ach Filter
CABLEID	IQUANT	14	Cable ID
DCCALDATE	LABEL	5-7-2017	DC Calibration Date
ACCALDATE	LABEL	12/3/2015	AC Calibration Date
FRAMEWORKVERSION	QUANT	7.01	Framework Version
INSTRUMENTVERSION	LABEL	4.00	Instrument Version
CURVE	TABLE	75
	Pt	T	Vf	Im	Vu	Pwr	Sig	Ach	Temp	IERange	Over
	#	s	V	A	V	W	V	V	deg C	#	bits
	0	0.013333	2.58472E-001	1.00384E-004	0.00000E+000	2.59465E-005	5.99601E-002	2.58545E-001	3.57750E+000	9	...........
	1	0.026667	2.81509E-001	1.00201E-004	0.00000E+000	2.82075E-005	5.99601E-002	2.81572E-001	3.57750E+000	9	...........
	2	0.04	3.03300E-001	1.00643E-004	0.00000E+000	3.05249E-005	5.99601E-002	3.03363E-001	3.57750E+000	9	...........
	3	0.053333	3.24185E-001	1.02216E-004	0.00000E+000	3.31369E-005	5.99601E-002	3.24253E-001	3.57750E+000	9	...........
	4	0.066667	3.44360E-001	1.01876E-004	0.00000E+000	3.50821E-005	5.99601E-002	3.44434E-001	3.57750E+000	9	...........
	5	0.08	3.63934E-001	1.00608E-004	0.00000E+000	3.66148E-005	5.99601E-002	3.64007E-001	3.57750E+000	9	...........
	6	0.093333	3.82987E-001	1.00850E-004	0.00000E+000	3.86243E-005	5.99601E-002	3.83059E-001	3.57750E+000	9	...........
	7	0.106667	4.01555E-001	1.00369E-004	0.00000E+000	4.03036E-005	5.99601E-002	4.01641E-001	3.57750E+000	9	...........
	8	0.12	4.19689E-001	1.01501E-004	0.00000E+000	4.25989E-005	5.99601E-002	4.19776E-001	3.57750E+000	9	...........
	9	0.133333	4.37400E-001	9.99978E-005	0.00000E+000	4.37391E-005	5.99601E-002	4.37495E-001	3.57750E+000	9	...........
	10	0.146667	4.54731E-001	1.00866E-004	0.00000E+000	4.58667E-005	5.99601E-002	4.54820E-001	3.57750E+000	9	...........
	11	0.16	4.71690E-001	1.02792E-004	0.00000E+000	4.84861E-005	5.99601E-002	4.71786E-001	3.57750E+000	9	...........
	12	0.173333	4.88271E-001	1.00720E-004	0.00000E+000	4.91785E-005	5.99601E-002	4.88373E-001	3.57750E+000	9	...........
	13	0.186667	5.04491E-001	1.01651E-004	0.00000E+000	5.12822E-005	5.99601E-002	5.04599E-001	3.57750E+000	9	...........
	14	0.2	5.20372E-001	1.01074E-004	0.00000E+000	5.25961E-005	5.99601E-002	5.20478E-001	3.57750E+000	9	...........
	15	0.213333	5.35737E-001	1.01732E-004	0.00000E+000	5.45013E-005	5.99601E-002	5.35915E-001	3.57750E+000	9	...........
	16	0.226667	5.50766E-001	1.00358E-004	0.00000E+000	5.52740E-005	5.99601E-002	5.50997E-001	3.57750E+000	9	...........
	17	0.24	5.65647E-001	1.00815E-004	0.00000E+000	5.70255E-005	5.99601E-002	5.65872E-001	3.57750E+000	9	...........
	18	0.253333	5.80115E-001	9.98124E-005	0.00000E+000	5.79026E-005	5.99601E-002	5.80377E-001	3.57750E+000	9	...........
	19	0.266667	5.94317E-001	1.01690E-004	0.00000E+000	6.04361E-005	5.99601E-002	5.94573E-001	3.57750E+000	9	...........
	20	0.28	6.08124E-001	1.01709E-004	0.00000E+000	6.18514E-005	5.99601E-002	6.08426E-001	3.57750E+000	9	...........
	21	0.293333	6.21735E-001	1.00736E-004	0.00000E+000	6.26308E-005	5.99601E-002	6.21939E-001	3.57750E+000	9	...........
	22	0.306667	6.34905E-001	1.00153E-004	0.00000E+000	6.35877E-005	5.99601E-002	6.35138E-001	3.57750E+000	9	...........
	23	0.32	6.47815E-001	1.01876E-004	0.00000E+000	6.59970E-005	5.99601E-002	6.48044E-001	3.57750E+000	9	...........
	24	0.333333	6.60382E-001	1.01390E-004	0.00000E+000	6.69560E-005	5.99601E-002	6.60599E-001	3.57750E+000	9	...........
	25	0.346667	6.72661E-001	1.01240E-004	0.00000E+000	6.81001E-005	5.99601E-002	6.72885E-001	3.57750E+000	9	...........
	26	0.36	6.84587E-001	1.01479E-004	0.00000E+000	6.94715E-005	5.99601E-002	6.84838E-001	3.57750E+000	9	...........
	27	0.373333	6.96245E-001	1.01348E-004	0.00000E+000	7.05631E-005	5.99601E-002	6.96485E-001	3.57750E+000	9	...........
	28	0.386667	7.07562E-001	1.01030E-004	0.00000E+000	7.14852E-005	5.99601E-002	7.07838E-001	3.57750E+000	9	...........
	29	0.4	7.18641E-001	1.00503E-004	0.00000E+000	7.22257E-005	5.99601E-002	7.18885E-001	3.57750E+000	9	...........
	30	0.413333	7.29396E-001	1.01890E-004	0.00000E+000	7.43181E-005	5.99601E-002	7.29649E-001	3.57750E+000	9	...........
	31	0.426667	7.39857E-001	1.01635E-004	0.00000E+000	7.51951E-005	5.99601E-002	7.40091E-001	3.57750E+000	9	...........
	32	0.44	7.50029E-001	1.00613E-004	0.00000E+000	7.54623E-005	5.99601E-002	7.50276E-001	3.57750E+000	9	...........
	33	0.453333	7.59946E-001	1.01331E-004	0.00000E+000	7.70064E-005	5.99601E-002	7.60177E-001	3.57750E+000	9	...........
	34	0.466667	7.69561E-001	1.01668E-004	0.00000E+000	7.82397E-005	5.99601E-002	7.69824E-001	3.57750E+000	9	...........
	35	0.48	7.78907E-001	1.00099E-004	0.00000E+000	7.79677E-005	5.99601E-002	7.79165E-001	3.57750E+000	9	...........
	36	0.493333	7.87989E-001	1.01256E-004	0.00000E+000	7.97890E-005	5.99601E-002	7.88215E-001	3.57750E+000	9	...........
	37	0.506667	7.96800E-001	1.00192E-004	0.00000E+000	7.98327E-005	5.99601E-002	7.97056E-001	3.57750E+000	9	...........
	38	0.52	8.05334E-001	1.01547E-004	0.00000E+000	8.17794E-005	5.99601E-002	8.05588E-001	3.57750E+000	9	...........
	39	0.533333	8.13620E-001	1.02520E-004	0.00000E+000	8.34125E-005	5.99601E-002	8.13858E-001	3.57750E+000	9	...........
	40	0.546667	8.21631E-001	1.00713E-004	0.00000E+000	8.27486E-005	5.99601E-002	8.21917E-001	3.57750E+000	9	...........
	41	0.56	8.29398E-001	1.00977E-004	0.00000E+000	8.37503E-005	5.99601E-002	8.29660E-001	3.57750E+000	9	...........
	42	0.573333	8.36919E-001	1.00879E-004	0.00000E+000	8.44278E-005	5.99601E-002	8.37200E-001	3.57750E+000	9	...........
	43	0.586667	8.44221E-001	1.02542E-004	0.00000E+000	8.65682E-005	5.99601E-002	8.44513E-001	3.57750E+000	9	...........
	44	0.6	8.51280E-001	1.02466E-004	0.00000E+000	8.72273E-005	5.99601E-002	8.51578E-001	3.57750E+000	9	...........
	45	0.613333	8.58102E-001	9.96894E-005	0.00000E+000	8.55437E-005	5.99601E-002	8.58419E-001	3.57750E+000	9	...........
	46	0.626667	8.64706E-001	1.01307E-004	0.00000E+000	8.76012E-005	5.99601E-002	8.65019E-001	3.57750E+000	9	...........
	47	0.64	8.71172E-001	9.99666E-005	0.00000E+000	8.70881E-005	5.99601E-002	8.71459E-001	3.57750E+000	9	...........
	48	0.653333	8.77404E-001	1.00654E-004	0.00000E+000	8.83145E-005	5.99601E-002	8.77686E-001	3.57750E+000	9	...........
	49	0.666667	8.83493E-001	1.01150E-004	0.00000E+000	8.93655E-005	5.99601E-002	8.83766E-001	3.57750E+000	9	...........
	50	0.68	8.89395E-001	1.02121E-004	0.00000E+000	9.08261E-005	5.99601E-002	8.89657E-001	3.57750E+000	9	...........
	51	0.693333	8.95137E-001	1.01036E-004	0.00000E+000	9.04407E-005	5.99601E-002	8.95437E-001	3.57750E+000	9	...........
	52	0.706667	9.00757E-001	1.01859E-004	0.00000E+000	9.17499E-005	5.99601E-002	9.01035E-001	3.57750E+000	9	...........
	53	0.72	9.06220E-001	1.01651E-004	0.00000E+000	9.21185E-005	5.99601E-002	9.06525E-001	3.57750E+000	9	...........
	54	0.733333	9.11581E-001	1.02517E-004	0.00000E+000	9.34526E-005	5.99601E-002	9.11857E-001	3.57750E+000	9	...........
	55	0.746667	9.16820E-001	1.00195E-004	0.00000E+000	9.18606E-005	5.99601E-002	9.17148E-001	3.57750E+000	9	...........
	56	0.76	9.22010E-001	1.02015E-004	0.00000E+000	9.40588E-005	5.99601E-002	9.22290E-001	3.57750E+000	9	...........
	57	0.773333	9.27052E-001	1.00991E-004	0.00000E+000	9.36236E-005	5.99601E-002	9.27324E-001	3.57750E+000	9	...........
	58	0.786667	9.31973E-001	1.01707E-004	0.00000E+000	9.47878E-005	5.99601E-002	9.32263E-001	3.57750E+000	9	...........
	59	0.8	9.36844E-001	1.01430E-004	0.00000E+000	9.50245E-005	5.99601E-002	9.37145E-001	3.57750E+000	9	...........
	60	0.813333	9.41617E-001	1.01876E-004	0.00000E+000	9.59285E-005	5.99601E-002	9.41921E-001	3.57750E+000	9	...........
	61	0.826667	9.46344E-001	1.00753E-004	0.00000E+000	9.53472E-005	5.99601E-002	9.46638E-001	3.57750E+000	9	...........
	62	0.84	9.50983E-001	1.01620E-004	0.00000E+000	9.66389E-005	5.99601E-002	9.51313E-001	3.57750E+000	9	...........
	63	0.853333	9.55513E-001	1.00332E-004	0.00000E+000	9.58688E-005	5.99601E-002	9.55850E-001	3.57750E+000	9	...........
	64	0.866667	9.60007E-001	1.00624E-004	0.00000E+000	9.65998E-005	5.99601E-002	9.60359E-001	3.57750E+000	9	...........
	65	0.88	9.64388E-001	1.01773E-004	0.00000E+000	9.81489E-005	5.99601E-002	9.64746E-001	3.57750E+000	9	...........
	66	0.893333	9.68712E-001	1.00489E-004	0.00000E+000	9.73445E-005	5.99601E-002	9.69074E-001	3.57750E+000	9	...........
	67	0.906667	9.72997E-001	9.99124E-005	0.00000E+000	9.72145E-005	5.99601E-002	9.73354E-001	3.57750E+000	9	...........
	68	0.92	9.77223E-001	1.02593E-004	0.00000E+000	1.00256E-004	5.99601E-002	9.77526E-001	3.57750E+000	9	...........
	69	0.933333	9.81322E-001	1.00990E-004	0.00000E+000	9.91034E-005	5.99601E-002	9.81623E-001	3.57750E+000	9	...........
	70	0.946667	9.85308E-001	1.00476E-004	0.00000E+000	9.89999E-005	5.99601E-002	9.85637E-001	3.57750E+000	9	...........
	71	0.96	9.89247E-001	1.00842E-004	0.00000E+000	9.97574E-005	5.99601E-002	9.89576E-001	3.57750E+000	9	...........
	72	0.97333	9.93078E-001	1.01948E-004	0.00000E+000	1.01243E-004	5.99601E-002	9.93397E-001	3.57750E+000	9	...........
	73	0.98667	9.96856E-001	1.01500E-004	0.00000E+000	1.01181E-004	5.99601E-002	9.97190E-001	3.57750E+000	9	...........
	74	0.99333	9.99638E-001	1.00352E-004	0.00000E+000	1.00316E-004	5.99601E-002	9.99970E-001	3.57750E+000	9	...........
STARTTIMEOFFSET	QUANT	1502.492	Start Time Offset (s)
