EXPLAIN
TAG	PWR800_CHARGE
TITLE	LABEL	PWR Cyclic Charge Discharge (Cell) - Charge Step	Test &Identifier
DATE	LABEL	12-7-2017	Date
TIME	LABEL	16:12:51	Time
NOTES	NOTES	2	&Notes...
	supercap test cell
	6M KOH
PSTAT	PSTAT	IFC5000-01520	Potentiostat
CAPACITY	QUANT	1.00000E-003	Capacity (A-hr)
CELLTYPE	SELECTOR	1	&Cell Type
WORKINGCONNECTION	SELECTOR	0	&Working Lead
MAXCHARGETIME	VARIABLEANDUNITS	1.00000E+002	s	1.00000E+002	second(s)	Max &Charge Time
CHARGECURRENT	QUANT	1.00000E-004	&Charge Current (A) 
VOLTAGEFINISH	TWOPARAM	F	1.00000E-003	3.60000E+003	&Voltage Finish	 I (A) < 	Max Time(s)
SAMPLETIME	QUANT	1.00000E-002	Sa&mple Period (s)
CHARGESTOPAT1	MULTIPARAM	4	1.00000E+000	Charge Stop At &1	Voltage > Limit	V
CHARGESTOPAT2	MULTIPARAM	0	0.00000E+000	Charge Stop At &2	None	N/A
AESBHCSELECTOR	TOGGLE	F	Save Both Half Cells
IRCOMP	TOGGLE	F	IR &Measure
EOC	QUANT	0	Open Circuit (V)
SEQUENCER	TOGGLE	TRUE	Run as Sequence
PSTATMODEL	IQUANT	53	Pstat Model
PSTATSECTION	LABEL	IFC5000-01520	Pstat Section
PSTATSERIALNO	LABEL	01520	Pstat Serial Number
CTRLMODE	IQUANT	0	Control Mode
ELECTROMETER	IQUANT	1	RE=0 or CS=1
IESTAB	IQUANT	0	I/E Stability
CASPEED	IQUANT	4	Control Amp Speed
CONVENTION	IQUANT	1	Current Convention
ICHRANGE	IQUANT	2	Ich Range
ICHRANGEMODE	TOGGLE	T	Ich Auto Range
ICHOFFSETENABLE	TOGGLE	F	Ich Offset Enable
ICHOFFSET	QUANT	0	Ich Offset (V)
ICHFILTER	IQUANT	1	Ich Filter
VCHRANGE	IQUANT	2	Vch Range
VCHRANGEMODE	TOGGLE	T	Vch Auto Range
VCHOFFSETENABLE	TOGGLE	F	Vch Offset Enable
VCHOFFSET	QUANT	0	Vch Offset (V)
VCHFILTER	IQUANT	1	Vch Filter
IERANGELOWERLIMIT	IQUANT	9	I/E Range Lower Limit
IERANGEMODE	TOGGLE	F	I/E AutoRange
IERANGE	IQUANT	9	I/E Range
ACHSELECT	IQUANT	1	Ach Select
ACHRANGE	IQUANT	2	Ach Range
ACHOFFSETENABLE	TOGGLE	F	Ach Offset Enable
ACHOFFSET	QUANT	0	Ach Offset (V)
ACHFILTER	IQUANT	1	Ach Filter
CABLEID	IQUANT	14	Cable ID
DCCALDATE	LABEL	5-7-2017	DC Calibration Date
ACCALDATE	LABEL	12/3/2015	AC Calibration Date
FRAMEWORKVERSION	QUANT	7.01	Framework Version
INSTRUMENTVERSION	LABEL	4.00	Instrument Version
CURVE	TABLE	82
	Pt	T	Vf	Im	Vu	Pwr	Sig	Ach	Temp	IERange	Over
	#	s	V	A	V	W	V	V	deg C	#	bits
	0	0.013333	2.61066E-001	1.00449E-004	0.00000E+000	2.62238E-005	5.99601E-002	2.61139E-001	3.57720E+000	9	...........
	1	0.026667	2.83691E-001	1.00351E-004	0.00000E+000	2.84687E-005	5.99601E-002	2.83747E-001	3.57720E+000	9	...........
	2	0.04	3.04708E-001	1.01272E-004	0.00000E+000	3.08584E-005	5.99601E-002	3.04766E-001	3.57720E+000	9	...........
	3	0.053333	3.24475E-001	1.00105E-004	0.00000E+000	3.24816E-005	5.99601E-002	3.24539E-001	3.57720E+000	9	...........
	4	0.066667	3.43222E-001	1.00248E-004	0.00000E+000	3.44073E-005	5.99601E-002	3.43287E-001	3.57720E+000	9	...........
	5	0.08	3.61088E-001	1.01740E-004	0.00000E+000	3.67371E-005	5.99601E-002	3.61158E-001	3.57720E+000	9	...........
	6	0.093333	3.78195E-001	1.00289E-004	0.00000E+000	3.79286E-005	5.99601E-002	3.78272E-001	3.57720E+000	9	...........
	7	0.106667	3.94651E-001	1.01276E-004	0.00000E+000	3.99688E-005	5.99601E-002	3.94728E-001	3.57720E+000	9	...........
	8	0.12	4.10513E-001	1.01225E-004	0.00000E+000	4.15543E-005	5.99601E-002	4.10603E-001	3.57720E+000	9	...........
	9	0.133333	4.25873E-001	1.01430E-004	0.00000E+000	4.31965E-005	5.99601E-002	4.25960E-001	3.57720E+000	9	...........
	10	0.146667	4.40763E-001	1.00953E-004	0.00000E+000	4.44965E-005	5.99601E-002	4.40858E-001	3.57720E+000	9	...........
	11	0.16	4.55242E-001	1.01031E-004	0.00000E+000	4.59937E-005	5.99601E-002	4.55340E-001	3.57720E+000	9	...........
	12	0.173333	4.69356E-001	1.01060E-004	0.00000E+000	4.74329E-005	5.99601E-002	4.69452E-001	3.57720E+000	9	...........
	13	0.186667	4.83128E-001	1.01216E-004	0.00000E+000	4.89001E-005	5.99601E-002	4.83227E-001	3.57720E+000	9	...........
	14	0.2	4.96579E-001	1.00879E-004	0.00000E+000	5.00945E-005	5.99601E-002	4.96688E-001	3.57720E+000	9	...........
	15	0.213333	5.09758E-001	1.00464E-004	0.00000E+000	5.12121E-005	5.99601E-002	5.09868E-001	3.57720E+000	9	...........
	16	0.226667	5.22661E-001	1.00339E-004	0.00000E+000	5.24430E-005	5.99601E-002	5.22775E-001	3.57720E+000	9	...........
	17	0.24	5.35166E-001	1.01635E-004	0.00000E+000	5.43914E-005	5.99601E-002	5.35311E-001	3.57720E+000	9	...........
	18	0.253333	5.47446E-001	1.00878E-004	0.00000E+000	5.52254E-005	5.99601E-002	5.47677E-001	3.57720E+000	9	...........
	19	0.266667	5.59622E-001	1.00051E-004	0.00000E+000	5.59907E-005	5.99601E-002	5.59898E-001	3.57720E+000	9	...........
	20	0.28	5.71645E-001	1.00618E-004	0.00000E+000	5.75177E-005	5.99601E-002	5.71897E-001	3.57720E+000	9	...........
	21	0.293333	5.83406E-001	1.01591E-004	0.00000E+000	5.92687E-005	5.99601E-002	5.83687E-001	3.57720E+000	9	...........
	22	0.306667	5.95035E-001	1.00979E-004	0.00000E+000	6.00862E-005	5.99601E-002	5.95295E-001	3.57720E+000	9	...........
	23	0.32	6.06421E-001	1.01025E-004	0.00000E+000	6.12637E-005	5.99601E-002	6.06703E-001	3.57720E+000	9	...........
	24	0.333333	6.17707E-001	1.00660E-004	0.00000E+000	6.21787E-005	5.99601E-002	6.17954E-001	3.57720E+000	9	...........
	25	0.346667	6.28746E-001	1.00913E-004	0.00000E+000	6.34484E-005	5.99601E-002	6.28997E-001	3.57720E+000	9	...........
	26	0.36	6.39608E-001	1.00637E-004	0.00000E+000	6.43679E-005	5.99601E-002	6.39876E-001	3.57720E+000	9	...........
	27	0.373333	6.50344E-001	1.00856E-004	0.00000E+000	6.55914E-005	5.99601E-002	6.50611E-001	3.57720E+000	9	...........
	28	0.386667	6.60894E-001	1.00782E-004	0.00000E+000	6.66065E-005	5.99601E-002	6.61167E-001	3.57720E+000	9	...........
	29	0.4	6.71286E-001	1.00721E-004	0.00000E+000	6.76125E-005	5.99601E-002	6.71573E-001	3.57720E+000	9	...........
	30	0.413333	6.81526E-001	1.00906E-004	0.00000E+000	6.87703E-005	5.99601E-002	6.81792E-001	3.57720E+000	9	...........
	31	0.426667	6.91586E-001	1.01456E-004	0.00000E+000	7.01659E-005	5.99601E-002	6.91858E-001	3.57720E+000	9	...........
	32	0.44	7.01506E-001	1.01364E-004	0.00000E+000	7.11073E-005	5.99601E-002	7.01778E-001	3.57720E+000	9	...........
	33	0.453333	7.11254E-001	1.00728E-004	0.00000E+000	7.16434E-005	5.99601E-002	7.11520E-001	3.57720E+000	9	...........
	34	0.466667	7.20878E-001	1.01030E-004	0.00000E+000	7.28305E-005	5.99601E-002	7.21128E-001	3.57720E+000	9	...........
	35	0.48	7.30323E-001	1.00729E-004	0.00000E+000	7.35648E-005	5.99601E-002	7.30554E-001	3.57720E+000	9	...........
	36	0.493333	7.39577E-001	1.01033E-004	0.00000E+000	7.47221E-005	5.99601E-002	7.39819E-001	3.57720E+000	9	...........
	37	0.506667	7.48732E-001	1.00523E-004	0.00000E+000	7.52647E-005	5.99601E-002	7.48958E-001	3.57720E+000	9	...........
	38	0.52	7.57689E-001	9.98759E-005	0.00000E+000	7.56749E-005	5.99601E-002	7.57901E-001	3.57720E+000	9	...........
	39	0.533333	7.66481E-001	1.01018E-004	0.00000E+000	7.74283E-005	5.99601E-002	7.66744E-001	3.57720E+000	9	...........
	40	0.546667	7.75115E-001	1.01094E-004	0.00000E+000	7.83594E-005	5.99601E-002	7.75371E-001	3.57720E+000	9	...........
	41	0.56	7.83592E-001	1.00696E-004	0.00000E+000	7.89045E-005	5.99601E-002	7.83851E-001	3.57720E+000	9	...........
	42	0.573333	7.91920E-001	1.01598E-004	0.00000E+000	8.04577E-005	5.99601E-002	7.92172E-001	3.57720E+000	9	...........
	43	0.586667	8.00083E-001	1.00568E-004	0.00000E+000	8.04626E-005	5.99601E-002	8.00341E-001	3.57720E+000	9	...........
	44	0.6	8.08046E-001	1.00518E-004	0.00000E+000	8.12230E-005	5.99601E-002	8.08323E-001	3.57720E+000	9	...........
	45	0.613333	8.15877E-001	1.00690E-004	0.00000E+000	8.21503E-005	5.99601E-002	8.16180E-001	3.57720E+000	9	...........
	46	0.626667	8.23536E-001	1.01280E-004	0.00000E+000	8.34080E-005	5.99601E-002	8.23836E-001	3.57720E+000	9	...........
	47	0.64	8.31020E-001	1.00966E-004	0.00000E+000	8.39045E-005	5.99601E-002	8.31327E-001	3.57720E+000	9	...........
	48	0.653333	8.38344E-001	1.02109E-004	0.00000E+000	8.56022E-005	5.99601E-002	8.38651E-001	3.57720E+000	9	...........
	49	0.666667	8.45523E-001	1.01156E-004	0.00000E+000	8.55300E-005	5.99601E-002	8.45826E-001	3.57720E+000	9	...........
	50	0.68	8.52521E-001	1.00656E-004	0.00000E+000	8.58117E-005	5.99601E-002	8.52828E-001	3.57720E+000	9	...........
	51	0.693333	8.59347E-001	1.01189E-004	0.00000E+000	8.69562E-005	5.99601E-002	8.59686E-001	3.57720E+000	9	...........
	52	0.706667	8.66018E-001	9.99364E-005	0.00000E+000	8.65467E-005	5.99601E-002	8.66357E-001	3.57720E+000	9	...........
	53	0.72	8.72575E-001	1.00879E-004	0.00000E+000	8.80248E-005	5.99601E-002	8.72923E-001	3.57720E+000	9	...........
	54	0.733333	8.78920E-001	1.00844E-004	0.00000E+000	8.86337E-005	5.99601E-002	8.79246E-001	3.57720E+000	9	...........
	55	0.746667	8.85111E-001	1.01032E-004	0.00000E+000	8.94249E-005	5.99601E-002	8.85466E-001	3.57790E+000	9	...........
	56	0.76	8.91150E-001	1.00667E-004	0.00000E+000	8.97091E-005	5.99601E-002	8.91488E-001	3.57860E+000	9	...........
	57	0.773333	8.97014E-001	1.01588E-004	0.00000E+000	9.11257E-005	5.99601E-002	8.97377E-001	3.57860E+000	9	...........
	58	0.786667	9.02765E-001	1.00639E-004	0.00000E+000	9.08530E-005	5.99601E-002	9.03094E-001	3.57860E+000	9	...........
	59	0.8	9.08326E-001	1.00721E-004	0.00000E+000	9.14874E-005	5.99601E-002	9.08680E-001	3.57860E+000	9	...........
	60	0.813333	9.13759E-001	1.00580E-004	0.00000E+000	9.19061E-005	5.99601E-002	9.14097E-001	3.57860E+000	9	...........
	61	0.826667	9.19034E-001	1.01207E-004	0.00000E+000	9.30131E-005	5.99601E-002	9.19402E-001	3.57860E+000	9	...........
	62	0.84	9.24222E-001	1.00872E-004	0.00000E+000	9.32281E-005	5.99601E-002	9.24535E-001	3.57860E+000	9	...........
	63	0.853333	9.29216E-001	1.01351E-004	0.00000E+000	9.41772E-005	5.99601E-002	9.29513E-001	3.57860E+000	9	...........
	64	0.866667	9.34078E-001	1.01455E-004	0.00000E+000	9.47673E-005	5.99601E-002	9.34383E-001	3.57860E+000	9	...........
	65	0.88	9.38787E-001	9.93040E-005	0.00000E+000	9.32253E-005	5.99601E-002	9.39124E-001	3.57860E+000	9	...........
	66	0.893333	9.43400E-001	1.00805E-004	0.00000E+000	9.50997E-005	5.99601E-002	9.43711E-001	3.57860E+000	9	...........
	67	0.906667	9.47926E-001	1.01280E-004	0.00000E+000	9.60063E-005	5.99601E-002	9.48218E-001	3.57860E+000	9	...........
	68	0.92	9.52283E-001	1.01369E-004	0.00000E+000	9.65320E-005	5.99601E-002	9.52608E-001	3.57860E+000	9	...........
	69	0.933333	9.56536E-001	1.00749E-004	0.00000E+000	9.63701E-005	5.99601E-002	9.56841E-001	3.57860E+000	9	...........
	70	0.946667	9.60686E-001	1.01572E-004	0.00000E+000	9.75790E-005	5.99601E-002	9.61024E-001	3.57860E+000	9	...........
	71	0.96	9.64728E-001	1.00502E-004	0.00000E+000	9.69572E-005	5.99601E-002	9.65048E-001	3.57860E+000	9	...........
	72	0.97333	9.68687E-001	1.00687E-004	0.00000E+000	9.75337E-005	5.99601E-002	9.69006E-001	3.57860E+000	9	...........
	73	0.98667	9.72552E-001	1.01341E-004	0.00000E+000	9.85592E-005	5.99601E-002	9.72869E-001	3.57860E+000	9	...........
	74	1	9.76336E-001	1.01267E-004	0.00000E+000	9.88705E-005	5.99601E-002	9.76651E-001	3.57860E+000	9	...........
	75	1.01333	9.80016E-001	1.01083E-004	0.00000E+000	9.90635E-005	5.99601E-002	9.80321E-001	3.57860E+000	9	...........
	76	1.02667	9.83561E-001	1.00026E-004	0.00000E+000	9.83817E-005	5.99601E-002	9.83894E-001	3.57860E+000	9	...........
	77	1.04	9.87046E-001	1.01250E-004	0.00000E+000	9.99386E-005	5.99601E-002	9.87422E-001	3.57860E+000	9	...........
	78	1.05333	9.90469E-001	1.01131E-004	0.00000E+000	1.00168E-004	5.99601E-002	9.90799E-001	3.57860E+000	9	...........
	79	1.06667	9.93772E-001	1.00679E-004	0.00000E+000	1.00052E-004	5.99601E-002	9.94105E-001	3.57860E+000	9	...........
	80	1.08	9.97001E-001	1.00937E-004	0.00000E+000	1.00634E-004	5.99601E-002	9.97340E-001	3.57860E+000	9	...........
	81	1.08833	9.99548E-001	9.96744E-005	0.00000E+000	9.96294E-005	5.99601E-002	9.99927E-001	3.57860E+000	9	...........
STARTTIMEOFFSET	QUANT	118.8617	Start Time Offset (s)
