EXPLAIN
TAG	PWR800_CHARGE
TITLE	LABEL	PWR Cyclic Charge Discharge (Cell) - Charge Step	Test &Identifier
DATE	LABEL	12-7-2017	Date
TIME	LABEL	16:29:31	Time
NOTES	NOTES	2	&Notes...
	supercap test cell
	6M KOH
PSTAT	PSTAT	IFC5000-01520	Potentiostat
CAPACITY	QUANT	1.00000E-003	Capacity (A-hr)
CELLTYPE	SELECTOR	1	&Cell Type
WORKINGCONNECTION	SELECTOR	0	&Working Lead
MAXCHARGETIME	VARIABLEANDUNITS	1.00000E+002	s	1.00000E+002	second(s)	Max &Charge Time
CHARGECURRENT	QUANT	1.00000E-004	&Charge Current (A) 
VOLTAGEFINISH	TWOPARAM	F	1.00000E-003	3.60000E+003	&Voltage Finish	 I (A) < 	Max Time(s)
SAMPLETIME	QUANT	1.00000E-002	Sa&mple Period (s)
CHARGESTOPAT1	MULTIPARAM	4	1.00000E+000	Charge Stop At &1	Voltage > Limit	V
CHARGESTOPAT2	MULTIPARAM	0	0.00000E+000	Charge Stop At &2	None	N/A
AESBHCSELECTOR	TOGGLE	F	Save Both Half Cells
IRCOMP	TOGGLE	F	IR &Measure
EOC	QUANT	0	Open Circuit (V)
SEQUENCER	TOGGLE	TRUE	Run as Sequence
PSTATMODEL	IQUANT	53	Pstat Model
PSTATSECTION	LABEL	IFC5000-01520	Pstat Section
PSTATSERIALNO	LABEL	01520	Pstat Serial Number
CTRLMODE	IQUANT	0	Control Mode
ELECTROMETER	IQUANT	1	RE=0 or CS=1
IESTAB	IQUANT	0	I/E Stability
CASPEED	IQUANT	4	Control Amp Speed
CONVENTION	IQUANT	1	Current Convention
ICHRANGE	IQUANT	2	Ich Range
ICHRANGEMODE	TOGGLE	T	Ich Auto Range
ICHOFFSETENABLE	TOGGLE	F	Ich Offset Enable
ICHOFFSET	QUANT	0	Ich Offset (V)
ICHFILTER	IQUANT	1	Ich Filter
VCHRANGE	IQUANT	2	Vch Range
VCHRANGEMODE	TOGGLE	T	Vch Auto Range
VCHOFFSETENABLE	TOGGLE	F	Vch Offset Enable
VCHOFFSET	QUANT	0	Vch Offset (V)
VCHFILTER	IQUANT	1	Vch Filter
IERANGELOWERLIMIT	IQUANT	9	I/E Range Lower Limit
IERANGEMODE	TOGGLE	F	I/E AutoRange
IERANGE	IQUANT	9	I/E Range
ACHSELECT	IQUANT	1	Ach Select
ACHRANGE	IQUANT	2	Ach Range
ACHOFFSETENABLE	TOGGLE	F	Ach Offset Enable
ACHOFFSET	QUANT	0	Ach Offset (V)
ACHFILTER	IQUANT	1	Ach Filter
CABLEID	IQUANT	14	Cable ID
DCCALDATE	LABEL	5-7-2017	DC Calibration Date
ACCALDATE	LABEL	12/3/2015	AC Calibration Date
FRAMEWORKVERSION	QUANT	7.01	Framework Version
INSTRUMENTVERSION	LABEL	4.00	Instrument Version
CURVE	TABLE	77
	Pt	T	Vf	Im	Vu	Pwr	Sig	Ach	Temp	IERange	Over
	#	s	V	A	V	W	V	V	deg C	#	bits
	0	0.013333	2.57539E-001	1.01260E-004	0.00000E+000	2.60783E-005	5.99601E-002	2.57613E-001	3.57810E+000	9	...........
	1	0.026667	2.80451E-001	1.01055E-004	0.00000E+000	2.83411E-005	5.99601E-002	2.80519E-001	3.57810E+000	9	...........
	2	0.04	3.02029E-001	1.00781E-004	0.00000E+000	3.04389E-005	5.99601E-002	3.02090E-001	3.57810E+000	9	...........
	3	0.053333	3.22625E-001	1.02021E-004	0.00000E+000	3.29146E-005	5.99601E-002	3.22695E-001	3.57810E+000	9	...........
	4	0.066667	3.42442E-001	1.01031E-004	0.00000E+000	3.45974E-005	5.99601E-002	3.42517E-001	3.57810E+000	9	...........
	5	0.08	3.61609E-001	1.01336E-004	0.00000E+000	3.66439E-005	5.99601E-002	3.61692E-001	3.57810E+000	9	...........
	6	0.093333	3.80219E-001	1.00934E-004	0.00000E+000	3.83773E-005	5.99601E-002	3.80306E-001	3.57810E+000	9	...........
	7	0.106667	3.98328E-001	1.01551E-004	0.00000E+000	4.04507E-005	5.99601E-002	3.98416E-001	3.57810E+000	9	...........
	8	0.12	4.15982E-001	1.01738E-004	0.00000E+000	4.23210E-005	5.99601E-002	4.16074E-001	3.57810E+000	9	...........
	9	0.133333	4.33217E-001	1.00613E-004	0.00000E+000	4.35871E-005	5.99601E-002	4.33321E-001	3.57810E+000	9	...........
	10	0.146667	4.50063E-001	1.00961E-004	0.00000E+000	4.54386E-005	5.99601E-002	4.50161E-001	3.57810E+000	9	...........
	11	0.16	4.66527E-001	1.00286E-004	0.00000E+000	4.67863E-005	5.99601E-002	4.66626E-001	3.57810E+000	9	...........
	12	0.173333	4.82631E-001	1.01500E-004	0.00000E+000	4.89872E-005	5.99601E-002	4.82738E-001	3.57810E+000	9	...........
	13	0.186667	4.98385E-001	1.01195E-004	0.00000E+000	5.04341E-005	5.99601E-002	4.98502E-001	3.57810E+000	9	...........
	14	0.2	5.13809E-001	1.00572E-004	0.00000E+000	5.16747E-005	5.99601E-002	5.13926E-001	3.57810E+000	9	...........
	15	0.213333	5.28864E-001	1.01270E-004	0.00000E+000	5.35580E-005	5.99601E-002	5.29006E-001	3.57810E+000	9	...........
	16	0.226667	5.43410E-001	1.00830E-004	0.00000E+000	5.47922E-005	5.99601E-002	5.43636E-001	3.57810E+000	9	...........
	17	0.24	5.57856E-001	1.02295E-004	0.00000E+000	5.70660E-005	5.99601E-002	5.58122E-001	3.57810E+000	9	...........
	18	0.253333	5.72043E-001	1.00340E-004	0.00000E+000	5.73985E-005	5.99601E-002	5.72288E-001	3.57810E+000	9	...........
	19	0.266667	5.85909E-001	1.01127E-004	0.00000E+000	5.92514E-005	5.99601E-002	5.86175E-001	3.57810E+000	9	...........
	20	0.28	5.99481E-001	1.01504E-004	0.00000E+000	6.08499E-005	5.99601E-002	5.99748E-001	3.57810E+000	9	...........
	21	0.293333	6.12780E-001	1.01833E-004	0.00000E+000	6.24010E-005	5.99601E-002	6.13058E-001	3.57810E+000	9	...........
	22	0.306667	6.25810E-001	1.01068E-004	0.00000E+000	6.32493E-005	5.99601E-002	6.26061E-001	3.57810E+000	9	...........
	23	0.32	6.38520E-001	1.01188E-004	0.00000E+000	6.46104E-005	5.99601E-002	6.38772E-001	3.57810E+000	9	...........
	24	0.333333	6.50956E-001	1.03036E-004	0.00000E+000	6.70719E-005	5.99601E-002	6.51227E-001	3.57810E+000	9	...........
	25	0.346667	6.63122E-001	1.01300E-004	0.00000E+000	6.71743E-005	5.99601E-002	6.63409E-001	3.57810E+000	9	...........
	26	0.36	6.74997E-001	1.00876E-004	0.00000E+000	6.80911E-005	5.99601E-002	6.75279E-001	3.57810E+000	9	...........
	27	0.373333	6.86610E-001	1.00934E-004	0.00000E+000	6.93027E-005	5.99601E-002	6.86874E-001	3.57810E+000	9	...........
	28	0.386667	6.97962E-001	1.01448E-004	0.00000E+000	7.08069E-005	5.99601E-002	6.98229E-001	3.57810E+000	9	...........
	29	0.4	7.09012E-001	1.00510E-004	0.00000E+000	7.12631E-005	5.99601E-002	7.09315E-001	3.57810E+000	9	...........
	30	0.413333	7.19856E-001	1.00568E-004	0.00000E+000	7.23943E-005	5.99601E-002	7.20125E-001	3.57810E+000	9	...........
	31	0.426667	7.30405E-001	1.00981E-004	0.00000E+000	7.37573E-005	5.99601E-002	7.30679E-001	3.57810E+000	9	...........
	32	0.44	7.40675E-001	1.01316E-004	0.00000E+000	7.50421E-005	5.99601E-002	7.40958E-001	3.57810E+000	9	...........
	33	0.453333	7.50705E-001	1.00521E-004	0.00000E+000	7.54615E-005	5.99601E-002	7.50979E-001	3.57810E+000	9	...........
	34	0.466667	7.60453E-001	1.00769E-004	0.00000E+000	7.66299E-005	5.99601E-002	7.60730E-001	3.57810E+000	9	...........
	35	0.48	7.69948E-001	1.00628E-004	0.00000E+000	7.74785E-005	5.99601E-002	7.70250E-001	3.57810E+000	9	...........
	36	0.493333	7.79206E-001	1.01287E-004	0.00000E+000	7.89231E-005	5.99601E-002	7.79512E-001	3.57810E+000	9	...........
	37	0.506667	7.88193E-001	1.00799E-004	0.00000E+000	7.94491E-005	5.99601E-002	7.88489E-001	3.57810E+000	9	...........
	38	0.52	7.96993E-001	1.01061E-004	0.00000E+000	8.05446E-005	5.99601E-002	7.97280E-001	3.57810E+000	9	...........
	39	0.533333	8.05473E-001	1.01871E-004	0.00000E+000	8.20544E-005	5.99601E-002	8.05783E-001	3.57810E+000	9	...........
	40	0.546667	8.13738E-001	1.00449E-004	0.00000E+000	8.17392E-005	5.99601E-002	8.14061E-001	3.57810E+000	9	...........
	41	0.56	8.21781E-001	1.01387E-004	0.00000E+000	8.33177E-005	5.99601E-002	8.22115E-001	3.57810E+000	9	...........
	42	0.573333	8.29563E-001	1.01011E-004	0.00000E+000	8.37946E-005	5.99601E-002	8.29890E-001	3.57810E+000	9	...........
	43	0.586667	8.37101E-001	1.00599E-004	0.00000E+000	8.42115E-005	5.99601E-002	8.37442E-001	3.57810E+000	9	...........
	44	0.6	8.44444E-001	1.01514E-004	0.00000E+000	8.57227E-005	5.99601E-002	8.44787E-001	3.57810E+000	9	...........
	45	0.613333	8.51557E-001	1.00101E-004	0.00000E+000	8.52417E-005	5.99601E-002	8.51877E-001	3.57810E+000	9	...........
	46	0.626667	8.58426E-001	1.00820E-004	0.00000E+000	8.65464E-005	5.99601E-002	8.58767E-001	3.57870E+000	9	...........
	47	0.64	8.65102E-001	1.02231E-004	0.00000E+000	8.84399E-005	5.99601E-002	8.65444E-001	3.57870E+000	9	...........
	48	0.653333	8.71599E-001	1.01366E-004	0.00000E+000	8.83503E-005	5.99601E-002	8.71951E-001	3.57870E+000	9	...........
	49	0.666667	8.77871E-001	1.01982E-004	0.00000E+000	8.95267E-005	5.99601E-002	8.78192E-001	3.57870E+000	9	...........
	50	0.68	8.83944E-001	1.00814E-004	0.00000E+000	8.91137E-005	5.99601E-002	8.84268E-001	3.57870E+000	9	...........
	51	0.693333	8.89837E-001	1.00557E-004	0.00000E+000	8.94796E-005	5.99601E-002	8.90174E-001	3.57870E+000	9	...........
	52	0.706667	8.95589E-001	1.01416E-004	0.00000E+000	9.08269E-005	5.99601E-002	8.95914E-001	3.57870E+000	9	...........
	53	0.72	9.01158E-001	1.00720E-004	0.00000E+000	9.07645E-005	5.99601E-002	9.01482E-001	3.57870E+000	9	...........
	54	0.733333	9.06585E-001	1.00037E-004	0.00000E+000	9.06925E-005	5.99601E-002	9.06925E-001	3.57870E+000	9	...........
	55	0.746667	9.11893E-001	1.01206E-004	0.00000E+000	9.22895E-005	5.99601E-002	9.12178E-001	3.57870E+000	9	...........
	56	0.76	9.17037E-001	1.00285E-004	0.00000E+000	9.19654E-005	5.99601E-002	9.17343E-001	3.57870E+000	9	...........
	57	0.773333	9.22100E-001	1.01132E-004	0.00000E+000	9.32542E-005	5.99601E-002	9.22387E-001	3.57870E+000	9	...........
	58	0.786667	9.27040E-001	1.01717E-004	0.00000E+000	9.42957E-005	5.99601E-002	9.27353E-001	3.57870E+000	9	...........
	59	0.8	9.31867E-001	1.00729E-004	0.00000E+000	9.38663E-005	5.99601E-002	9.32179E-001	3.57870E+000	9	...........
	60	0.813333	9.36600E-001	1.01344E-004	0.00000E+000	9.49188E-005	5.99601E-002	9.36928E-001	3.57870E+000	9	...........
	61	0.826667	9.41243E-001	1.01245E-004	0.00000E+000	9.52961E-005	5.99601E-002	9.41576E-001	3.57870E+000	9	...........
	62	0.84	9.45823E-001	1.02694E-004	0.00000E+000	9.71306E-005	5.99601E-002	9.46165E-001	3.57870E+000	9	...........
	63	0.853333	9.50324E-001	1.01019E-004	0.00000E+000	9.60007E-005	5.99601E-002	9.50675E-001	3.57870E+000	9	...........
	64	0.866667	9.54732E-001	1.01744E-004	0.00000E+000	9.71383E-005	5.99601E-002	9.55085E-001	3.57870E+000	9	...........
	65	0.88	9.59035E-001	1.01237E-004	0.00000E+000	9.70895E-005	5.99601E-002	9.59418E-001	3.57870E+000	9	...........
	66	0.893333	9.63277E-001	1.00508E-004	0.00000E+000	9.68174E-005	5.99601E-002	9.63688E-001	3.57870E+000	9	...........
	67	0.906667	9.67454E-001	1.01716E-004	0.00000E+000	9.84055E-005	5.99601E-002	9.67814E-001	3.57870E+000	9	...........
	68	0.92	9.71539E-001	1.00420E-004	0.00000E+000	9.75618E-005	5.99601E-002	9.71945E-001	3.57870E+000	9	...........
	69	0.933333	9.75621E-001	1.00634E-004	0.00000E+000	9.81811E-005	5.99601E-002	9.75961E-001	3.57870E+000	9	...........
	70	0.946667	9.79552E-001	1.01600E-004	0.00000E+000	9.95228E-005	5.99601E-002	9.79895E-001	3.57870E+000	9	...........
	71	0.96	9.83391E-001	1.00798E-004	0.00000E+000	9.91239E-005	5.99601E-002	9.83745E-001	3.57870E+000	9	...........
	72	0.97333	9.87180E-001	1.01417E-004	0.00000E+000	1.00117E-004	5.99601E-002	9.87525E-001	3.57870E+000	9	...........
	73	0.98667	9.90863E-001	1.00617E-004	0.00000E+000	9.96973E-005	5.99601E-002	9.91212E-001	3.57870E+000	9	...........
	74	1	9.94480E-001	1.01307E-004	0.00000E+000	1.00748E-004	5.99601E-002	9.94829E-001	3.57870E+000	9	...........
	75	1.01333	9.98009E-001	1.00083E-004	0.00000E+000	9.98840E-005	5.99601E-002	9.98370E-001	3.57870E+000	9	...........
	76	1.01667	1.00016E+000	1.04607E-004	0.00000E+000	1.04624E-004	5.99601E-002	1.00055E+000	3.57870E+000	9	...........
STARTTIMEOFFSET	QUANT	832.5454	Start Time Offset (s)
