EXPLAIN
TAG	PWR800_CHARGE
TITLE	LABEL	PWR Cyclic Charge Discharge (Cell) - Charge Step	Test &Identifier
DATE	LABEL	12-7-2017	Date
TIME	LABEL	16:51:39	Time
NOTES	NOTES	2	&Notes...
	supercap test cell
	6M KOH
PSTAT	PSTAT	IFC5000-01520	Potentiostat
CAPACITY	QUANT	1.00000E-003	Capacity (A-hr)
CELLTYPE	SELECTOR	1	&Cell Type
WORKINGCONNECTION	SELECTOR	0	&Working Lead
MAXCHARGETIME	VARIABLEANDUNITS	1.00000E+002	s	1.00000E+002	second(s)	Max &Charge Time
CHARGECURRENT	QUANT	1.00000E-004	&Charge Current (A) 
VOLTAGEFINISH	TWOPARAM	F	1.00000E-003	3.60000E+003	&Voltage Finish	 I (A) < 	Max Time(s)
SAMPLETIME	QUANT	1.00000E-002	Sa&mple Period (s)
CHARGESTOPAT1	MULTIPARAM	4	1.00000E+000	Charge Stop At &1	Voltage > Limit	V
CHARGESTOPAT2	MULTIPARAM	0	0.00000E+000	Charge Stop At &2	None	N/A
AESBHCSELECTOR	TOGGLE	F	Save Both Half Cells
IRCOMP	TOGGLE	F	IR &Measure
EOC	QUANT	0	Open Circuit (V)
SEQUENCER	TOGGLE	TRUE	Run as Sequence
PSTATMODEL	IQUANT	53	Pstat Model
PSTATSECTION	LABEL	IFC5000-01520	Pstat Section
PSTATSERIALNO	LABEL	01520	Pstat Serial Number
CTRLMODE	IQUANT	0	Control Mode
ELECTROMETER	IQUANT	1	RE=0 or CS=1
IESTAB	IQUANT	0	I/E Stability
CASPEED	IQUANT	4	Control Amp Speed
CONVENTION	IQUANT	1	Current Convention
ICHRANGE	IQUANT	2	Ich Range
ICHRANGEMODE	TOGGLE	T	Ich Auto Range
ICHOFFSETENABLE	TOGGLE	F	Ich Offset Enable
ICHOFFSET	QUANT	0	Ich Offset (V)
ICHFILTER	IQUANT	1	Ich Filter
VCHRANGE	IQUANT	2	Vch Range
VCHRANGEMODE	TOGGLE	T	Vch Auto Range
VCHOFFSETENABLE	TOGGLE	F	Vch Offset Enable
VCHOFFSET	QUANT	0	Vch Offset (V)
VCHFILTER	IQUANT	1	Vch Filter
IERANGELOWERLIMIT	IQUANT	9	I/E Range Lower Limit
IERANGEMODE	TOGGLE	F	I/E AutoRange
IERANGE	IQUANT	9	I/E Range
ACHSELECT	IQUANT	1	Ach Select
ACHRANGE	IQUANT	2	Ach Range
ACHOFFSETENABLE	TOGGLE	F	Ach Offset Enable
ACHOFFSET	QUANT	0	Ach Offset (V)
ACHFILTER	IQUANT	1	Ach Filter
CABLEID	IQUANT	14	Cable ID
DCCALDATE	LABEL	5-7-2017	DC Calibration Date
ACCALDATE	LABEL	12/3/2015	AC Calibration Date
FRAMEWORKVERSION	QUANT	7.01	Framework Version
INSTRUMENTVERSION	LABEL	4.00	Instrument Version
CURVE	TABLE	74
	Pt	T	Vf	Im	Vu	Pwr	Sig	Ach	Temp	IERange	Over
	#	s	V	A	V	W	V	V	deg C	#	bits
	0	0.013333	2.58288E-001	1.01041E-004	0.00000E+000	2.60976E-005	5.99601E-002	2.58359E-001	3.57650E+000	9	...........
	1	0.026667	2.81405E-001	1.00006E-004	0.00000E+000	2.81423E-005	5.99601E-002	2.81466E-001	3.57650E+000	9	...........
	2	0.04	3.03277E-001	1.00876E-004	0.00000E+000	3.05935E-005	5.99601E-002	3.03342E-001	3.57650E+000	9	...........
	3	0.053333	3.24259E-001	1.00725E-004	0.00000E+000	3.26610E-005	5.99601E-002	3.24327E-001	3.57650E+000	9	...........
	4	0.066667	3.44532E-001	1.01115E-004	0.00000E+000	3.48373E-005	5.99601E-002	3.44604E-001	3.57650E+000	9	...........
	5	0.08	3.64205E-001	9.99989E-005	0.00000E+000	3.64201E-005	5.99601E-002	3.64276E-001	3.57650E+000	9	...........
	6	0.093333	3.83359E-001	1.01376E-004	0.00000E+000	3.88635E-005	5.99601E-002	3.83438E-001	3.57650E+000	9	...........
	7	0.106667	4.02040E-001	1.00877E-004	0.00000E+000	4.05567E-005	5.99601E-002	4.02113E-001	3.57650E+000	9	...........
	8	0.12	4.20279E-001	1.01100E-004	0.00000E+000	4.24903E-005	5.99601E-002	4.20362E-001	3.57650E+000	9	...........
	9	0.133333	4.38109E-001	1.00658E-004	0.00000E+000	4.40993E-005	5.99601E-002	4.38200E-001	3.57650E+000	9	...........
	10	0.146667	4.55552E-001	1.01181E-004	0.00000E+000	4.60934E-005	5.99601E-002	4.55646E-001	3.57650E+000	9	...........
	11	0.16	4.72609E-001	1.01147E-004	0.00000E+000	4.78030E-005	5.99601E-002	4.72706E-001	3.57650E+000	9	...........
	12	0.173333	4.89297E-001	1.01071E-004	0.00000E+000	4.94537E-005	5.99601E-002	4.89399E-001	3.57650E+000	9	...........
	13	0.186667	5.05618E-001	1.00988E-004	0.00000E+000	5.10612E-005	5.99601E-002	5.05729E-001	3.57650E+000	9	...........
	14	0.2	5.21592E-001	1.00911E-004	0.00000E+000	5.26341E-005	5.99601E-002	5.21698E-001	3.57650E+000	9	...........
	15	0.213333	5.37033E-001	1.01361E-004	0.00000E+000	5.44340E-005	5.99601E-002	5.37207E-001	3.57650E+000	9	...........
	16	0.226667	5.52206E-001	1.00257E-004	0.00000E+000	5.53626E-005	5.99601E-002	5.52424E-001	3.57650E+000	9	...........
	17	0.24	5.67145E-001	1.00602E-004	0.00000E+000	5.70560E-005	5.99601E-002	5.67361E-001	3.57650E+000	9	...........
	18	0.253333	5.81704E-001	1.00246E-004	0.00000E+000	5.83134E-005	5.99601E-002	5.81951E-001	3.57650E+000	9	...........
	19	0.266667	5.95959E-001	1.00246E-004	0.00000E+000	5.97424E-005	5.99601E-002	5.96213E-001	3.57650E+000	9	...........
	20	0.28	6.09872E-001	1.01863E-004	0.00000E+000	6.21233E-005	5.99601E-002	6.10128E-001	3.57650E+000	9	...........
	21	0.293333	6.23494E-001	1.01734E-004	0.00000E+000	6.34303E-005	5.99601E-002	6.23731E-001	3.57650E+000	9	...........
	22	0.306667	6.36737E-001	1.00395E-004	0.00000E+000	6.39251E-005	5.99601E-002	6.36978E-001	3.57650E+000	9	...........
	23	0.32	6.49678E-001	1.02299E-004	0.00000E+000	6.64616E-005	5.99601E-002	6.49917E-001	3.57650E+000	9	...........
	24	0.333333	6.62292E-001	1.01594E-004	0.00000E+000	6.72849E-005	5.99601E-002	6.62527E-001	3.57650E+000	9	...........
	25	0.346667	6.74582E-001	1.01192E-004	0.00000E+000	6.82622E-005	5.99601E-002	6.74829E-001	3.57650E+000	9	...........
	26	0.36	6.86530E-001	1.00460E-004	0.00000E+000	6.89691E-005	5.99601E-002	6.86790E-001	3.57650E+000	9	...........
	27	0.373333	6.98199E-001	1.00579E-004	0.00000E+000	7.02244E-005	5.99601E-002	6.98473E-001	3.57650E+000	9	...........
	28	0.386667	7.09546E-001	1.01052E-004	0.00000E+000	7.17012E-005	5.99601E-002	7.09806E-001	3.57650E+000	9	...........
	29	0.4	7.20617E-001	1.00580E-004	0.00000E+000	7.24798E-005	5.99601E-002	7.20874E-001	3.57650E+000	9	...........
	30	0.413333	7.31374E-001	1.00550E-004	0.00000E+000	7.35397E-005	5.99601E-002	7.31633E-001	3.57650E+000	9	...........
	31	0.426667	7.41822E-001	1.02055E-004	0.00000E+000	7.57063E-005	5.99601E-002	7.42100E-001	3.57650E+000	9	...........
	32	0.44	7.52007E-001	1.00450E-004	0.00000E+000	7.55391E-005	5.99601E-002	7.52261E-001	3.57650E+000	9	...........
	33	0.453333	7.61871E-001	1.01319E-004	0.00000E+000	7.71919E-005	5.99601E-002	7.62159E-001	3.57650E+000	9	...........
	34	0.466667	7.71489E-001	1.01585E-004	0.00000E+000	7.83714E-005	5.99601E-002	7.71769E-001	3.57650E+000	9	...........
	35	0.48	7.80814E-001	1.01514E-004	0.00000E+000	7.92634E-005	5.99601E-002	7.81085E-001	3.57650E+000	9	...........
	36	0.493333	7.89817E-001	1.01170E-004	0.00000E+000	7.99058E-005	5.99601E-002	7.90129E-001	3.57650E+000	9	...........
	37	0.506667	7.98629E-001	1.02256E-004	0.00000E+000	8.16643E-005	5.99601E-002	7.98916E-001	3.57650E+000	9	...........
	38	0.52	8.07123E-001	1.01789E-004	0.00000E+000	8.21562E-005	5.99601E-002	8.07422E-001	3.57650E+000	9	...........
	39	0.533333	8.15358E-001	1.00372E-004	0.00000E+000	8.18390E-005	5.99601E-002	8.15668E-001	3.57650E+000	9	...........
	40	0.546667	8.23374E-001	1.00334E-004	0.00000E+000	8.26128E-005	5.99601E-002	8.23667E-001	3.57650E+000	9	...........
	41	0.56	8.31109E-001	1.02080E-004	0.00000E+000	8.48392E-005	5.99601E-002	8.31383E-001	3.57650E+000	9	...........
	42	0.573333	8.38569E-001	1.00908E-004	0.00000E+000	8.46187E-005	5.99601E-002	8.38885E-001	3.57650E+000	9	...........
	43	0.586667	8.45870E-001	1.01777E-004	0.00000E+000	8.60905E-005	5.99601E-002	8.46177E-001	3.57650E+000	9	...........
	44	0.6	8.52918E-001	1.02333E-004	0.00000E+000	8.72814E-005	5.99601E-002	8.53207E-001	3.57650E+000	9	...........
	45	0.613333	8.59737E-001	1.00779E-004	0.00000E+000	8.66436E-005	5.99601E-002	8.60029E-001	3.57650E+000	9	...........
	46	0.626667	8.66330E-001	1.01534E-004	0.00000E+000	8.79616E-005	5.99601E-002	8.66662E-001	3.57650E+000	9	...........
	47	0.64	8.72785E-001	1.01312E-004	0.00000E+000	8.84233E-005	5.99601E-002	8.73066E-001	3.57650E+000	9	...........
	48	0.653333	8.78993E-001	1.00453E-004	0.00000E+000	8.82976E-005	5.99601E-002	8.79292E-001	3.57650E+000	9	...........
	49	0.666667	8.85047E-001	1.01162E-004	0.00000E+000	8.95328E-005	5.99601E-002	8.85358E-001	3.57650E+000	9	...........
	50	0.68	8.90931E-001	1.00776E-004	0.00000E+000	8.97846E-005	5.99601E-002	8.91237E-001	3.57650E+000	9	...........
	51	0.693333	8.96672E-001	1.01536E-004	0.00000E+000	9.10441E-005	5.99601E-002	8.97013E-001	3.57650E+000	9	...........
	52	0.706667	9.02270E-001	1.01994E-004	0.00000E+000	9.20262E-005	5.99601E-002	9.02609E-001	3.57650E+000	9	...........
	53	0.72	9.07762E-001	1.01342E-004	0.00000E+000	9.19943E-005	5.99601E-002	9.08088E-001	3.57650E+000	9	...........
	54	0.733333	9.13125E-001	1.00715E-004	0.00000E+000	9.19651E-005	5.99601E-002	9.13433E-001	3.57650E+000	9	...........
	55	0.746667	9.18383E-001	1.01449E-004	0.00000E+000	9.31692E-005	5.99601E-002	9.18710E-001	3.57650E+000	9	...........
	56	0.76	9.23590E-001	9.99541E-005	0.00000E+000	9.23166E-005	5.99601E-002	9.23857E-001	3.57650E+000	9	...........
	57	0.773333	9.28677E-001	9.95415E-005	0.00000E+000	9.24419E-005	5.99601E-002	9.28931E-001	3.57650E+000	9	...........
	58	0.786667	9.33633E-001	1.00281E-004	0.00000E+000	9.36258E-005	5.99601E-002	9.33892E-001	3.57650E+000	9	...........
	59	0.8	9.38506E-001	1.01387E-004	0.00000E+000	9.51520E-005	5.99601E-002	9.38820E-001	3.57650E+000	9	...........
	60	0.813333	9.43329E-001	1.02136E-004	0.00000E+000	9.63476E-005	5.99601E-002	9.43620E-001	3.57650E+000	9	...........
	61	0.826667	9.48088E-001	1.01492E-004	0.00000E+000	9.62233E-005	5.99601E-002	9.48399E-001	3.57650E+000	9	...........
	62	0.84	9.52742E-001	1.00740E-004	0.00000E+000	9.59789E-005	5.99601E-002	9.53061E-001	3.57650E+000	9	...........
	63	0.853333	9.57343E-001	1.00714E-004	0.00000E+000	9.64174E-005	5.99601E-002	9.57638E-001	3.57650E+000	9	...........
	64	0.866667	9.61841E-001	1.01823E-004	0.00000E+000	9.79377E-005	5.99601E-002	9.62164E-001	3.57650E+000	9	...........
	65	0.88	9.66270E-001	1.00407E-004	0.00000E+000	9.70205E-005	5.99601E-002	9.66598E-001	3.57650E+000	9	...........
	66	0.893333	9.70636E-001	1.01859E-004	0.00000E+000	9.88677E-005	5.99601E-002	9.70965E-001	3.57650E+000	9	...........
	67	0.906667	9.74938E-001	1.01679E-004	0.00000E+000	9.91312E-005	5.99601E-002	9.75260E-001	3.57650E+000	9	...........
	68	0.92	9.79142E-001	1.01484E-004	0.00000E+000	9.93668E-005	5.99601E-002	9.79466E-001	3.57650E+000	9	...........
	69	0.933333	9.83270E-001	1.01287E-004	0.00000E+000	9.95921E-005	5.99601E-002	9.83589E-001	3.57650E+000	9	...........
	70	0.946667	9.87304E-001	1.01940E-004	0.00000E+000	1.00646E-004	5.99601E-002	9.87635E-001	3.57650E+000	9	...........
	71	0.96	9.91250E-001	1.01327E-004	0.00000E+000	1.00441E-004	5.99601E-002	9.91594E-001	3.57669E+000	9	...........
	72	0.97333	9.95107E-001	1.00776E-004	0.00000E+000	1.00283E-004	5.99601E-002	9.95457E-001	3.57720E+000	9	...........
	73	0.985	9.98706E-001	1.00521E-004	0.00000E+000	1.00390E-004	5.99601E-002	9.99037E-001	3.57720E+000	9	...........
STARTTIMEOFFSET	QUANT	1773.362	Start Time Offset (s)
