EXPLAIN
TAG	PWR800_CHARGE
TITLE	LABEL	PWR Cyclic Charge Discharge (Cell) - Charge Step	Test &Identifier
DATE	LABEL	12-7-2017	Date
TIME	LABEL	16:22:10	Time
NOTES	NOTES	2	&Notes...
	supercap test cell
	6M KOH
PSTAT	PSTAT	IFC5000-01520	Potentiostat
CAPACITY	QUANT	1.00000E-003	Capacity (A-hr)
CELLTYPE	SELECTOR	1	&Cell Type
WORKINGCONNECTION	SELECTOR	0	&Working Lead
MAXCHARGETIME	VARIABLEANDUNITS	1.00000E+002	s	1.00000E+002	second(s)	Max &Charge Time
CHARGECURRENT	QUANT	1.00000E-004	&Charge Current (A) 
VOLTAGEFINISH	TWOPARAM	F	1.00000E-003	3.60000E+003	&Voltage Finish	 I (A) < 	Max Time(s)
SAMPLETIME	QUANT	1.00000E-002	Sa&mple Period (s)
CHARGESTOPAT1	MULTIPARAM	4	1.00000E+000	Charge Stop At &1	Voltage > Limit	V
CHARGESTOPAT2	MULTIPARAM	0	0.00000E+000	Charge Stop At &2	None	N/A
AESBHCSELECTOR	TOGGLE	F	Save Both Half Cells
IRCOMP	TOGGLE	F	IR &Measure
EOC	QUANT	0	Open Circuit (V)
SEQUENCER	TOGGLE	TRUE	Run as Sequence
PSTATMODEL	IQUANT	53	Pstat Model
PSTATSECTION	LABEL	IFC5000-01520	Pstat Section
PSTATSERIALNO	LABEL	01520	Pstat Serial Number
CTRLMODE	IQUANT	0	Control Mode
ELECTROMETER	IQUANT	1	RE=0 or CS=1
IESTAB	IQUANT	0	I/E Stability
CASPEED	IQUANT	4	Control Amp Speed
CONVENTION	IQUANT	1	Current Convention
ICHRANGE	IQUANT	2	Ich Range
ICHRANGEMODE	TOGGLE	T	Ich Auto Range
ICHOFFSETENABLE	TOGGLE	F	Ich Offset Enable
ICHOFFSET	QUANT	0	Ich Offset (V)
ICHFILTER	IQUANT	1	Ich Filter
VCHRANGE	IQUANT	2	Vch Range
VCHRANGEMODE	TOGGLE	T	Vch Auto Range
VCHOFFSETENABLE	TOGGLE	F	Vch Offset Enable
VCHOFFSET	QUANT	0	Vch Offset (V)
VCHFILTER	IQUANT	1	Vch Filter
IERANGELOWERLIMIT	IQUANT	9	I/E Range Lower Limit
IERANGEMODE	TOGGLE	F	I/E AutoRange
IERANGE	IQUANT	9	I/E Range
ACHSELECT	IQUANT	1	Ach Select
ACHRANGE	IQUANT	2	Ach Range
ACHOFFSETENABLE	TOGGLE	F	Ach Offset Enable
ACHOFFSET	QUANT	0	Ach Offset (V)
ACHFILTER	IQUANT	1	Ach Filter
CABLEID	IQUANT	14	Cable ID
DCCALDATE	LABEL	5-7-2017	DC Calibration Date
ACCALDATE	LABEL	12/3/2015	AC Calibration Date
FRAMEWORKVERSION	QUANT	7.01	Framework Version
INSTRUMENTVERSION	LABEL	4.00	Instrument Version
CURVE	TABLE	78
	Pt	T	Vf	Im	Vu	Pwr	Sig	Ach	Temp	IERange	Over
	#	s	V	A	V	W	V	V	deg C	#	bits
	0	0.013333	2.68135E-001	1.00551E-004	0.00000E+000	2.69613E-005	5.99601E-002	2.68220E-001	3.57830E+000	9	...........
	1	0.026667	2.90710E-001	1.00754E-004	0.00000E+000	2.92903E-005	5.99601E-002	2.90777E-001	3.57830E+000	9	...........
	2	0.04	3.11849E-001	9.99489E-005	0.00000E+000	3.11690E-005	5.99601E-002	3.11912E-001	3.57830E+000	9	...........
	3	0.053333	3.31919E-001	1.01872E-004	0.00000E+000	3.38133E-005	5.99601E-002	3.31990E-001	3.57830E+000	9	...........
	4	0.066667	3.51152E-001	1.01394E-004	0.00000E+000	3.56047E-005	5.99601E-002	3.51232E-001	3.57830E+000	9	...........
	5	0.08	3.69697E-001	1.00990E-004	0.00000E+000	3.73356E-005	5.99601E-002	3.69775E-001	3.57830E+000	9	...........
	6	0.093333	3.87644E-001	1.00394E-004	0.00000E+000	3.89171E-005	5.99601E-002	3.87724E-001	3.57830E+000	9	...........
	7	0.106667	4.05055E-001	1.00861E-004	0.00000E+000	4.08541E-005	5.99601E-002	4.05140E-001	3.57830E+000	9	...........
	8	0.12	4.22004E-001	1.01132E-004	0.00000E+000	4.26783E-005	5.99601E-002	4.22099E-001	3.57830E+000	9	...........
	9	0.133333	4.38529E-001	1.00468E-004	0.00000E+000	4.40580E-005	5.99601E-002	4.38625E-001	3.57830E+000	9	...........
	10	0.146667	4.54639E-001	9.98426E-005	0.00000E+000	4.53924E-005	5.99601E-002	4.54745E-001	3.57830E+000	9	...........
	11	0.16	4.70388E-001	9.94113E-005	0.00000E+000	4.67619E-005	5.99601E-002	4.70490E-001	3.57830E+000	9	...........
	12	0.173333	4.85802E-001	1.01260E-004	0.00000E+000	4.91921E-005	5.99601E-002	4.85910E-001	3.57830E+000	9	...........
	13	0.186667	5.00871E-001	1.01522E-004	0.00000E+000	5.08495E-005	5.99601E-002	5.00986E-001	3.57830E+000	9	...........
	14	0.2	5.15632E-001	1.00358E-004	0.00000E+000	5.17480E-005	5.99601E-002	5.15743E-001	3.57830E+000	9	...........
	15	0.213333	5.30035E-001	1.00753E-004	0.00000E+000	5.34027E-005	5.99601E-002	5.30147E-001	3.57830E+000	9	...........
	16	0.226667	5.43926E-001	9.99270E-005	0.00000E+000	5.43529E-005	5.99601E-002	5.44185E-001	3.57830E+000	9	...........
	17	0.24	5.57804E-001	1.01300E-004	0.00000E+000	5.65056E-005	5.99601E-002	5.58086E-001	3.57830E+000	9	...........
	18	0.253333	5.71446E-001	1.00294E-004	0.00000E+000	5.73125E-005	5.99601E-002	5.71697E-001	3.57830E+000	9	...........
	19	0.266667	5.84774E-001	1.00715E-004	0.00000E+000	5.88953E-005	5.99601E-002	5.85055E-001	3.57830E+000	9	...........
	20	0.28	5.97862E-001	1.00529E-004	0.00000E+000	6.01026E-005	5.99601E-002	5.98173E-001	3.57747E+000	9	...........
	21	0.293333	6.10713E-001	1.00842E-004	0.00000E+000	6.15854E-005	5.99601E-002	6.11018E-001	3.57720E+000	9	...........
	22	0.306667	6.23329E-001	1.00214E-004	0.00000E+000	6.24660E-005	5.99601E-002	6.23572E-001	3.57720E+000	9	...........
	23	0.32	6.35641E-001	1.00016E-004	0.00000E+000	6.35740E-005	5.99601E-002	6.35911E-001	3.57720E+000	9	...........
	24	0.333333	6.47745E-001	1.01449E-004	0.00000E+000	6.57132E-005	5.99601E-002	6.48004E-001	3.57720E+000	9	...........
	25	0.346667	6.59578E-001	1.01254E-004	0.00000E+000	6.67851E-005	5.99601E-002	6.59837E-001	3.57720E+000	9	...........
	26	0.36	6.71205E-001	1.01198E-004	0.00000E+000	6.79246E-005	5.99601E-002	6.71447E-001	3.57720E+000	9	...........
	27	0.373333	6.82547E-001	1.01484E-004	0.00000E+000	6.92674E-005	5.99601E-002	6.82802E-001	3.57720E+000	9	...........
	28	0.386667	6.93659E-001	1.02207E-004	0.00000E+000	7.08966E-005	5.99601E-002	6.93918E-001	3.57720E+000	9	...........
	29	0.4	7.04521E-001	1.00801E-004	0.00000E+000	7.10165E-005	5.99601E-002	7.04785E-001	3.57720E+000	9	...........
	30	0.413333	7.15193E-001	1.01176E-004	0.00000E+000	7.23605E-005	5.99601E-002	7.15421E-001	3.57720E+000	9	...........
	31	0.426667	7.25603E-001	1.01138E-004	0.00000E+000	7.33858E-005	5.99601E-002	7.25856E-001	3.57720E+000	9	...........
	32	0.44	7.35775E-001	1.00704E-004	0.00000E+000	7.40956E-005	5.99601E-002	7.36024E-001	3.57720E+000	9	...........
	33	0.453333	7.45718E-001	1.01122E-004	0.00000E+000	7.54086E-005	5.99601E-002	7.45980E-001	3.57720E+000	9	...........
	34	0.466667	7.55443E-001	1.00567E-004	0.00000E+000	7.59724E-005	5.99601E-002	7.55696E-001	3.57720E+000	9	...........
	35	0.48	7.64934E-001	1.01864E-004	0.00000E+000	7.79191E-005	5.99601E-002	7.65200E-001	3.57720E+000	9	...........
	36	0.493333	7.74198E-001	1.01057E-004	0.00000E+000	7.82384E-005	5.99601E-002	7.74452E-001	3.57720E+000	9	...........
	37	0.506667	7.83217E-001	1.01306E-004	0.00000E+000	7.93450E-005	5.99601E-002	7.83502E-001	3.57720E+000	9	...........
	38	0.52	7.92009E-001	1.01033E-004	0.00000E+000	8.00194E-005	5.99601E-002	7.92314E-001	3.57720E+000	9	...........
	39	0.533333	8.00599E-001	1.00567E-004	0.00000E+000	8.05136E-005	5.99601E-002	8.00857E-001	3.57720E+000	9	...........
	40	0.546667	8.08942E-001	1.01549E-004	0.00000E+000	8.21474E-005	5.99601E-002	8.09242E-001	3.57720E+000	9	...........
	41	0.56	8.17071E-001	1.00181E-004	0.00000E+000	8.18552E-005	5.99601E-002	8.17372E-001	3.57720E+000	9	...........
	42	0.573333	8.24991E-001	1.01567E-004	0.00000E+000	8.37918E-005	5.99601E-002	8.25297E-001	3.57720E+000	9	...........
	43	0.586667	8.32665E-001	1.01807E-004	0.00000E+000	8.47708E-005	5.99601E-002	8.33005E-001	3.57720E+000	9	...........
	44	0.6	8.40118E-001	1.00630E-004	0.00000E+000	8.45413E-005	5.99601E-002	8.40484E-001	3.57720E+000	9	...........
	45	0.613333	8.47421E-001	1.00890E-004	0.00000E+000	8.54960E-005	5.99601E-002	8.47785E-001	3.57720E+000	9	...........
	46	0.626667	8.54460E-001	1.01421E-004	0.00000E+000	8.66602E-005	5.99601E-002	8.54831E-001	3.57720E+000	9	...........
	47	0.64	8.61319E-001	1.01993E-004	0.00000E+000	8.78485E-005	5.99601E-002	8.61677E-001	3.57720E+000	9	...........
	48	0.653333	8.67975E-001	1.01294E-004	0.00000E+000	8.79206E-005	5.99601E-002	8.68329E-001	3.57720E+000	9	...........
	49	0.666667	8.74415E-001	1.00186E-004	0.00000E+000	8.76045E-005	5.99601E-002	8.74777E-001	3.57720E+000	9	...........
	50	0.68	8.80694E-001	1.00638E-004	0.00000E+000	8.86309E-005	5.99601E-002	8.81012E-001	3.57720E+000	9	...........
	51	0.693333	8.86764E-001	1.00958E-004	0.00000E+000	8.95263E-005	5.99601E-002	8.87094E-001	3.57720E+000	9	...........
	52	0.706667	8.92636E-001	1.00404E-004	0.00000E+000	8.96244E-005	5.99601E-002	8.92943E-001	3.57720E+000	9	...........
	53	0.72	8.98340E-001	1.01205E-004	0.00000E+000	9.09168E-005	5.99601E-002	8.98647E-001	3.57720E+000	9	...........
	54	0.733333	9.03877E-001	1.02031E-004	0.00000E+000	9.22231E-005	5.99601E-002	9.04200E-001	3.57720E+000	9	...........
	55	0.746667	9.09272E-001	1.00201E-004	0.00000E+000	9.11100E-005	5.99601E-002	9.09587E-001	3.57720E+000	9	...........
	56	0.76	9.14512E-001	1.01431E-004	0.00000E+000	9.27603E-005	5.99601E-002	9.14840E-001	3.57720E+000	9	...........
	57	0.773333	9.19621E-001	1.00379E-004	0.00000E+000	9.23108E-005	5.99601E-002	9.19949E-001	3.57720E+000	9	...........
	58	0.786667	9.24631E-001	1.00791E-004	0.00000E+000	9.31942E-005	5.99601E-002	9.24932E-001	3.57720E+000	9	...........
	59	0.8	9.29484E-001	1.01485E-004	0.00000E+000	9.43283E-005	5.99601E-002	9.29808E-001	3.57720E+000	9	...........
	60	0.813333	9.34184E-001	1.01350E-004	0.00000E+000	9.46798E-005	5.99601E-002	9.34538E-001	3.57720E+000	9	...........
	61	0.826667	9.38835E-001	1.00748E-004	0.00000E+000	9.45857E-005	5.99601E-002	9.39199E-001	3.57720E+000	9	...........
	62	0.84	9.43351E-001	1.01150E-004	0.00000E+000	9.54201E-005	5.99601E-002	9.43716E-001	3.57720E+000	9	...........
	63	0.853333	9.47812E-001	1.00708E-004	0.00000E+000	9.54526E-005	5.99601E-002	9.48189E-001	3.57720E+000	9	...........
	64	0.866667	9.52173E-001	1.01302E-004	0.00000E+000	9.64573E-005	5.99601E-002	9.52525E-001	3.57720E+000	9	...........
	65	0.88	9.56436E-001	1.00917E-004	0.00000E+000	9.65205E-005	5.99601E-002	9.56795E-001	3.57720E+000	9	...........
	66	0.893333	9.60601E-001	1.01531E-004	0.00000E+000	9.75313E-005	5.99601E-002	9.60975E-001	3.57720E+000	9	...........
	67	0.906667	9.64725E-001	1.01657E-004	0.00000E+000	9.80706E-005	5.99601E-002	9.65081E-001	3.57720E+000	9	...........
	68	0.92	9.68736E-001	1.01794E-004	0.00000E+000	9.86115E-005	5.99601E-002	9.69095E-001	3.57720E+000	9	...........
	69	0.933333	9.72710E-001	1.00728E-004	0.00000E+000	9.79793E-005	5.99601E-002	9.73056E-001	3.57720E+000	9	...........
	70	0.946667	9.76585E-001	1.00471E-004	0.00000E+000	9.81183E-005	5.99601E-002	9.76951E-001	3.57720E+000	9	...........
	71	0.96	9.80377E-001	1.00806E-004	0.00000E+000	9.88283E-005	5.99601E-002	9.80733E-001	3.57720E+000	9	...........
	72	0.97333	9.84059E-001	1.01745E-004	0.00000E+000	1.00123E-004	5.99601E-002	9.84429E-001	3.57720E+000	9	...........
	73	0.98667	9.87695E-001	1.00825E-004	0.00000E+000	9.95845E-005	5.99601E-002	9.88066E-001	3.57720E+000	9	...........
	74	1	9.91230E-001	1.00486E-004	0.00000E+000	9.96052E-005	5.99601E-002	9.91585E-001	3.57720E+000	9	...........
	75	1.01333	9.94677E-001	1.00870E-004	0.00000E+000	1.00333E-004	5.99601E-002	9.95056E-001	3.57720E+000	9	...........
	76	1.02667	9.98092E-001	9.99947E-005	0.00000E+000	9.98039E-005	5.99601E-002	9.98461E-001	3.57720E+000	9	...........
	77	1.03	1.00015E+000	1.02157E-004	0.00000E+000	1.02172E-004	5.99601E-002	1.00053E+000	3.57720E+000	9	...........
STARTTIMEOFFSET	QUANT	517.6818	Start Time Offset (s)
