EXPLAIN
TAG	PWR800_CHARGE
TITLE	LABEL	PWR Cyclic Charge Discharge (Cell) - Charge Step	Test &Identifier
DATE	LABEL	12-7-2017	Date
TIME	LABEL	16:42:19	Time
NOTES	NOTES	2	&Notes...
	supercap test cell
	6M KOH
PSTAT	PSTAT	IFC5000-01520	Potentiostat
CAPACITY	QUANT	1.00000E-003	Capacity (A-hr)
CELLTYPE	SELECTOR	1	&Cell Type
WORKINGCONNECTION	SELECTOR	0	&Working Lead
MAXCHARGETIME	VARIABLEANDUNITS	1.00000E+002	s	1.00000E+002	second(s)	Max &Charge Time
CHARGECURRENT	QUANT	1.00000E-004	&Charge Current (A) 
VOLTAGEFINISH	TWOPARAM	F	1.00000E-003	3.60000E+003	&Voltage Finish	 I (A) < 	Max Time(s)
SAMPLETIME	QUANT	1.00000E-002	Sa&mple Period (s)
CHARGESTOPAT1	MULTIPARAM	4	1.00000E+000	Charge Stop At &1	Voltage > Limit	V
CHARGESTOPAT2	MULTIPARAM	0	0.00000E+000	Charge Stop At &2	None	N/A
AESBHCSELECTOR	TOGGLE	F	Save Both Half Cells
IRCOMP	TOGGLE	F	IR &Measure
EOC	QUANT	0	Open Circuit (V)
SEQUENCER	TOGGLE	TRUE	Run as Sequence
PSTATMODEL	IQUANT	53	Pstat Model
PSTATSECTION	LABEL	IFC5000-01520	Pstat Section
PSTATSERIALNO	LABEL	01520	Pstat Serial Number
CTRLMODE	IQUANT	0	Control Mode
ELECTROMETER	IQUANT	1	RE=0 or CS=1
IESTAB	IQUANT	0	I/E Stability
CASPEED	IQUANT	4	Control Amp Speed
CONVENTION	IQUANT	1	Current Convention
ICHRANGE	IQUANT	2	Ich Range
ICHRANGEMODE	TOGGLE	T	Ich Auto Range
ICHOFFSETENABLE	TOGGLE	F	Ich Offset Enable
ICHOFFSET	QUANT	0	Ich Offset (V)
ICHFILTER	IQUANT	1	Ich Filter
VCHRANGE	IQUANT	2	Vch Range
VCHRANGEMODE	TOGGLE	T	Vch Auto Range
VCHOFFSETENABLE	TOGGLE	F	Vch Offset Enable
VCHOFFSET	QUANT	0	Vch Offset (V)
VCHFILTER	IQUANT	1	Vch Filter
IERANGELOWERLIMIT	IQUANT	9	I/E Range Lower Limit
IERANGEMODE	TOGGLE	F	I/E AutoRange
IERANGE	IQUANT	9	I/E Range
ACHSELECT	IQUANT	1	Ach Select
ACHRANGE	IQUANT	2	Ach Range
ACHOFFSETENABLE	TOGGLE	F	Ach Offset Enable
ACHOFFSET	QUANT	0	Ach Offset (V)
ACHFILTER	IQUANT	1	Ach Filter
CABLEID	IQUANT	14	Cable ID
DCCALDATE	LABEL	5-7-2017	DC Calibration Date
ACCALDATE	LABEL	12/3/2015	AC Calibration Date
FRAMEWORKVERSION	QUANT	7.01	Framework Version
INSTRUMENTVERSION	LABEL	4.00	Instrument Version
CURVE	TABLE	75
	Pt	T	Vf	Im	Vu	Pwr	Sig	Ach	Temp	IERange	Over
	#	s	V	A	V	W	V	V	deg C	#	bits
	0	0.013333	2.58308E-001	1.02648E-004	0.00000E+000	2.65149E-005	5.99601E-002	2.58385E-001	3.57660E+000	9	...........
	1	0.026667	2.81340E-001	1.00642E-004	0.00000E+000	2.83146E-005	5.99601E-002	2.81397E-001	3.57660E+000	9	...........
	2	0.04	3.03094E-001	9.96613E-005	0.00000E+000	3.02067E-005	5.99601E-002	3.03160E-001	3.57660E+000	9	...........
	3	0.053333	3.23955E-001	1.00702E-004	0.00000E+000	3.26230E-005	5.99601E-002	3.24019E-001	3.57660E+000	9	...........
	4	0.066667	3.44082E-001	1.02291E-004	0.00000E+000	3.51966E-005	5.99601E-002	3.44151E-001	3.57660E+000	9	...........
	5	0.08	3.63607E-001	1.01498E-004	0.00000E+000	3.69054E-005	5.99601E-002	3.63675E-001	3.57660E+000	9	...........
	6	0.093333	3.82609E-001	1.01010E-004	0.00000E+000	3.86472E-005	5.99601E-002	3.82681E-001	3.57660E+000	9	...........
	7	0.106667	4.01125E-001	1.00640E-004	0.00000E+000	4.03691E-005	5.99601E-002	4.01199E-001	3.57660E+000	9	...........
	8	0.12	4.19194E-001	1.00294E-004	0.00000E+000	4.20425E-005	5.99601E-002	4.19276E-001	3.57660E+000	9	...........
	9	0.133333	4.36853E-001	1.02242E-004	0.00000E+000	4.46648E-005	5.99601E-002	4.36947E-001	3.57660E+000	9	...........
	10	0.146667	4.54129E-001	1.00927E-004	0.00000E+000	4.58340E-005	5.99601E-002	4.54223E-001	3.57660E+000	9	...........
	11	0.16	4.71021E-001	1.00107E-004	0.00000E+000	4.71526E-005	5.99601E-002	4.71115E-001	3.57660E+000	9	...........
	12	0.173333	4.87543E-001	9.97593E-005	0.00000E+000	4.86369E-005	5.99601E-002	4.87649E-001	3.57660E+000	9	...........
	13	0.186667	5.03708E-001	1.01325E-004	0.00000E+000	5.10383E-005	5.99601E-002	5.03817E-001	3.57660E+000	9	...........
	14	0.2	5.19526E-001	1.00485E-004	0.00000E+000	5.22048E-005	5.99601E-002	5.19635E-001	3.57660E+000	9	...........
	15	0.213333	5.34832E-001	1.01338E-004	0.00000E+000	5.41987E-005	5.99601E-002	5.35029E-001	3.57660E+000	9	...........
	16	0.226667	5.49842E-001	1.00568E-004	0.00000E+000	5.52964E-005	5.99601E-002	5.50089E-001	3.57660E+000	9	...........
	17	0.24	5.64636E-001	1.00558E-004	0.00000E+000	5.67789E-005	5.99601E-002	5.64897E-001	3.57660E+000	9	...........
	18	0.253333	5.79114E-001	1.00162E-004	0.00000E+000	5.80055E-005	5.99601E-002	5.79371E-001	3.57660E+000	9	...........
	19	0.266667	5.93261E-001	1.00792E-004	0.00000E+000	5.97958E-005	5.99601E-002	5.93537E-001	3.57660E+000	9	...........
	20	0.28	6.07043E-001	1.00295E-004	0.00000E+000	6.08833E-005	5.99601E-002	6.07333E-001	3.57660E+000	9	...........
	21	0.293333	6.20588E-001	9.99437E-005	0.00000E+000	6.20239E-005	5.99601E-002	6.20826E-001	3.57660E+000	9	...........
	22	0.306667	6.33757E-001	1.01148E-004	0.00000E+000	6.41033E-005	5.99601E-002	6.33994E-001	3.57660E+000	9	...........
	23	0.32	6.46640E-001	1.00180E-004	0.00000E+000	6.47806E-005	5.99601E-002	6.46887E-001	3.57660E+000	9	...........
	24	0.333333	6.59166E-001	1.00308E-004	0.00000E+000	6.61199E-005	5.99601E-002	6.59445E-001	3.57660E+000	9	...........
	25	0.346667	6.71428E-001	1.00393E-004	0.00000E+000	6.74065E-005	5.99601E-002	6.71683E-001	3.57660E+000	9	...........
	26	0.36	6.83369E-001	1.02191E-004	0.00000E+000	6.98342E-005	5.99601E-002	6.83633E-001	3.57660E+000	9	...........
	27	0.373333	6.95000E-001	1.00742E-004	0.00000E+000	7.00155E-005	5.99601E-002	6.95277E-001	3.57660E+000	9	...........
	28	0.386667	7.06343E-001	1.00065E-004	0.00000E+000	7.06798E-005	5.99601E-002	7.06631E-001	3.57660E+000	9	...........
	29	0.4	7.17404E-001	1.00659E-004	0.00000E+000	7.22135E-005	5.99601E-002	7.17679E-001	3.57660E+000	9	...........
	30	0.413333	7.28184E-001	1.00319E-004	0.00000E+000	7.30505E-005	5.99601E-002	7.28430E-001	3.57660E+000	9	...........
	31	0.426667	7.38661E-001	1.01584E-004	0.00000E+000	7.50358E-005	5.99601E-002	7.38923E-001	3.57660E+000	9	...........
	32	0.44	7.48862E-001	1.01179E-004	0.00000E+000	7.57693E-005	5.99601E-002	7.49112E-001	3.57660E+000	9	...........
	33	0.453333	7.58787E-001	1.00298E-004	0.00000E+000	7.61047E-005	5.99601E-002	7.59019E-001	3.57660E+000	9	...........
	34	0.466667	7.68424E-001	1.00397E-004	0.00000E+000	7.71474E-005	5.99601E-002	7.68661E-001	3.57660E+000	9	...........
	35	0.48	7.77784E-001	9.97801E-005	0.00000E+000	7.76073E-005	5.99601E-002	7.78029E-001	3.57660E+000	9	...........
	36	0.493333	7.86858E-001	1.00492E-004	0.00000E+000	7.90727E-005	5.99601E-002	7.87122E-001	3.57660E+000	9	...........
	37	0.506667	7.95724E-001	1.00997E-004	0.00000E+000	8.03658E-005	5.99601E-002	7.95991E-001	3.57660E+000	9	...........
	38	0.52	8.04261E-001	9.95780E-005	0.00000E+000	8.00867E-005	5.99601E-002	8.04541E-001	3.57660E+000	9	...........
	39	0.533333	8.12539E-001	1.01136E-004	0.00000E+000	8.21766E-005	5.99601E-002	8.12856E-001	3.57660E+000	9	...........
	40	0.546667	8.20612E-001	1.01801E-004	0.00000E+000	8.35394E-005	5.99601E-002	8.20925E-001	3.57660E+000	9	...........
	41	0.56	8.28409E-001	1.01815E-004	0.00000E+000	8.43444E-005	5.99601E-002	8.28723E-001	3.57660E+000	9	...........
	42	0.573333	8.35942E-001	1.01144E-004	0.00000E+000	8.45504E-005	5.99601E-002	8.36280E-001	3.57660E+000	9	...........
	43	0.586667	8.43292E-001	1.01756E-004	0.00000E+000	8.58096E-005	5.99601E-002	8.43593E-001	3.57660E+000	9	...........
	44	0.6	8.50405E-001	1.00475E-004	0.00000E+000	8.54444E-005	5.99601E-002	8.50701E-001	3.57660E+000	9	...........
	45	0.613333	8.57267E-001	1.01464E-004	0.00000E+000	8.69815E-005	5.99601E-002	8.57566E-001	3.57660E+000	9	...........
	46	0.626667	8.63904E-001	1.01889E-004	0.00000E+000	8.80222E-005	5.99601E-002	8.64211E-001	3.57660E+000	9	...........
	47	0.64	8.70397E-001	9.97311E-005	0.00000E+000	8.68057E-005	5.99601E-002	8.70704E-001	3.57660E+000	9	...........
	48	0.653333	8.76648E-001	1.01422E-004	0.00000E+000	8.89115E-005	5.99601E-002	8.76958E-001	3.57660E+000	9	...........
	49	0.666667	8.82724E-001	1.02007E-004	0.00000E+000	9.00437E-005	5.99601E-002	8.83051E-001	3.57660E+000	9	...........
	50	0.68	8.88646E-001	1.02183E-004	0.00000E+000	9.08042E-005	5.99601E-002	8.88974E-001	3.57660E+000	9	...........
	51	0.693333	8.94401E-001	1.00547E-004	0.00000E+000	8.99292E-005	5.99601E-002	8.94725E-001	3.57660E+000	9	...........
	52	0.706667	9.00020E-001	1.01903E-004	0.00000E+000	9.17152E-005	5.99601E-002	9.00343E-001	3.57660E+000	9	...........
	53	0.72	9.05492E-001	1.01354E-004	0.00000E+000	9.17756E-005	5.99601E-002	9.05837E-001	3.57660E+000	9	...........
	54	0.733333	9.10872E-001	1.02309E-004	0.00000E+000	9.31902E-005	5.99601E-002	9.11169E-001	3.57660E+000	9	...........
	55	0.746667	9.16106E-001	1.00909E-004	0.00000E+000	9.24438E-005	5.99601E-002	9.16413E-001	3.57660E+000	9	...........
	56	0.76	9.21282E-001	9.99874E-005	0.00000E+000	9.21166E-005	5.99601E-002	9.21587E-001	3.57660E+000	9	...........
	57	0.773333	9.26358E-001	1.00380E-004	0.00000E+000	9.29880E-005	5.99601E-002	9.26623E-001	3.57660E+000	9	...........
	58	0.786667	9.31279E-001	1.00710E-004	0.00000E+000	9.37896E-005	5.99601E-002	9.31552E-001	3.57660E+000	9	...........
	59	0.8	9.36104E-001	1.00382E-004	0.00000E+000	9.39682E-005	5.99601E-002	9.36401E-001	3.57660E+000	9	...........
	60	0.813333	9.40883E-001	9.97415E-005	0.00000E+000	9.38451E-005	5.99601E-002	9.41174E-001	3.57660E+000	9	...........
	61	0.826667	9.45593E-001	1.00532E-004	0.00000E+000	9.50627E-005	5.99601E-002	9.45895E-001	3.57660E+000	9	...........
	62	0.84	9.50213E-001	1.02126E-004	0.00000E+000	9.70418E-005	5.99601E-002	9.50515E-001	3.57660E+000	9	...........
	63	0.853333	9.54732E-001	1.02311E-004	0.00000E+000	9.76794E-005	5.99601E-002	9.55058E-001	3.57660E+000	9	...........
	64	0.866667	9.59191E-001	1.00652E-004	0.00000E+000	9.65446E-005	5.99601E-002	9.59533E-001	3.57660E+000	9	...........
	65	0.88	9.63566E-001	1.00151E-004	0.00000E+000	9.65021E-005	5.99601E-002	9.63913E-001	3.57660E+000	9	...........
	66	0.893333	9.67870E-001	1.00813E-004	0.00000E+000	9.75735E-005	5.99601E-002	9.68230E-001	3.57660E+000	9	...........
	67	0.906667	9.72124E-001	1.01697E-004	0.00000E+000	9.88623E-005	5.99601E-002	9.72506E-001	3.57660E+000	9	...........
	68	0.92	9.76329E-001	1.01110E-004	0.00000E+000	9.87161E-005	5.99601E-002	9.76668E-001	3.57660E+000	9	...........
	69	0.933333	9.80416E-001	1.02631E-004	0.00000E+000	1.00621E-004	5.99601E-002	9.80749E-001	3.57660E+000	9	...........
	70	0.946667	9.84405E-001	1.00707E-004	0.00000E+000	9.91369E-005	5.99601E-002	9.84750E-001	3.57660E+000	9	...........
	71	0.96	9.88317E-001	9.85996E-005	0.00000E+000	9.74477E-005	5.99601E-002	9.88678E-001	3.57660E+000	9	...........
	72	0.97333	9.92158E-001	1.01536E-004	0.00000E+000	1.00739E-004	5.99601E-002	9.92500E-001	3.57660E+000	9	...........
	73	0.98667	9.95903E-001	1.01346E-004	0.00000E+000	1.00931E-004	5.99601E-002	9.96242E-001	3.57660E+000	9	...........
	74	0.99667	9.99161E-001	1.01118E-004	0.00000E+000	1.01033E-004	5.99601E-002	9.99472E-001	3.57650E+000	9	...........
STARTTIMEOFFSET	QUANT	1377.104	Start Time Offset (s)
