EXPLAIN
TAG	PWR800_CHARGE
TITLE	LABEL	PWR Cyclic Charge Discharge (Cell) - Charge Step	Test &Identifier
DATE	LABEL	12-7-2017	Date
TIME	LABEL	16:12:05	Time
NOTES	NOTES	2	&Notes...
	supercap test cell
	6M KOH
PSTAT	PSTAT	IFC5000-01520	Potentiostat
CAPACITY	QUANT	1.00000E-003	Capacity (A-hr)
CELLTYPE	SELECTOR	1	&Cell Type
WORKINGCONNECTION	SELECTOR	0	&Working Lead
MAXCHARGETIME	VARIABLEANDUNITS	1.00000E+002	s	1.00000E+002	second(s)	Max &Charge Time
CHARGECURRENT	QUANT	1.00000E-004	&Charge Current (A) 
VOLTAGEFINISH	TWOPARAM	F	1.00000E-003	3.60000E+003	&Voltage Finish	 I (A) < 	Max Time(s)
SAMPLETIME	QUANT	1.00000E-002	Sa&mple Period (s)
CHARGESTOPAT1	MULTIPARAM	4	1.00000E+000	Charge Stop At &1	Voltage > Limit	V
CHARGESTOPAT2	MULTIPARAM	0	0.00000E+000	Charge Stop At &2	None	N/A
AESBHCSELECTOR	TOGGLE	F	Save Both Half Cells
IRCOMP	TOGGLE	F	IR &Measure
EOC	QUANT	0	Open Circuit (V)
SEQUENCER	TOGGLE	TRUE	Run as Sequence
PSTATMODEL	IQUANT	53	Pstat Model
PSTATSECTION	LABEL	IFC5000-01520	Pstat Section
PSTATSERIALNO	LABEL	01520	Pstat Serial Number
CTRLMODE	IQUANT	0	Control Mode
ELECTROMETER	IQUANT	1	RE=0 or CS=1
IESTAB	IQUANT	0	I/E Stability
CASPEED	IQUANT	4	Control Amp Speed
CONVENTION	IQUANT	1	Current Convention
ICHRANGE	IQUANT	2	Ich Range
ICHRANGEMODE	TOGGLE	T	Ich Auto Range
ICHOFFSETENABLE	TOGGLE	F	Ich Offset Enable
ICHOFFSET	QUANT	0	Ich Offset (V)
ICHFILTER	IQUANT	1	Ich Filter
VCHRANGE	IQUANT	2	Vch Range
VCHRANGEMODE	TOGGLE	T	Vch Auto Range
VCHOFFSETENABLE	TOGGLE	F	Vch Offset Enable
VCHOFFSET	QUANT	0	Vch Offset (V)
VCHFILTER	IQUANT	1	Vch Filter
IERANGELOWERLIMIT	IQUANT	9	I/E Range Lower Limit
IERANGEMODE	TOGGLE	F	I/E AutoRange
IERANGE	IQUANT	9	I/E Range
ACHSELECT	IQUANT	1	Ach Select
ACHRANGE	IQUANT	2	Ach Range
ACHOFFSETENABLE	TOGGLE	F	Ach Offset Enable
ACHOFFSET	QUANT	0	Ach Offset (V)
ACHFILTER	IQUANT	1	Ach Filter
CABLEID	IQUANT	14	Cable ID
DCCALDATE	LABEL	5-7-2017	DC Calibration Date
ACCALDATE	LABEL	12/3/2015	AC Calibration Date
FRAMEWORKVERSION	QUANT	7.01	Framework Version
INSTRUMENTVERSION	LABEL	4.00	Instrument Version
CURVE	TABLE	83
	Pt	T	Vf	Im	Vu	Pwr	Sig	Ach	Temp	IERange	Over
	#	s	V	A	V	W	V	V	deg C	#	bits
	0	0.013333	2.63706E-001	1.00673E-004	0.00000E+000	2.65480E-005	5.99601E-002	2.63784E-001	3.57720E+000	9	...........
	1	0.026667	2.86181E-001	1.00928E-004	0.00000E+000	2.88837E-005	5.99601E-002	2.86243E-001	3.57720E+000	9	...........
	2	0.04	3.07023E-001	1.01020E-004	0.00000E+000	3.10154E-005	5.99601E-002	3.07087E-001	3.57720E+000	9	...........
	3	0.053333	3.26614E-001	1.01013E-004	0.00000E+000	3.29921E-005	5.99601E-002	3.26679E-001	3.57720E+000	9	...........
	4	0.066667	3.45168E-001	1.00890E-004	0.00000E+000	3.48239E-005	5.99601E-002	3.45234E-001	3.57720E+000	9	...........
	5	0.08	3.62847E-001	1.01238E-004	0.00000E+000	3.67338E-005	5.99601E-002	3.62921E-001	3.57720E+000	9	...........
	6	0.093333	3.79769E-001	1.01120E-004	0.00000E+000	3.84023E-005	5.99601E-002	3.79841E-001	3.57720E+000	9	...........
	7	0.106667	3.96012E-001	1.00791E-004	0.00000E+000	3.99143E-005	5.99601E-002	3.96092E-001	3.57720E+000	9	...........
	8	0.12	4.11658E-001	1.01354E-004	0.00000E+000	4.17233E-005	5.99601E-002	4.11739E-001	3.57720E+000	9	...........
	9	0.133333	4.26776E-001	1.00900E-004	0.00000E+000	4.30617E-005	5.99601E-002	4.26865E-001	3.57720E+000	9	...........
	10	0.146667	4.41424E-001	1.01198E-004	0.00000E+000	4.46712E-005	5.99601E-002	4.41518E-001	3.57720E+000	9	...........
	11	0.16	4.55649E-001	1.00845E-004	0.00000E+000	4.59499E-005	5.99601E-002	4.55744E-001	3.57720E+000	9	...........
	12	0.173333	4.69493E-001	1.01232E-004	0.00000E+000	4.75280E-005	5.99601E-002	4.69592E-001	3.57720E+000	9	...........
	13	0.186667	4.82990E-001	1.01088E-004	0.00000E+000	4.88243E-005	5.99601E-002	4.83093E-001	3.57720E+000	9	...........
	14	0.2	4.96175E-001	1.01375E-004	0.00000E+000	5.02999E-005	5.99601E-002	4.96280E-001	3.57720E+000	9	...........
	15	0.213333	5.09063E-001	1.01030E-004	0.00000E+000	5.14308E-005	5.99601E-002	5.09173E-001	3.57720E+000	9	...........
	16	0.226667	5.21692E-001	1.01759E-004	0.00000E+000	5.30866E-005	5.99601E-002	5.21802E-001	3.57720E+000	9	...........
	17	0.24	5.33904E-001	1.01653E-004	0.00000E+000	5.42732E-005	5.99601E-002	5.34057E-001	3.57720E+000	9	...........
	18	0.253333	5.45894E-001	1.01284E-004	0.00000E+000	5.52901E-005	5.99601E-002	5.46089E-001	3.57720E+000	9	...........
	19	0.266667	5.57804E-001	1.01168E-004	0.00000E+000	5.64318E-005	5.99601E-002	5.58017E-001	3.57720E+000	9	...........
	20	0.28	5.69553E-001	1.01060E-004	0.00000E+000	5.75588E-005	5.99601E-002	5.69755E-001	3.57720E+000	9	...........
	21	0.293333	5.81052E-001	1.01221E-004	0.00000E+000	5.88147E-005	5.99601E-002	5.81271E-001	3.57720E+000	9	...........
	22	0.306667	5.92372E-001	1.00644E-004	0.00000E+000	5.96185E-005	5.99601E-002	5.92637E-001	3.57720E+000	9	...........
	23	0.32	6.03531E-001	1.01759E-004	0.00000E+000	6.14145E-005	5.99601E-002	6.03791E-001	3.57720E+000	9	...........
	24	0.333333	6.14526E-001	1.01590E-004	0.00000E+000	6.24296E-005	5.99601E-002	6.14771E-001	3.57720E+000	9	...........
	25	0.346667	6.25370E-001	1.01896E-004	0.00000E+000	6.37228E-005	5.99601E-002	6.25604E-001	3.57720E+000	9	...........
	26	0.36	6.36001E-001	1.00730E-004	0.00000E+000	6.40646E-005	5.99601E-002	6.36242E-001	3.57720E+000	9	...........
	27	0.373333	6.46502E-001	1.01008E-004	0.00000E+000	6.53021E-005	5.99601E-002	6.46756E-001	3.57720E+000	9	...........
	28	0.386667	6.56840E-001	1.00574E-004	0.00000E+000	6.60611E-005	5.99601E-002	6.57083E-001	3.57720E+000	9	...........
	29	0.4	6.67019E-001	1.01187E-004	0.00000E+000	6.74934E-005	5.99601E-002	6.67274E-001	3.57720E+000	9	...........
	30	0.413333	6.77039E-001	1.01209E-004	0.00000E+000	6.85221E-005	5.99601E-002	6.77309E-001	3.57720E+000	9	...........
	31	0.426667	6.86902E-001	1.00713E-004	0.00000E+000	6.91796E-005	5.99601E-002	6.87174E-001	3.57720E+000	9	...........
	32	0.44	6.96629E-001	1.00882E-004	0.00000E+000	7.02776E-005	5.99601E-002	6.96903E-001	3.57720E+000	9	...........
	33	0.453333	7.06200E-001	1.00550E-004	0.00000E+000	7.10084E-005	5.99601E-002	7.06500E-001	3.57720E+000	9	...........
	34	0.466667	7.15651E-001	1.01481E-004	0.00000E+000	7.26253E-005	5.99601E-002	7.15924E-001	3.57720E+000	9	...........
	35	0.48	7.24952E-001	1.00502E-004	0.00000E+000	7.28592E-005	5.99601E-002	7.25198E-001	3.57720E+000	9	...........
	36	0.493333	7.34083E-001	1.00923E-004	0.00000E+000	7.40859E-005	5.99601E-002	7.34323E-001	3.57720E+000	9	...........
	37	0.506667	7.43084E-001	1.00850E-004	0.00000E+000	7.49400E-005	5.99601E-002	7.43349E-001	3.57720E+000	9	...........
	38	0.52	7.51932E-001	1.01498E-004	0.00000E+000	7.63197E-005	5.99601E-002	7.52186E-001	3.57720E+000	9	...........
	39	0.533333	7.60641E-001	1.00890E-004	0.00000E+000	7.67409E-005	5.99601E-002	7.60886E-001	3.57720E+000	9	...........
	40	0.546667	7.69172E-001	1.01520E-004	0.00000E+000	7.80864E-005	5.99601E-002	7.69461E-001	3.57720E+000	9	...........
	41	0.56	7.77566E-001	1.00847E-004	0.00000E+000	7.84152E-005	5.99601E-002	7.77857E-001	3.57720E+000	9	...........
	42	0.573333	7.85816E-001	1.01287E-004	0.00000E+000	7.95926E-005	5.99601E-002	7.86107E-001	3.57720E+000	9	...........
	43	0.586667	7.93944E-001	1.00504E-004	0.00000E+000	7.97947E-005	5.99601E-002	7.94225E-001	3.57720E+000	9	...........
	44	0.6	8.01888E-001	1.00866E-004	0.00000E+000	8.08830E-005	5.99601E-002	8.02183E-001	3.57720E+000	9	...........
	45	0.613333	8.09652E-001	1.01480E-004	0.00000E+000	8.21638E-005	5.99601E-002	8.09972E-001	3.57720E+000	9	...........
	46	0.626667	8.17317E-001	1.01534E-004	0.00000E+000	8.29851E-005	5.99601E-002	8.17606E-001	3.57720E+000	9	...........
	47	0.64	8.24801E-001	1.01044E-004	0.00000E+000	8.33411E-005	5.99601E-002	8.25113E-001	3.57720E+000	9	...........
	48	0.653333	8.32109E-001	1.01165E-004	0.00000E+000	8.41801E-005	5.99601E-002	8.32452E-001	3.57720E+000	9	...........
	49	0.666667	8.39313E-001	1.00057E-004	0.00000E+000	8.39793E-005	5.99601E-002	8.39631E-001	3.57720E+000	9	...........
	50	0.68	8.46344E-001	1.00862E-004	0.00000E+000	8.53636E-005	5.99601E-002	8.46666E-001	3.57720E+000	9	...........
	51	0.693333	8.53209E-001	1.01522E-004	0.00000E+000	8.66196E-005	5.99601E-002	8.53533E-001	3.57720E+000	9	...........
	52	0.706667	8.59942E-001	1.01421E-004	0.00000E+000	8.72162E-005	5.99601E-002	8.60247E-001	3.57720E+000	9	...........
	53	0.72	8.66478E-001	1.00764E-004	0.00000E+000	8.73095E-005	5.99601E-002	8.66802E-001	3.57830E+000	9	...........
	54	0.733333	8.72933E-001	1.01200E-004	0.00000E+000	8.83410E-005	5.99601E-002	8.73238E-001	3.57860E+000	9	...........
	55	0.746667	8.79185E-001	1.00104E-004	0.00000E+000	8.80100E-005	5.99601E-002	8.79491E-001	3.57860E+000	9	...........
	56	0.76	8.85307E-001	1.01066E-004	0.00000E+000	8.94743E-005	5.99601E-002	8.85603E-001	3.57860E+000	9	...........
	57	0.773333	8.91265E-001	1.00792E-004	0.00000E+000	8.98321E-005	5.99601E-002	8.91570E-001	3.57860E+000	9	...........
	58	0.786667	8.97064E-001	1.00921E-004	0.00000E+000	9.05326E-005	5.99601E-002	8.97419E-001	3.57860E+000	9	...........
	59	0.8	9.02731E-001	1.00734E-004	0.00000E+000	9.09361E-005	5.99601E-002	9.03087E-001	3.57860E+000	9	...........
	60	0.813333	9.08268E-001	1.01037E-004	0.00000E+000	9.17684E-005	5.99601E-002	9.08618E-001	3.57860E+000	9	...........
	61	0.826667	9.13665E-001	1.01315E-004	0.00000E+000	9.25678E-005	5.99601E-002	9.13989E-001	3.57860E+000	9	...........
	62	0.84	9.18881E-001	1.01663E-004	0.00000E+000	9.34160E-005	5.99601E-002	9.19263E-001	3.57860E+000	9	...........
	63	0.853333	9.24075E-001	1.01108E-004	0.00000E+000	9.34319E-005	5.99601E-002	9.24402E-001	3.57860E+000	9	...........
	64	0.866667	9.29037E-001	1.00229E-004	0.00000E+000	9.31166E-005	5.99601E-002	9.29365E-001	3.57860E+000	9	...........
	65	0.88	9.33852E-001	1.02087E-004	0.00000E+000	9.53339E-005	5.99601E-002	9.34192E-001	3.57860E+000	9	...........
	66	0.893333	9.38568E-001	1.00889E-004	0.00000E+000	9.46909E-005	5.99601E-002	9.38924E-001	3.57860E+000	9	...........
	67	0.906667	9.43136E-001	1.01165E-004	0.00000E+000	9.54121E-005	5.99601E-002	9.43491E-001	3.57860E+000	9	...........
	68	0.92	9.47648E-001	1.00523E-004	0.00000E+000	9.52604E-005	5.99601E-002	9.48000E-001	3.57860E+000	9	...........
	69	0.933333	9.52021E-001	1.01297E-004	0.00000E+000	9.64369E-005	5.99601E-002	9.52360E-001	3.57860E+000	9	...........
	70	0.946667	9.56241E-001	1.00981E-004	0.00000E+000	9.65626E-005	5.99601E-002	9.56563E-001	3.57860E+000	9	...........
	71	0.96	9.60354E-001	1.01485E-004	0.00000E+000	9.74611E-005	5.99601E-002	9.60723E-001	3.57860E+000	9	...........
	72	0.97333	9.64402E-001	1.01082E-004	0.00000E+000	9.74841E-005	5.99601E-002	9.64743E-001	3.57860E+000	9	...........
	73	0.98667	9.68329E-001	1.00078E-004	0.00000E+000	9.69085E-005	5.99601E-002	9.68675E-001	3.57860E+000	9	...........
	74	1	9.72194E-001	1.01205E-004	0.00000E+000	9.83913E-005	5.99601E-002	9.72549E-001	3.57860E+000	9	...........
	75	1.01333	9.75971E-001	1.01365E-004	0.00000E+000	9.89291E-005	5.99601E-002	9.76308E-001	3.57860E+000	9	...........
	76	1.02667	9.79625E-001	1.00926E-004	0.00000E+000	9.88698E-005	5.99601E-002	9.79943E-001	3.57860E+000	9	...........
	77	1.04	9.83160E-001	1.00861E-004	0.00000E+000	9.91620E-005	5.99601E-002	9.83499E-001	3.57860E+000	9	...........
	78	1.05333	9.86609E-001	1.00861E-004	0.00000E+000	9.95099E-005	5.99601E-002	9.86977E-001	3.57860E+000	9	...........
	79	1.06667	9.89999E-001	1.00409E-004	0.00000E+000	9.94052E-005	5.99601E-002	9.90349E-001	3.57860E+000	9	...........
	80	1.08	9.93269E-001	1.00962E-004	0.00000E+000	1.00282E-004	5.99601E-002	9.93644E-001	3.57860E+000	9	...........
	81	1.09333	9.96477E-001	1.00649E-004	0.00000E+000	1.00294E-004	5.99601E-002	9.96832E-001	3.57860E+000	9	...........
	82	1.10333	9.99241E-001	1.00251E-004	0.00000E+000	1.00175E-004	5.99601E-002	9.99574E-001	3.57860E+000	9	...........
STARTTIMEOFFSET	QUANT	85.85334	Start Time Offset (s)
