EXPLAIN
TAG	PWR800_CHARGE
TITLE	LABEL	PWR Cyclic Charge Discharge (Cell) - Charge Step	Test &Identifier
DATE	LABEL	12-7-2017	Date
TIME	LABEL	16:23:33	Time
NOTES	NOTES	2	&Notes...
	supercap test cell
	6M KOH
PSTAT	PSTAT	IFC5000-01520	Potentiostat
CAPACITY	QUANT	1.00000E-003	Capacity (A-hr)
CELLTYPE	SELECTOR	1	&Cell Type
WORKINGCONNECTION	SELECTOR	0	&Working Lead
MAXCHARGETIME	VARIABLEANDUNITS	1.00000E+002	s	1.00000E+002	second(s)	Max &Charge Time
CHARGECURRENT	QUANT	1.00000E-004	&Charge Current (A) 
VOLTAGEFINISH	TWOPARAM	F	1.00000E-003	3.60000E+003	&Voltage Finish	 I (A) < 	Max Time(s)
SAMPLETIME	QUANT	1.00000E-002	Sa&mple Period (s)
CHARGESTOPAT1	MULTIPARAM	4	1.00000E+000	Charge Stop At &1	Voltage > Limit	V
CHARGESTOPAT2	MULTIPARAM	0	0.00000E+000	Charge Stop At &2	None	N/A
AESBHCSELECTOR	TOGGLE	F	Save Both Half Cells
IRCOMP	TOGGLE	F	IR &Measure
EOC	QUANT	0	Open Circuit (V)
SEQUENCER	TOGGLE	TRUE	Run as Sequence
PSTATMODEL	IQUANT	53	Pstat Model
PSTATSECTION	LABEL	IFC5000-01520	Pstat Section
PSTATSERIALNO	LABEL	01520	Pstat Serial Number
CTRLMODE	IQUANT	0	Control Mode
ELECTROMETER	IQUANT	1	RE=0 or CS=1
IESTAB	IQUANT	0	I/E Stability
CASPEED	IQUANT	4	Control Amp Speed
CONVENTION	IQUANT	1	Current Convention
ICHRANGE	IQUANT	2	Ich Range
ICHRANGEMODE	TOGGLE	T	Ich Auto Range
ICHOFFSETENABLE	TOGGLE	F	Ich Offset Enable
ICHOFFSET	QUANT	0	Ich Offset (V)
ICHFILTER	IQUANT	1	Ich Filter
VCHRANGE	IQUANT	2	Vch Range
VCHRANGEMODE	TOGGLE	T	Vch Auto Range
VCHOFFSETENABLE	TOGGLE	F	Vch Offset Enable
VCHOFFSET	QUANT	0	Vch Offset (V)
VCHFILTER	IQUANT	1	Vch Filter
IERANGELOWERLIMIT	IQUANT	9	I/E Range Lower Limit
IERANGEMODE	TOGGLE	F	I/E AutoRange
IERANGE	IQUANT	9	I/E Range
ACHSELECT	IQUANT	1	Ach Select
ACHRANGE	IQUANT	2	Ach Range
ACHOFFSETENABLE	TOGGLE	F	Ach Offset Enable
ACHOFFSET	QUANT	0	Ach Offset (V)
ACHFILTER	IQUANT	1	Ach Filter
CABLEID	IQUANT	14	Cable ID
DCCALDATE	LABEL	5-7-2017	DC Calibration Date
ACCALDATE	LABEL	12/3/2015	AC Calibration Date
FRAMEWORKVERSION	QUANT	7.01	Framework Version
INSTRUMENTVERSION	LABEL	4.00	Instrument Version
CURVE	TABLE	77
	Pt	T	Vf	Im	Vu	Pwr	Sig	Ach	Temp	IERange	Over
	#	s	V	A	V	W	V	V	deg C	#	bits
	0	0.013333	2.61684E-001	1.01295E-004	0.00000E+000	2.65073E-005	5.99601E-002	2.61761E-001	3.57690E+000	9	...........
	1	0.026667	2.84445E-001	1.01661E-004	0.00000E+000	2.89169E-005	5.99601E-002	2.84507E-001	3.57690E+000	9	...........
	2	0.04	3.05780E-001	1.00874E-004	0.00000E+000	3.08452E-005	5.99601E-002	3.05843E-001	3.57690E+000	9	...........
	3	0.053333	3.26075E-001	1.01252E-004	0.00000E+000	3.30158E-005	5.99601E-002	3.26138E-001	3.57690E+000	9	...........
	4	0.066667	3.45541E-001	1.01228E-004	0.00000E+000	3.49785E-005	5.99601E-002	3.45608E-001	3.57690E+000	9	...........
	5	0.08	3.64323E-001	1.01098E-004	0.00000E+000	3.68323E-005	5.99601E-002	3.64401E-001	3.57690E+000	9	...........
	6	0.093333	3.82515E-001	1.00830E-004	0.00000E+000	3.85691E-005	5.99601E-002	3.82591E-001	3.57690E+000	9	...........
	7	0.106667	4.00187E-001	1.01543E-004	0.00000E+000	4.06362E-005	5.99601E-002	4.00266E-001	3.57690E+000	9	...........
	8	0.12	4.17379E-001	1.00778E-004	0.00000E+000	4.20628E-005	5.99601E-002	4.17473E-001	3.57690E+000	9	...........
	9	0.133333	4.34156E-001	1.01676E-004	0.00000E+000	4.41434E-005	5.99601E-002	4.34254E-001	3.57690E+000	9	...........
	10	0.146667	4.50535E-001	1.00310E-004	0.00000E+000	4.51934E-005	5.99601E-002	4.50634E-001	3.57690E+000	9	...........
	11	0.16	4.66533E-001	1.01594E-004	0.00000E+000	4.73970E-005	5.99601E-002	4.66637E-001	3.57690E+000	9	...........
	12	0.173333	4.82182E-001	1.00052E-004	0.00000E+000	4.82433E-005	5.99601E-002	4.82285E-001	3.57690E+000	9	...........
	13	0.186667	4.97492E-001	1.00480E-004	0.00000E+000	4.99881E-005	5.99601E-002	4.97603E-001	3.57690E+000	9	...........
	14	0.2	5.12482E-001	1.00235E-004	0.00000E+000	5.13688E-005	5.99601E-002	5.12598E-001	3.57690E+000	9	...........
	15	0.213333	5.27170E-001	1.00126E-004	0.00000E+000	5.27834E-005	5.99601E-002	5.27286E-001	3.57690E+000	9	...........
	16	0.226667	5.41230E-001	1.01365E-004	0.00000E+000	5.48617E-005	5.99601E-002	5.41485E-001	3.57705E+000	9	...........
	17	0.24	5.55339E-001	1.00831E-004	0.00000E+000	5.59956E-005	5.99601E-002	5.55585E-001	3.57730E+000	9	...........
	18	0.253333	5.69181E-001	1.00646E-004	0.00000E+000	5.72857E-005	5.99601E-002	5.69443E-001	3.57730E+000	9	...........
	19	0.266667	5.82708E-001	1.01520E-004	0.00000E+000	5.91565E-005	5.99601E-002	5.82971E-001	3.57730E+000	9	...........
	20	0.28	5.95990E-001	1.01064E-004	0.00000E+000	6.02330E-005	5.99601E-002	5.96262E-001	3.57730E+000	9	...........
	21	0.293333	6.08976E-001	1.00608E-004	0.00000E+000	6.12681E-005	5.99601E-002	6.09252E-001	3.57730E+000	9	...........
	22	0.306667	6.21774E-001	1.00575E-004	0.00000E+000	6.25349E-005	5.99601E-002	6.21986E-001	3.57730E+000	9	...........
	23	0.32	6.34232E-001	9.98770E-005	0.00000E+000	6.33452E-005	5.99601E-002	6.34461E-001	3.57730E+000	9	...........
	24	0.333333	6.46494E-001	1.00209E-004	0.00000E+000	6.47847E-005	5.99601E-002	6.46698E-001	3.57730E+000	9	...........
	25	0.346667	6.58480E-001	1.01429E-004	0.00000E+000	6.67892E-005	5.99601E-002	6.58684E-001	3.57730E+000	9	...........
	26	0.36	6.70209E-001	1.00871E-004	0.00000E+000	6.76046E-005	5.99601E-002	6.70439E-001	3.57730E+000	9	...........
	27	0.373333	6.81691E-001	1.01923E-004	0.00000E+000	6.94801E-005	5.99601E-002	6.81922E-001	3.57730E+000	9	...........
	28	0.386667	6.92918E-001	1.02415E-004	0.00000E+000	7.09652E-005	5.99601E-002	6.93150E-001	3.57730E+000	9	...........
	29	0.4	7.03889E-001	1.02229E-004	0.00000E+000	7.19575E-005	5.99601E-002	7.04138E-001	3.57730E+000	9	...........
	30	0.413333	7.14648E-001	1.00864E-004	0.00000E+000	7.20820E-005	5.99601E-002	7.14896E-001	3.57730E+000	9	...........
	31	0.426667	7.25172E-001	1.01126E-004	0.00000E+000	7.33339E-005	5.99601E-002	7.25399E-001	3.57730E+000	9	...........
	32	0.44	7.35409E-001	1.00532E-004	0.00000E+000	7.39324E-005	5.99601E-002	7.35678E-001	3.57730E+000	9	...........
	33	0.453333	7.45451E-001	1.00924E-004	0.00000E+000	7.52339E-005	5.99601E-002	7.45724E-001	3.57730E+000	9	...........
	34	0.466667	7.55217E-001	9.97395E-005	0.00000E+000	7.53249E-005	5.99601E-002	7.55511E-001	3.57730E+000	9	...........
	35	0.48	7.64760E-001	1.00776E-004	0.00000E+000	7.70696E-005	5.99601E-002	7.65051E-001	3.57730E+000	9	...........
	36	0.493333	7.74076E-001	1.00923E-004	0.00000E+000	7.81221E-005	5.99601E-002	7.74382E-001	3.57730E+000	9	...........
	37	0.506667	7.83166E-001	1.00709E-004	0.00000E+000	7.88722E-005	5.99601E-002	7.83451E-001	3.57730E+000	9	...........
	38	0.52	7.92020E-001	1.01410E-004	0.00000E+000	8.03185E-005	5.99601E-002	7.92300E-001	3.57730E+000	9	...........
	39	0.533333	8.00644E-001	1.00841E-004	0.00000E+000	8.07375E-005	5.99601E-002	8.00905E-001	3.57730E+000	9	...........
	40	0.546667	8.08988E-001	1.01126E-004	0.00000E+000	8.18099E-005	5.99601E-002	8.09271E-001	3.57730E+000	9	...........
	41	0.56	8.17168E-001	1.00966E-004	0.00000E+000	8.25060E-005	5.99601E-002	8.17457E-001	3.57730E+000	9	...........
	42	0.573333	8.25100E-001	1.00672E-004	0.00000E+000	8.30644E-005	5.99601E-002	8.25398E-001	3.57730E+000	9	...........
	43	0.586667	8.32794E-001	1.01069E-004	0.00000E+000	8.41696E-005	5.99601E-002	8.33086E-001	3.57730E+000	9	...........
	44	0.6	8.40238E-001	9.99666E-005	0.00000E+000	8.39957E-005	5.99601E-002	8.40581E-001	3.57730E+000	9	...........
	45	0.613333	8.47545E-001	1.01323E-004	0.00000E+000	8.58759E-005	5.99601E-002	8.47868E-001	3.57730E+000	9	...........
	46	0.626667	8.54582E-001	1.00838E-004	0.00000E+000	8.61740E-005	5.99601E-002	8.54932E-001	3.57730E+000	9	...........
	47	0.64	8.61435E-001	1.01380E-004	0.00000E+000	8.73326E-005	5.99601E-002	8.61784E-001	3.57730E+000	9	...........
	48	0.653333	8.68100E-001	1.01191E-004	0.00000E+000	8.78437E-005	5.99601E-002	8.68436E-001	3.57730E+000	9	...........
	49	0.666667	8.74538E-001	1.00892E-004	0.00000E+000	8.82337E-005	5.99601E-002	8.74892E-001	3.57730E+000	9	...........
	50	0.68	8.80798E-001	1.00855E-004	0.00000E+000	8.88332E-005	5.99601E-002	8.81126E-001	3.57730E+000	9	...........
	51	0.693333	8.86850E-001	1.01203E-004	0.00000E+000	8.97522E-005	5.99601E-002	8.87178E-001	3.57730E+000	9	...........
	52	0.706667	8.92710E-001	1.00293E-004	0.00000E+000	8.95323E-005	5.99601E-002	8.93025E-001	3.57730E+000	9	...........
	53	0.72	8.98413E-001	1.01284E-004	0.00000E+000	9.09945E-005	5.99601E-002	8.98704E-001	3.57730E+000	9	...........
	54	0.733333	9.03948E-001	1.01114E-004	0.00000E+000	9.14015E-005	5.99601E-002	9.04260E-001	3.57730E+000	9	...........
	55	0.746667	9.09350E-001	1.00786E-004	0.00000E+000	9.16493E-005	5.99601E-002	9.09650E-001	3.57730E+000	9	...........
	56	0.76	9.14583E-001	1.01207E-004	0.00000E+000	9.25627E-005	5.99601E-002	9.14920E-001	3.57730E+000	9	...........
	57	0.773333	9.19696E-001	1.01690E-004	0.00000E+000	9.35238E-005	5.99601E-002	9.20020E-001	3.57730E+000	9	...........
	58	0.786667	9.24716E-001	1.00340E-004	0.00000E+000	9.27856E-005	5.99601E-002	9.25032E-001	3.57730E+000	9	...........
	59	0.8	9.29570E-001	1.01514E-004	0.00000E+000	9.43642E-005	5.99601E-002	9.29879E-001	3.57730E+000	9	...........
	60	0.813333	9.34307E-001	1.01642E-004	0.00000E+000	9.49648E-005	5.99601E-002	9.34649E-001	3.57730E+000	9	...........
	61	0.826667	9.38940E-001	1.01194E-004	0.00000E+000	9.50150E-005	5.99601E-002	9.39254E-001	3.57730E+000	9	...........
	62	0.84	9.43480E-001	1.01324E-004	0.00000E+000	9.55973E-005	5.99601E-002	9.43804E-001	3.57730E+000	9	...........
	63	0.853333	9.47977E-001	9.99520E-005	0.00000E+000	9.47522E-005	5.99601E-002	9.48303E-001	3.57730E+000	9	...........
	64	0.866667	9.52338E-001	1.00265E-004	0.00000E+000	9.54858E-005	5.99601E-002	9.52678E-001	3.57730E+000	9	...........
	65	0.88	9.56629E-001	1.01285E-004	0.00000E+000	9.68917E-005	5.99601E-002	9.56943E-001	3.57730E+000	9	...........
	66	0.893333	9.60810E-001	1.01756E-004	0.00000E+000	9.77677E-005	5.99601E-002	9.61164E-001	3.57730E+000	9	...........
	67	0.906667	9.64918E-001	1.00047E-004	0.00000E+000	9.65370E-005	5.99601E-002	9.65265E-001	3.57730E+000	9	...........
	68	0.92	9.68981E-001	1.01406E-004	0.00000E+000	9.82609E-005	5.99601E-002	9.69306E-001	3.57730E+000	9	...........
	69	0.933333	9.72965E-001	1.01757E-004	0.00000E+000	9.90055E-005	5.99601E-002	9.73295E-001	3.57730E+000	9	...........
	70	0.946667	9.76894E-001	1.00818E-004	0.00000E+000	9.84883E-005	5.99601E-002	9.77186E-001	3.57730E+000	9	...........
	71	0.96	9.80683E-001	1.01224E-004	0.00000E+000	9.92688E-005	5.99601E-002	9.80975E-001	3.57730E+000	9	...........
	72	0.97333	9.84423E-001	1.00854E-004	0.00000E+000	9.92833E-005	5.99601E-002	9.84739E-001	3.57730E+000	9	...........
	73	0.98667	9.88099E-001	1.00155E-004	0.00000E+000	9.89632E-005	5.99601E-002	9.88425E-001	3.57730E+000	9	...........
	74	1	9.91662E-001	1.01678E-004	0.00000E+000	1.00831E-004	5.99601E-002	9.91981E-001	3.57730E+000	9	...........
	75	1.01333	9.95119E-001	1.01612E-004	0.00000E+000	1.01116E-004	5.99601E-002	9.95477E-001	3.57730E+000	9	...........
	76	1.02667	9.98549E-001	1.00993E-004	0.00000E+000	1.00846E-004	5.99601E-002	9.98919E-001	3.57730E+000	9	...........
STARTTIMEOFFSET	QUANT	576.9566	Start Time Offset (s)
