EXPLAIN
TAG	PWR800_CHARGE
TITLE	LABEL	PWR Cyclic Charge Discharge (Cell) - Charge Step	Test &Identifier
DATE	LABEL	12-7-2017	Date
TIME	LABEL	16:29:58	Time
NOTES	NOTES	2	&Notes...
	supercap test cell
	6M KOH
PSTAT	PSTAT	IFC5000-01520	Potentiostat
CAPACITY	QUANT	1.00000E-003	Capacity (A-hr)
CELLTYPE	SELECTOR	1	&Cell Type
WORKINGCONNECTION	SELECTOR	0	&Working Lead
MAXCHARGETIME	VARIABLEANDUNITS	1.00000E+002	s	1.00000E+002	second(s)	Max &Charge Time
CHARGECURRENT	QUANT	1.00000E-004	&Charge Current (A) 
VOLTAGEFINISH	TWOPARAM	F	1.00000E-003	3.60000E+003	&Voltage Finish	 I (A) < 	Max Time(s)
SAMPLETIME	QUANT	1.00000E-002	Sa&mple Period (s)
CHARGESTOPAT1	MULTIPARAM	4	1.00000E+000	Charge Stop At &1	Voltage > Limit	V
CHARGESTOPAT2	MULTIPARAM	0	0.00000E+000	Charge Stop At &2	None	N/A
AESBHCSELECTOR	TOGGLE	F	Save Both Half Cells
IRCOMP	TOGGLE	F	IR &Measure
EOC	QUANT	0	Open Circuit (V)
SEQUENCER	TOGGLE	TRUE	Run as Sequence
PSTATMODEL	IQUANT	53	Pstat Model
PSTATSECTION	LABEL	IFC5000-01520	Pstat Section
PSTATSERIALNO	LABEL	01520	Pstat Serial Number
CTRLMODE	IQUANT	0	Control Mode
ELECTROMETER	IQUANT	1	RE=0 or CS=1
IESTAB	IQUANT	0	I/E Stability
CASPEED	IQUANT	4	Control Amp Speed
CONVENTION	IQUANT	1	Current Convention
ICHRANGE	IQUANT	2	Ich Range
ICHRANGEMODE	TOGGLE	T	Ich Auto Range
ICHOFFSETENABLE	TOGGLE	F	Ich Offset Enable
ICHOFFSET	QUANT	0	Ich Offset (V)
ICHFILTER	IQUANT	1	Ich Filter
VCHRANGE	IQUANT	2	Vch Range
VCHRANGEMODE	TOGGLE	T	Vch Auto Range
VCHOFFSETENABLE	TOGGLE	F	Vch Offset Enable
VCHOFFSET	QUANT	0	Vch Offset (V)
VCHFILTER	IQUANT	1	Vch Filter
IERANGELOWERLIMIT	IQUANT	9	I/E Range Lower Limit
IERANGEMODE	TOGGLE	F	I/E AutoRange
IERANGE	IQUANT	9	I/E Range
ACHSELECT	IQUANT	1	Ach Select
ACHRANGE	IQUANT	2	Ach Range
ACHOFFSETENABLE	TOGGLE	F	Ach Offset Enable
ACHOFFSET	QUANT	0	Ach Offset (V)
ACHFILTER	IQUANT	1	Ach Filter
CABLEID	IQUANT	14	Cable ID
DCCALDATE	LABEL	5-7-2017	DC Calibration Date
ACCALDATE	LABEL	12/3/2015	AC Calibration Date
FRAMEWORKVERSION	QUANT	7.01	Framework Version
INSTRUMENTVERSION	LABEL	4.00	Instrument Version
CURVE	TABLE	76
	Pt	T	Vf	Im	Vu	Pwr	Sig	Ach	Temp	IERange	Over
	#	s	V	A	V	W	V	V	deg C	#	bits
	0	0.013333	2.59520E-001	1.01584E-004	0.00000E+000	2.63630E-005	5.99601E-002	2.59605E-001	3.57670E+000	9	...........
	1	0.026667	2.82413E-001	1.01864E-004	0.00000E+000	2.87676E-005	5.99601E-002	2.82472E-001	3.57670E+000	9	...........
	2	0.04	3.03965E-001	1.01330E-004	0.00000E+000	3.08009E-005	5.99601E-002	3.04031E-001	3.57670E+000	9	...........
	3	0.053333	3.24545E-001	1.01079E-004	0.00000E+000	3.28048E-005	5.99601E-002	3.24613E-001	3.57670E+000	9	...........
	4	0.066667	3.44348E-001	1.01420E-004	0.00000E+000	3.49238E-005	5.99601E-002	3.44426E-001	3.57670E+000	9	...........
	5	0.08	3.63513E-001	9.98916E-005	0.00000E+000	3.63119E-005	5.99601E-002	3.63593E-001	3.57670E+000	9	...........
	6	0.093333	3.82112E-001	1.00909E-004	0.00000E+000	3.85588E-005	5.99601E-002	3.82195E-001	3.57670E+000	9	...........
	7	0.106667	4.00214E-001	1.01082E-004	0.00000E+000	4.04546E-005	5.99601E-002	4.00299E-001	3.57670E+000	9	...........
	8	0.12	4.17857E-001	1.00423E-004	0.00000E+000	4.19624E-005	5.99601E-002	4.17954E-001	3.57670E+000	9	...........
	9	0.133333	4.35081E-001	1.01878E-004	0.00000E+000	4.43253E-005	5.99601E-002	4.35182E-001	3.57720E+000	9	...........
	10	0.146667	4.51913E-001	1.01440E-004	0.00000E+000	4.58419E-005	5.99601E-002	4.52012E-001	3.57720E+000	9	...........
	11	0.16	4.68373E-001	1.00405E-004	0.00000E+000	4.70271E-005	5.99601E-002	4.68481E-001	3.57720E+000	9	...........
	12	0.173333	4.84477E-001	1.00516E-004	0.00000E+000	4.86975E-005	5.99601E-002	4.84581E-001	3.57720E+000	9	...........
	13	0.186667	5.00220E-001	1.00562E-004	0.00000E+000	5.03028E-005	5.99601E-002	5.00335E-001	3.57720E+000	9	...........
	14	0.2	5.15635E-001	1.01004E-004	0.00000E+000	5.20814E-005	5.99601E-002	5.15749E-001	3.57720E+000	9	...........
	15	0.213333	5.30633E-001	1.00605E-004	0.00000E+000	5.33845E-005	5.99601E-002	5.30782E-001	3.57720E+000	9	...........
	16	0.226667	5.45179E-001	1.01375E-004	0.00000E+000	5.52677E-005	5.99601E-002	5.45431E-001	3.57720E+000	9	...........
	17	0.24	5.59640E-001	1.00027E-004	0.00000E+000	5.59791E-005	5.99601E-002	5.59896E-001	3.57720E+000	9	...........
	18	0.253333	5.73806E-001	1.02533E-004	0.00000E+000	5.88339E-005	5.99601E-002	5.74053E-001	3.57720E+000	9	...........
	19	0.266667	5.87677E-001	1.00826E-004	0.00000E+000	5.92532E-005	5.99601E-002	5.87907E-001	3.57720E+000	9	...........
	20	0.28	6.01215E-001	1.01403E-004	0.00000E+000	6.09652E-005	5.99601E-002	6.01482E-001	3.57720E+000	9	...........
	21	0.293333	6.14515E-001	1.00268E-004	0.00000E+000	6.16160E-005	5.99601E-002	6.14767E-001	3.57720E+000	9	...........
	22	0.306667	6.27525E-001	1.00361E-004	0.00000E+000	6.29793E-005	5.99601E-002	6.27734E-001	3.57720E+000	9	...........
	23	0.32	6.40207E-001	1.01490E-004	0.00000E+000	6.49745E-005	5.99601E-002	6.40454E-001	3.57720E+000	9	...........
	24	0.333333	6.52623E-001	1.01614E-004	0.00000E+000	6.63155E-005	5.99601E-002	6.52873E-001	3.57720E+000	9	...........
	25	0.346667	6.64780E-001	1.01852E-004	0.00000E+000	6.77094E-005	5.99601E-002	6.65015E-001	3.57720E+000	9	...........
	26	0.36	6.76650E-001	1.02342E-004	0.00000E+000	6.92498E-005	5.99601E-002	6.76885E-001	3.57720E+000	9	...........
	27	0.373333	6.88182E-001	1.00856E-004	0.00000E+000	6.94075E-005	5.99601E-002	6.88438E-001	3.57720E+000	9	...........
	28	0.386667	6.99509E-001	1.01403E-004	0.00000E+000	7.09325E-005	5.99601E-002	6.99751E-001	3.57720E+000	9	...........
	29	0.4	7.10548E-001	1.01223E-004	0.00000E+000	7.19239E-005	5.99601E-002	7.10775E-001	3.57720E+000	9	...........
	30	0.413333	7.21350E-001	1.00440E-004	0.00000E+000	7.24522E-005	5.99601E-002	7.21558E-001	3.57720E+000	9	...........
	31	0.426667	7.31848E-001	1.00533E-004	0.00000E+000	7.35752E-005	5.99601E-002	7.32056E-001	3.57720E+000	9	...........
	32	0.44	7.42099E-001	1.00714E-004	0.00000E+000	7.47395E-005	5.99601E-002	7.42315E-001	3.57720E+000	9	...........
	33	0.453333	7.52072E-001	1.00121E-004	0.00000E+000	7.52980E-005	5.99601E-002	7.52322E-001	3.57720E+000	9	...........
	34	0.466667	7.61802E-001	1.01238E-004	0.00000E+000	7.71230E-005	5.99601E-002	7.62070E-001	3.57720E+000	9	...........
	35	0.48	7.71302E-001	1.00970E-004	0.00000E+000	7.78782E-005	5.99601E-002	7.71550E-001	3.57720E+000	9	...........
	36	0.493333	7.80507E-001	1.01373E-004	0.00000E+000	7.91225E-005	5.99601E-002	7.80772E-001	3.57720E+000	9	...........
	37	0.506667	7.89477E-001	1.01461E-004	0.00000E+000	8.01008E-005	5.99601E-002	7.89730E-001	3.57720E+000	9	...........
	38	0.52	7.98234E-001	1.02131E-004	0.00000E+000	8.15241E-005	5.99601E-002	7.98463E-001	3.57720E+000	9	...........
	39	0.533333	8.06672E-001	1.01437E-004	0.00000E+000	8.18261E-005	5.99601E-002	8.06955E-001	3.57720E+000	9	...........
	40	0.546667	8.14893E-001	1.00488E-004	0.00000E+000	8.18865E-005	5.99601E-002	8.15156E-001	3.57720E+000	9	...........
	41	0.56	8.22903E-001	1.01717E-004	0.00000E+000	8.37032E-005	5.99601E-002	8.23182E-001	3.57720E+000	9	...........
	42	0.573333	8.30643E-001	1.00593E-004	0.00000E+000	8.35567E-005	5.99601E-002	8.30916E-001	3.57720E+000	9	...........
	43	0.586667	8.38140E-001	9.98551E-005	0.00000E+000	8.36926E-005	5.99601E-002	8.38442E-001	3.57720E+000	9	...........
	44	0.6	8.45473E-001	1.00846E-004	0.00000E+000	8.52625E-005	5.99601E-002	8.45761E-001	3.57720E+000	9	...........
	45	0.613333	8.52540E-001	1.00029E-004	0.00000E+000	8.52788E-005	5.99601E-002	8.52843E-001	3.57720E+000	9	...........
	46	0.626667	8.59387E-001	9.90153E-005	0.00000E+000	8.50925E-005	5.99601E-002	8.59704E-001	3.57720E+000	9	...........
	47	0.64	8.66010E-001	1.01127E-004	0.00000E+000	8.75772E-005	5.99601E-002	8.66327E-001	3.57720E+000	9	...........
	48	0.653333	8.72484E-001	1.01016E-004	0.00000E+000	8.81346E-005	5.99601E-002	8.72797E-001	3.57720E+000	9	...........
	49	0.666667	8.78709E-001	1.00825E-004	0.00000E+000	8.85959E-005	5.99601E-002	8.79014E-001	3.57720E+000	9	...........
	50	0.68	8.84761E-001	1.01086E-004	0.00000E+000	8.94366E-005	5.99601E-002	8.85087E-001	3.57720E+000	9	...........
	51	0.693333	8.90626E-001	1.01551E-004	0.00000E+000	9.04442E-005	5.99601E-002	8.90951E-001	3.57720E+000	9	...........
	52	0.706667	8.96336E-001	1.01908E-004	0.00000E+000	9.13435E-005	5.99601E-002	8.96689E-001	3.57720E+000	9	...........
	53	0.72	9.01875E-001	1.01053E-004	0.00000E+000	9.11374E-005	5.99601E-002	9.02222E-001	3.57720E+000	9	...........
	54	0.733333	9.07287E-001	1.01076E-004	0.00000E+000	9.17051E-005	5.99601E-002	9.07627E-001	3.57720E+000	9	...........
	55	0.746667	9.12559E-001	1.01234E-004	0.00000E+000	9.23815E-005	5.99601E-002	9.12908E-001	3.57720E+000	9	...........
	56	0.76	9.17694E-001	1.01136E-004	0.00000E+000	9.28115E-005	5.99601E-002	9.18060E-001	3.57720E+000	9	...........
	57	0.773333	9.22777E-001	1.00716E-004	0.00000E+000	9.29382E-005	5.99601E-002	9.23103E-001	3.57720E+000	9	...........
	58	0.786667	9.27698E-001	1.00610E-004	0.00000E+000	9.33361E-005	5.99601E-002	9.28028E-001	3.57720E+000	9	...........
	59	0.8	9.32532E-001	1.01190E-004	0.00000E+000	9.43627E-005	5.99601E-002	9.32845E-001	3.57720E+000	9	...........
	60	0.813333	9.37262E-001	1.02243E-004	0.00000E+000	9.58285E-005	5.99601E-002	9.37591E-001	3.57720E+000	9	...........
	61	0.826667	9.41885E-001	9.98561E-005	0.00000E+000	9.40530E-005	5.99601E-002	9.42219E-001	3.57720E+000	9	...........
	62	0.84	9.46473E-001	1.01123E-004	0.00000E+000	9.57102E-005	5.99601E-002	9.46789E-001	3.57720E+000	9	...........
	63	0.853333	9.50945E-001	1.00477E-004	0.00000E+000	9.55482E-005	5.99601E-002	9.51300E-001	3.57720E+000	9	...........
	64	0.866667	9.55351E-001	9.99072E-005	0.00000E+000	9.54464E-005	5.99601E-002	9.55673E-001	3.57720E+000	9	...........
	65	0.88	9.59660E-001	1.00491E-004	0.00000E+000	9.64368E-005	5.99601E-002	9.60003E-001	3.57720E+000	9	...........
	66	0.893333	9.63900E-001	1.00521E-004	0.00000E+000	9.68921E-005	5.99601E-002	9.64245E-001	3.57720E+000	9	...........
	67	0.906667	9.68052E-001	1.00743E-004	0.00000E+000	9.75242E-005	5.99601E-002	9.68390E-001	3.57720E+000	9	...........
	68	0.92	9.72153E-001	1.01164E-004	0.00000E+000	9.83466E-005	5.99601E-002	9.72501E-001	3.57720E+000	9	...........
	69	0.933333	9.76188E-001	1.02097E-004	0.00000E+000	9.96661E-005	5.99601E-002	9.76511E-001	3.57720E+000	9	...........
	70	0.946667	9.80122E-001	1.01843E-004	0.00000E+000	9.98186E-005	5.99601E-002	9.80435E-001	3.57720E+000	9	...........
	71	0.96	9.83948E-001	1.02107E-004	0.00000E+000	1.00468E-004	5.99601E-002	9.84296E-001	3.57720E+000	9	...........
	72	0.97333	9.87711E-001	1.00410E-004	0.00000E+000	9.91765E-005	5.99601E-002	9.88059E-001	3.57720E+000	9	...........
	73	0.98667	9.91387E-001	9.97124E-005	0.00000E+000	9.88535E-005	5.99601E-002	9.91732E-001	3.57720E+000	9	...........
	74	1	9.94983E-001	1.01267E-004	0.00000E+000	1.00759E-004	5.99601E-002	9.95331E-001	3.57720E+000	9	...........
	75	1.01333	9.98518E-001	1.00173E-004	0.00000E+000	1.00024E-004	5.99601E-002	9.98869E-001	3.57720E+000	9	...........
STARTTIMEOFFSET	QUANT	852.1222	Start Time Offset (s)
