EXPLAIN
TAG	PWR800_CHARGE
TITLE	LABEL	PWR Cyclic Charge Discharge (Cell) - Charge Step	Test &Identifier
DATE	LABEL	12-7-2017	Date
TIME	LABEL	16:12:46	Time
NOTES	NOTES	2	&Notes...
	supercap test cell
	6M KOH
PSTAT	PSTAT	IFC5000-01520	Potentiostat
CAPACITY	QUANT	1.00000E-003	Capacity (A-hr)
CELLTYPE	SELECTOR	1	&Cell Type
WORKINGCONNECTION	SELECTOR	0	&Working Lead
MAXCHARGETIME	VARIABLEANDUNITS	1.00000E+002	s	1.00000E+002	second(s)	Max &Charge Time
CHARGECURRENT	QUANT	1.00000E-004	&Charge Current (A) 
VOLTAGEFINISH	TWOPARAM	F	1.00000E-003	3.60000E+003	&Voltage Finish	 I (A) < 	Max Time(s)
SAMPLETIME	QUANT	1.00000E-002	Sa&mple Period (s)
CHARGESTOPAT1	MULTIPARAM	4	1.00000E+000	Charge Stop At &1	Voltage > Limit	V
CHARGESTOPAT2	MULTIPARAM	0	0.00000E+000	Charge Stop At &2	None	N/A
AESBHCSELECTOR	TOGGLE	F	Save Both Half Cells
IRCOMP	TOGGLE	F	IR &Measure
EOC	QUANT	0	Open Circuit (V)
SEQUENCER	TOGGLE	TRUE	Run as Sequence
PSTATMODEL	IQUANT	53	Pstat Model
PSTATSECTION	LABEL	IFC5000-01520	Pstat Section
PSTATSERIALNO	LABEL	01520	Pstat Serial Number
CTRLMODE	IQUANT	0	Control Mode
ELECTROMETER	IQUANT	1	RE=0 or CS=1
IESTAB	IQUANT	0	I/E Stability
CASPEED	IQUANT	4	Control Amp Speed
CONVENTION	IQUANT	1	Current Convention
ICHRANGE	IQUANT	2	Ich Range
ICHRANGEMODE	TOGGLE	T	Ich Auto Range
ICHOFFSETENABLE	TOGGLE	F	Ich Offset Enable
ICHOFFSET	QUANT	0	Ich Offset (V)
ICHFILTER	IQUANT	1	Ich Filter
VCHRANGE	IQUANT	2	Vch Range
VCHRANGEMODE	TOGGLE	T	Vch Auto Range
VCHOFFSETENABLE	TOGGLE	F	Vch Offset Enable
VCHOFFSET	QUANT	0	Vch Offset (V)
VCHFILTER	IQUANT	1	Vch Filter
IERANGELOWERLIMIT	IQUANT	9	I/E Range Lower Limit
IERANGEMODE	TOGGLE	F	I/E AutoRange
IERANGE	IQUANT	9	I/E Range
ACHSELECT	IQUANT	1	Ach Select
ACHRANGE	IQUANT	2	Ach Range
ACHOFFSETENABLE	TOGGLE	F	Ach Offset Enable
ACHOFFSET	QUANT	0	Ach Offset (V)
ACHFILTER	IQUANT	1	Ach Filter
CABLEID	IQUANT	14	Cable ID
DCCALDATE	LABEL	5-7-2017	DC Calibration Date
ACCALDATE	LABEL	12/3/2015	AC Calibration Date
FRAMEWORKVERSION	QUANT	7.01	Framework Version
INSTRUMENTVERSION	LABEL	4.00	Instrument Version
CURVE	TABLE	82
	Pt	T	Vf	Im	Vu	Pwr	Sig	Ach	Temp	IERange	Over
	#	s	V	A	V	W	V	V	deg C	#	bits
	0	0.013333	2.59955E-001	1.01033E-004	0.00000E+000	2.62642E-005	5.99601E-002	2.60038E-001	3.57870E+000	9	...........
	1	0.026667	2.82599E-001	1.00767E-004	0.00000E+000	2.84766E-005	5.99601E-002	2.82663E-001	3.57870E+000	9	...........
	2	0.04	3.03625E-001	1.00301E-004	0.00000E+000	3.04539E-005	5.99601E-002	3.03695E-001	3.57870E+000	9	...........
	3	0.053333	3.23417E-001	1.01508E-004	0.00000E+000	3.28293E-005	5.99601E-002	3.23486E-001	3.57870E+000	9	...........
	4	0.066667	3.42171E-001	1.01052E-004	0.00000E+000	3.45771E-005	5.99601E-002	3.42239E-001	3.57870E+000	9	...........
	5	0.08	3.60054E-001	1.00364E-004	0.00000E+000	3.61363E-005	5.99601E-002	3.60130E-001	3.57870E+000	9	...........
	6	0.093333	3.77181E-001	1.00665E-004	0.00000E+000	3.79687E-005	5.99601E-002	3.77262E-001	3.57870E+000	9	...........
	7	0.106667	3.93637E-001	1.00945E-004	0.00000E+000	3.97356E-005	5.99601E-002	3.93718E-001	3.57870E+000	9	...........
	8	0.12	4.09506E-001	1.01816E-004	0.00000E+000	4.16942E-005	5.99601E-002	4.09597E-001	3.57870E+000	9	...........
	9	0.133333	4.24857E-001	1.02049E-004	0.00000E+000	4.33564E-005	5.99601E-002	4.24950E-001	3.57870E+000	9	...........
	10	0.146667	4.39747E-001	1.00489E-004	0.00000E+000	4.41895E-005	5.99601E-002	4.39845E-001	3.57870E+000	9	...........
	11	0.16	4.54215E-001	1.00432E-004	0.00000E+000	4.56179E-005	5.99601E-002	4.54312E-001	3.57870E+000	9	...........
	12	0.173333	4.68322E-001	1.00742E-004	0.00000E+000	4.71796E-005	5.99601E-002	4.68421E-001	3.57870E+000	9	...........
	13	0.186667	4.82084E-001	1.00723E-004	0.00000E+000	4.85569E-005	5.99601E-002	4.82189E-001	3.57870E+000	9	...........
	14	0.2	4.95532E-001	1.01156E-004	0.00000E+000	5.01262E-005	5.99601E-002	4.95638E-001	3.57870E+000	9	...........
	15	0.213333	5.08696E-001	1.01069E-004	0.00000E+000	5.14133E-005	5.99601E-002	5.08809E-001	3.57870E+000	9	...........
	16	0.226667	5.21596E-001	1.01565E-004	0.00000E+000	5.29758E-005	5.99601E-002	5.21715E-001	3.57870E+000	9	...........
	17	0.24	5.34074E-001	1.01630E-004	0.00000E+000	5.42782E-005	5.99601E-002	5.34273E-001	3.57870E+000	9	...........
	18	0.253333	5.46351E-001	1.01531E-004	0.00000E+000	5.54718E-005	5.99601E-002	5.46576E-001	3.57870E+000	9	...........
	19	0.266667	5.58524E-001	1.00568E-004	0.00000E+000	5.61695E-005	5.99601E-002	5.58751E-001	3.57870E+000	9	...........
	20	0.28	5.70514E-001	1.01820E-004	0.00000E+000	5.80897E-005	5.99601E-002	5.70746E-001	3.57870E+000	9	...........
	21	0.293333	5.82248E-001	1.01051E-004	0.00000E+000	5.88368E-005	5.99601E-002	5.82515E-001	3.57870E+000	9	...........
	22	0.306667	5.93865E-001	1.00725E-004	0.00000E+000	5.98171E-005	5.99601E-002	5.94116E-001	3.57870E+000	9	...........
	23	0.32	6.05243E-001	1.01630E-004	0.00000E+000	6.15111E-005	5.99601E-002	6.05505E-001	3.57870E+000	9	...........
	24	0.333333	6.16484E-001	1.00443E-004	0.00000E+000	6.19214E-005	5.99601E-002	6.16741E-001	3.57870E+000	9	...........
	25	0.346667	6.27546E-001	1.00744E-004	0.00000E+000	6.32214E-005	5.99601E-002	6.27784E-001	3.57870E+000	9	...........
	26	0.36	6.38387E-001	1.00740E-004	0.00000E+000	6.43109E-005	5.99601E-002	6.38662E-001	3.57870E+000	9	...........
	27	0.373333	6.49106E-001	1.01103E-004	0.00000E+000	6.56268E-005	5.99601E-002	6.49379E-001	3.57870E+000	9	...........
	28	0.386667	6.59655E-001	1.00502E-004	0.00000E+000	6.62967E-005	5.99601E-002	6.59919E-001	3.57870E+000	9	...........
	29	0.4	6.70049E-001	1.01907E-004	0.00000E+000	6.82824E-005	5.99601E-002	6.70324E-001	3.57870E+000	9	...........
	30	0.413333	6.80258E-001	1.00609E-004	0.00000E+000	6.84404E-005	5.99601E-002	6.80530E-001	3.57870E+000	9	...........
	31	0.426667	6.90312E-001	1.00939E-004	0.00000E+000	6.96791E-005	5.99601E-002	6.90603E-001	3.57870E+000	9	...........
	32	0.44	7.00216E-001	1.00406E-004	0.00000E+000	7.03061E-005	5.99601E-002	7.00514E-001	3.57870E+000	9	...........
	33	0.453333	7.09944E-001	9.95780E-005	0.00000E+000	7.06948E-005	5.99601E-002	7.10233E-001	3.57870E+000	9	...........
	34	0.466667	7.19582E-001	1.01513E-004	0.00000E+000	7.30468E-005	5.99601E-002	7.19835E-001	3.57870E+000	9	...........
	35	0.48	7.28997E-001	1.00977E-004	0.00000E+000	7.36121E-005	5.99601E-002	7.29284E-001	3.57780E+000	9	...........
	36	0.493333	7.38256E-001	1.00792E-004	0.00000E+000	7.44101E-005	5.99601E-002	7.38554E-001	3.57750E+000	9	...........
	37	0.506667	7.47406E-001	1.00998E-004	0.00000E+000	7.54866E-005	5.99601E-002	7.47669E-001	3.57750E+000	9	...........
	38	0.52	7.56359E-001	1.01128E-004	0.00000E+000	7.64892E-005	5.99601E-002	7.56652E-001	3.57750E+000	9	...........
	39	0.533333	7.65160E-001	1.00599E-004	0.00000E+000	7.69744E-005	5.99601E-002	7.65449E-001	3.57750E+000	9	...........
	40	0.546667	7.73802E-001	1.00938E-004	0.00000E+000	7.81058E-005	5.99601E-002	7.74109E-001	3.57750E+000	9	...........
	41	0.56	7.82289E-001	1.00004E-004	0.00000E+000	7.82321E-005	5.99601E-002	7.82570E-001	3.57750E+000	9	...........
	42	0.573333	7.90611E-001	1.00695E-004	0.00000E+000	7.96105E-005	5.99601E-002	7.90912E-001	3.57750E+000	9	...........
	43	0.586667	7.98787E-001	1.01254E-004	0.00000E+000	8.08806E-005	5.99601E-002	7.99070E-001	3.57750E+000	9	...........
	44	0.6	8.06773E-001	1.01468E-004	0.00000E+000	8.18616E-005	5.99601E-002	8.07093E-001	3.57750E+000	9	...........
	45	0.613333	8.14585E-001	1.01693E-004	0.00000E+000	8.28376E-005	5.99601E-002	8.14928E-001	3.57750E+000	9	...........
	46	0.626667	8.22284E-001	1.01361E-004	0.00000E+000	8.33472E-005	5.99601E-002	8.22588E-001	3.57750E+000	9	...........
	47	0.64	8.29777E-001	1.00463E-004	0.00000E+000	8.33615E-005	5.99601E-002	8.30086E-001	3.57750E+000	9	...........
	48	0.653333	8.37108E-001	1.00663E-004	0.00000E+000	8.42655E-005	5.99601E-002	8.37445E-001	3.57750E+000	9	...........
	49	0.666667	8.44300E-001	1.01346E-004	0.00000E+000	8.55664E-005	5.99601E-002	8.44620E-001	3.57750E+000	9	...........
	50	0.68	8.51331E-001	1.00753E-004	0.00000E+000	8.57743E-005	5.99601E-002	8.51664E-001	3.57750E+000	9	...........
	51	0.693333	8.58171E-001	1.01262E-004	0.00000E+000	8.68998E-005	5.99601E-002	8.58524E-001	3.57750E+000	9	...........
	52	0.706667	8.64877E-001	1.00544E-004	0.00000E+000	8.69580E-005	5.99601E-002	8.65216E-001	3.57750E+000	9	...........
	53	0.72	8.71412E-001	1.01226E-004	0.00000E+000	8.82098E-005	5.99601E-002	8.71772E-001	3.57750E+000	9	...........
	54	0.733333	8.77820E-001	1.00622E-004	0.00000E+000	8.83279E-005	5.99601E-002	8.78152E-001	3.57750E+000	9	...........
	55	0.746667	8.84036E-001	1.01235E-004	0.00000E+000	8.94950E-005	5.99601E-002	8.84378E-001	3.57750E+000	9	...........
	56	0.76	8.90085E-001	1.01627E-004	0.00000E+000	9.04570E-005	5.99601E-002	8.90432E-001	3.57750E+000	9	...........
	57	0.773333	8.96001E-001	1.01018E-004	0.00000E+000	9.05121E-005	5.99601E-002	8.96348E-001	3.57750E+000	9	...........
	58	0.786667	9.01748E-001	1.00993E-004	0.00000E+000	9.10701E-005	5.99601E-002	9.02104E-001	3.57750E+000	9	...........
	59	0.8	9.07329E-001	1.01165E-004	0.00000E+000	9.17897E-005	5.99601E-002	9.07710E-001	3.57750E+000	9	...........
	60	0.813333	9.12819E-001	1.00799E-004	0.00000E+000	9.20113E-005	5.99601E-002	9.13143E-001	3.57750E+000	9	...........
	61	0.826667	9.18111E-001	1.00638E-004	0.00000E+000	9.23964E-005	5.99601E-002	9.18467E-001	3.57750E+000	9	...........
	62	0.84	9.23355E-001	1.01024E-004	0.00000E+000	9.32811E-005	5.99601E-002	9.23629E-001	3.57750E+000	9	...........
	63	0.853333	9.28355E-001	1.00446E-004	0.00000E+000	9.32494E-005	5.99601E-002	9.28664E-001	3.57750E+000	9	...........
	64	0.866667	9.33261E-001	1.00541E-004	0.00000E+000	9.38307E-005	5.99601E-002	9.33568E-001	3.57750E+000	9	...........
	65	0.88	9.37996E-001	1.00957E-004	0.00000E+000	9.46976E-005	5.99601E-002	9.38323E-001	3.57750E+000	9	...........
	66	0.893333	9.42621E-001	1.00532E-004	0.00000E+000	9.47639E-005	5.99601E-002	9.42969E-001	3.57750E+000	9	...........
	67	0.906667	9.47169E-001	1.01190E-004	0.00000E+000	9.58438E-005	5.99601E-002	9.47495E-001	3.57750E+000	9	...........
	68	0.92	9.51543E-001	1.01278E-004	0.00000E+000	9.63707E-005	5.99601E-002	9.51885E-001	3.57750E+000	9	...........
	69	0.933333	9.55837E-001	1.00464E-004	0.00000E+000	9.60268E-005	5.99601E-002	9.56155E-001	3.57750E+000	9	...........
	70	0.946667	9.59991E-001	1.01017E-004	0.00000E+000	9.69752E-005	5.99601E-002	9.60345E-001	3.57750E+000	9	...........
	71	0.96	9.64058E-001	1.00283E-004	0.00000E+000	9.66789E-005	5.99601E-002	9.64410E-001	3.57750E+000	9	...........
	72	0.97333	9.68014E-001	1.00409E-004	0.00000E+000	9.71977E-005	5.99601E-002	9.68366E-001	3.57750E+000	9	...........
	73	0.98667	9.71906E-001	1.00933E-004	0.00000E+000	9.80978E-005	5.99601E-002	9.72276E-001	3.57750E+000	9	...........
	74	1	9.75708E-001	1.00895E-004	0.00000E+000	9.84440E-005	5.99601E-002	9.76055E-001	3.57750E+000	9	...........
	75	1.01333	9.79382E-001	1.01498E-004	0.00000E+000	9.94055E-005	5.99601E-002	9.79744E-001	3.57750E+000	9	...........
	76	1.02667	9.82982E-001	1.00373E-004	0.00000E+000	9.86648E-005	5.99601E-002	9.83321E-001	3.57750E+000	9	...........
	77	1.04	9.86447E-001	1.01634E-004	0.00000E+000	1.00256E-004	5.99601E-002	9.86830E-001	3.57750E+000	9	...........
	78	1.05333	9.89886E-001	1.01123E-004	0.00000E+000	1.00100E-004	5.99601E-002	9.90250E-001	3.57750E+000	9	...........
	79	1.06667	9.93197E-001	1.00568E-004	0.00000E+000	9.98836E-005	5.99601E-002	9.93542E-001	3.57750E+000	9	...........
	80	1.08	9.96430E-001	1.01340E-004	0.00000E+000	1.00978E-004	5.99601E-002	9.96784E-001	3.57750E+000	9	...........
	81	1.09	9.99207E-001	1.00647E-004	0.00000E+000	1.00567E-004	5.99601E-002	9.99551E-001	3.57750E+000	9	...........
STARTTIMEOFFSET	QUANT	114.7583	Start Time Offset (s)
