EXPLAIN
TAG	PWR800_CHARGE
TITLE	LABEL	PWR Cyclic Charge Discharge (Cell) - Charge Step	Test &Identifier
DATE	LABEL	12-7-2017	Date
TIME	LABEL	16:54:16	Time
NOTES	NOTES	2	&Notes...
	supercap test cell
	6M KOH
PSTAT	PSTAT	IFC5000-01520	Potentiostat
CAPACITY	QUANT	1.00000E-003	Capacity (A-hr)
CELLTYPE	SELECTOR	1	&Cell Type
WORKINGCONNECTION	SELECTOR	0	&Working Lead
MAXCHARGETIME	VARIABLEANDUNITS	1.00000E+002	s	1.00000E+002	second(s)	Max &Charge Time
CHARGECURRENT	QUANT	1.00000E-004	&Charge Current (A) 
VOLTAGEFINISH	TWOPARAM	F	1.00000E-003	3.60000E+003	&Voltage Finish	 I (A) < 	Max Time(s)
SAMPLETIME	QUANT	1.00000E-002	Sa&mple Period (s)
CHARGESTOPAT1	MULTIPARAM	4	1.00000E+000	Charge Stop At &1	Voltage > Limit	V
CHARGESTOPAT2	MULTIPARAM	0	0.00000E+000	Charge Stop At &2	None	N/A
AESBHCSELECTOR	TOGGLE	F	Save Both Half Cells
IRCOMP	TOGGLE	F	IR &Measure
EOC	QUANT	0	Open Circuit (V)
SEQUENCER	TOGGLE	TRUE	Run as Sequence
PSTATMODEL	IQUANT	53	Pstat Model
PSTATSECTION	LABEL	IFC5000-01520	Pstat Section
PSTATSERIALNO	LABEL	01520	Pstat Serial Number
CTRLMODE	IQUANT	0	Control Mode
ELECTROMETER	IQUANT	1	RE=0 or CS=1
IESTAB	IQUANT	0	I/E Stability
CASPEED	IQUANT	4	Control Amp Speed
CONVENTION	IQUANT	1	Current Convention
ICHRANGE	IQUANT	2	Ich Range
ICHRANGEMODE	TOGGLE	T	Ich Auto Range
ICHOFFSETENABLE	TOGGLE	F	Ich Offset Enable
ICHOFFSET	QUANT	0	Ich Offset (V)
ICHFILTER	IQUANT	1	Ich Filter
VCHRANGE	IQUANT	2	Vch Range
VCHRANGEMODE	TOGGLE	T	Vch Auto Range
VCHOFFSETENABLE	TOGGLE	F	Vch Offset Enable
VCHOFFSET	QUANT	0	Vch Offset (V)
VCHFILTER	IQUANT	1	Vch Filter
IERANGELOWERLIMIT	IQUANT	9	I/E Range Lower Limit
IERANGEMODE	TOGGLE	F	I/E AutoRange
IERANGE	IQUANT	9	I/E Range
ACHSELECT	IQUANT	1	Ach Select
ACHRANGE	IQUANT	2	Ach Range
ACHOFFSETENABLE	TOGGLE	F	Ach Offset Enable
ACHOFFSET	QUANT	0	Ach Offset (V)
ACHFILTER	IQUANT	1	Ach Filter
CABLEID	IQUANT	14	Cable ID
DCCALDATE	LABEL	5-7-2017	DC Calibration Date
ACCALDATE	LABEL	12/3/2015	AC Calibration Date
FRAMEWORKVERSION	QUANT	7.01	Framework Version
INSTRUMENTVERSION	LABEL	4.00	Instrument Version
CURVE	TABLE	74
	Pt	T	Vf	Im	Vu	Pwr	Sig	Ach	Temp	IERange	Over
	#	s	V	A	V	W	V	V	deg C	#	bits
	0	0.013333	2.60020E-001	1.00749E-004	0.00000E+000	2.61967E-005	5.99601E-002	2.60093E-001	3.57630E+000	9	...........
	1	0.026667	2.83092E-001	1.01024E-004	0.00000E+000	2.85991E-005	5.99601E-002	2.83153E-001	3.57630E+000	9	...........
	2	0.04	3.04936E-001	1.00666E-004	0.00000E+000	3.06966E-005	5.99601E-002	3.04996E-001	3.57630E+000	9	...........
	3	0.053333	3.25898E-001	9.98436E-005	0.00000E+000	3.25389E-005	5.99601E-002	3.25964E-001	3.57630E+000	9	...........
	4	0.066667	3.46162E-001	1.00535E-004	0.00000E+000	3.48016E-005	5.99601E-002	3.46228E-001	3.57630E+000	9	...........
	5	0.08	3.65826E-001	1.00767E-004	0.00000E+000	3.68631E-005	5.99601E-002	3.65898E-001	3.57630E+000	9	...........
	6	0.093333	3.84977E-001	1.00840E-004	0.00000E+000	3.88210E-005	5.99601E-002	3.85053E-001	3.57630E+000	9	...........
	7	0.106667	4.03662E-001	1.01572E-004	0.00000E+000	4.10008E-005	5.99601E-002	4.03741E-001	3.57630E+000	9	...........
	8	0.12	4.21903E-001	1.01279E-004	0.00000E+000	4.27300E-005	5.99601E-002	4.21991E-001	3.57630E+000	9	...........
	9	0.133333	4.39745E-001	1.00824E-004	0.00000E+000	4.43369E-005	5.99601E-002	4.39836E-001	3.57630E+000	9	...........
	10	0.146667	4.57193E-001	1.01527E-004	0.00000E+000	4.64176E-005	5.99601E-002	4.57284E-001	3.57630E+000	9	...........
	11	0.16	4.74258E-001	1.01300E-004	0.00000E+000	4.80425E-005	5.99601E-002	4.74355E-001	3.57630E+000	9	...........
	12	0.173333	4.90947E-001	1.00961E-004	0.00000E+000	4.95663E-005	5.99601E-002	4.91049E-001	3.57630E+000	9	...........
	13	0.186667	5.07281E-001	1.01311E-004	0.00000E+000	5.13930E-005	5.99601E-002	5.07384E-001	3.57630E+000	9	...........
	14	0.2	5.23249E-001	1.00848E-004	0.00000E+000	5.27686E-005	5.99601E-002	5.23361E-001	3.57630E+000	9	...........
	15	0.213333	5.38657E-001	1.01607E-004	0.00000E+000	5.47310E-005	5.99601E-002	5.38842E-001	3.57630E+000	9	...........
	16	0.226667	5.53855E-001	1.00748E-004	0.00000E+000	5.57998E-005	5.99601E-002	5.54080E-001	3.57630E+000	9	...........
	17	0.24	5.68800E-001	1.01514E-004	0.00000E+000	5.77411E-005	5.99601E-002	5.69015E-001	3.57630E+000	9	...........
	18	0.253333	5.83381E-001	1.01252E-004	0.00000E+000	5.90686E-005	5.99601E-002	5.83621E-001	3.57630E+000	9	...........
	19	0.266667	5.97632E-001	1.01866E-004	0.00000E+000	6.08784E-005	5.99601E-002	5.97882E-001	3.57630E+000	9	...........
	20	0.28	6.11554E-001	1.00247E-004	0.00000E+000	6.13063E-005	5.99601E-002	6.11768E-001	3.57630E+000	9	...........
	21	0.293333	6.25137E-001	1.01721E-004	0.00000E+000	6.35897E-005	5.99601E-002	6.25353E-001	3.57630E+000	9	...........
	22	0.306667	6.38371E-001	1.01038E-004	0.00000E+000	6.44995E-005	5.99601E-002	6.38607E-001	3.57630E+000	9	...........
	23	0.32	6.51281E-001	9.97228E-005	0.00000E+000	6.49475E-005	5.99601E-002	6.51509E-001	3.57630E+000	9	...........
	24	0.333333	6.63862E-001	1.00013E-004	0.00000E+000	6.63951E-005	5.99601E-002	6.64120E-001	3.57630E+000	9	...........
	25	0.346667	6.76139E-001	1.01186E-004	0.00000E+000	6.84155E-005	5.99601E-002	6.76407E-001	3.57630E+000	9	...........
	26	0.36	6.88073E-001	1.00890E-004	0.00000E+000	6.94195E-005	5.99601E-002	6.88350E-001	3.57630E+000	9	...........
	27	0.373333	6.99726E-001	9.98989E-005	0.00000E+000	6.99019E-005	5.99601E-002	6.99999E-001	3.57630E+000	9	...........
	28	0.386667	7.11029E-001	1.00713E-004	0.00000E+000	7.16096E-005	5.99601E-002	7.11323E-001	3.57630E+000	9	...........
	29	0.4	7.22115E-001	1.00747E-004	0.00000E+000	7.27508E-005	5.99601E-002	7.22376E-001	3.57630E+000	9	...........
	30	0.413333	7.32845E-001	1.01522E-004	0.00000E+000	7.44000E-005	5.99601E-002	7.33099E-001	3.57630E+000	9	...........
	31	0.426667	7.43270E-001	1.00771E-004	0.00000E+000	7.49000E-005	5.99601E-002	7.43531E-001	3.57630E+000	9	...........
	32	0.44	7.53432E-001	1.02068E-004	0.00000E+000	7.69014E-005	5.99601E-002	7.53677E-001	3.57630E+000	9	...........
	33	0.453333	7.63299E-001	1.00061E-004	0.00000E+000	7.63767E-005	5.99601E-002	7.63524E-001	3.57630E+000	9	...........
	34	0.466667	7.72838E-001	1.00670E-004	0.00000E+000	7.78015E-005	5.99601E-002	7.73120E-001	3.57630E+000	9	...........
	35	0.48	7.82123E-001	1.00104E-004	0.00000E+000	7.82937E-005	5.99601E-002	7.82400E-001	3.57630E+000	9	...........
	36	0.493333	7.91155E-001	1.02368E-004	0.00000E+000	8.09891E-005	5.99601E-002	7.91445E-001	3.57630E+000	9	...........
	37	0.506667	7.99900E-001	1.01227E-004	0.00000E+000	8.09717E-005	5.99601E-002	8.00188E-001	3.57630E+000	9	...........
	38	0.52	8.08369E-001	1.00759E-004	0.00000E+000	8.14508E-005	5.99601E-002	8.08666E-001	3.57630E+000	9	...........
	39	0.533333	8.16580E-001	1.00927E-004	0.00000E+000	8.24151E-005	5.99601E-002	8.16895E-001	3.57630E+000	9	...........
	40	0.546667	8.24552E-001	1.01346E-004	0.00000E+000	8.35651E-005	5.99601E-002	8.24848E-001	3.57630E+000	9	...........
	41	0.56	8.32223E-001	1.00490E-004	0.00000E+000	8.36297E-005	5.99601E-002	8.32551E-001	3.57630E+000	9	...........
	42	0.573333	8.39688E-001	1.01010E-004	0.00000E+000	8.48165E-005	5.99601E-002	8.40016E-001	3.57630E+000	9	...........
	43	0.586667	8.46938E-001	1.01515E-004	0.00000E+000	8.59768E-005	5.99601E-002	8.47262E-001	3.57630E+000	9	...........
	44	0.6	8.53941E-001	1.01423E-004	0.00000E+000	8.66094E-005	5.99601E-002	8.54258E-001	3.57630E+000	9	...........
	45	0.613333	8.60731E-001	1.01142E-004	0.00000E+000	8.70559E-005	5.99601E-002	8.61034E-001	3.57630E+000	9	...........
	46	0.626667	8.67327E-001	1.02311E-004	0.00000E+000	8.87369E-005	5.99601E-002	8.67624E-001	3.57630E+000	9	...........
	47	0.64	8.73723E-001	1.00417E-004	0.00000E+000	8.77364E-005	5.99601E-002	8.74046E-001	3.57630E+000	9	...........
	48	0.653333	8.79959E-001	1.02016E-004	0.00000E+000	8.97699E-005	5.99601E-002	8.80256E-001	3.57630E+000	9	...........
	49	0.666667	8.86001E-001	1.00343E-004	0.00000E+000	8.89038E-005	5.99601E-002	8.86292E-001	3.57630E+000	9	...........
	50	0.68	8.91882E-001	1.01108E-004	0.00000E+000	9.01769E-005	5.99601E-002	8.92138E-001	3.57630E+000	9	...........
	51	0.693333	8.97599E-001	1.00258E-004	0.00000E+000	8.99918E-005	5.99601E-002	8.97923E-001	3.57630E+000	9	...........
	52	0.706667	9.03214E-001	1.00472E-004	0.00000E+000	9.07476E-005	5.99601E-002	9.03514E-001	3.57630E+000	9	...........
	53	0.72	9.08695E-001	1.01289E-004	0.00000E+000	9.20405E-005	5.99601E-002	9.08985E-001	3.57630E+000	9	...........
	54	0.733333	9.14046E-001	1.01291E-004	0.00000E+000	9.25844E-005	5.99601E-002	9.14342E-001	3.57630E+000	9	...........
	55	0.746667	9.19306E-001	1.03403E-004	0.00000E+000	9.50588E-005	5.99601E-002	9.19597E-001	3.57630E+000	9	...........
	56	0.76	9.24479E-001	1.01488E-004	0.00000E+000	9.38233E-005	5.99601E-002	9.24752E-001	3.57630E+000	9	...........
	57	0.773333	9.29521E-001	1.00287E-004	0.00000E+000	9.32194E-005	5.99601E-002	9.29813E-001	3.57630E+000	9	...........
	58	0.786667	9.34503E-001	1.00725E-004	0.00000E+000	9.41279E-005	5.99601E-002	9.34798E-001	3.57630E+000	9	...........
	59	0.8	9.39371E-001	1.00517E-004	0.00000E+000	9.44225E-005	5.99601E-002	9.39704E-001	3.57630E+000	9	...........
	60	0.813333	9.44198E-001	1.01265E-004	0.00000E+000	9.56140E-005	5.99601E-002	9.44506E-001	3.57630E+000	9	...........
	61	0.826667	9.48958E-001	1.00697E-004	0.00000E+000	9.55572E-005	5.99601E-002	9.49273E-001	3.57630E+000	9	...........
	62	0.84	9.53623E-001	1.01854E-004	0.00000E+000	9.71307E-005	5.99601E-002	9.53945E-001	3.57630E+000	9	...........
	63	0.853333	9.58198E-001	1.01517E-004	0.00000E+000	9.72733E-005	5.99601E-002	9.58531E-001	3.57630E+000	9	...........
	64	0.866667	9.62691E-001	1.01103E-004	0.00000E+000	9.73312E-005	5.99601E-002	9.63071E-001	3.57630E+000	9	...........
	65	0.88	9.67131E-001	1.00058E-004	0.00000E+000	9.67695E-005	5.99601E-002	9.67466E-001	3.57630E+000	9	...........
	66	0.893333	9.71499E-001	1.01378E-004	0.00000E+000	9.84890E-005	5.99601E-002	9.71856E-001	3.57630E+000	9	...........
	67	0.906667	9.75850E-001	1.00672E-004	0.00000E+000	9.82407E-005	5.99601E-002	9.76146E-001	3.57630E+000	9	...........
	68	0.92	9.80064E-001	1.01808E-004	0.00000E+000	9.97779E-005	5.99601E-002	9.80346E-001	3.57630E+000	9	...........
	69	0.933333	9.84161E-001	1.01140E-004	0.00000E+000	9.95378E-005	5.99601E-002	9.84489E-001	3.57630E+000	9	...........
	70	0.946667	9.88255E-001	1.01538E-004	0.00000E+000	1.00345E-004	5.99601E-002	9.88554E-001	3.57630E+000	9	...........
	71	0.96	9.92186E-001	1.01093E-004	0.00000E+000	1.00303E-004	5.99601E-002	9.92481E-001	3.57630E+000	9	...........
	72	0.97333	9.96097E-001	1.00291E-004	0.00000E+000	9.98992E-005	5.99601E-002	9.96392E-001	3.57630E+000	9	...........
	73	0.98167	9.99194E-001	1.01045E-004	0.00000E+000	1.00963E-004	5.99601E-002	9.99513E-001	3.57630E+000	9	...........
STARTTIMEOFFSET	QUANT	1884.276	Start Time Offset (s)
