EXPLAIN
TAG	PWR800_CHARGE
TITLE	LABEL	PWR Cyclic Charge Discharge (Cell) - Charge Step	Test &Identifier
DATE	LABEL	12-7-2017	Date
TIME	LABEL	16:12:43	Time
NOTES	NOTES	2	&Notes...
	supercap test cell
	6M KOH
PSTAT	PSTAT	IFC5000-01520	Potentiostat
CAPACITY	QUANT	1.00000E-003	Capacity (A-hr)
CELLTYPE	SELECTOR	1	&Cell Type
WORKINGCONNECTION	SELECTOR	0	&Working Lead
MAXCHARGETIME	VARIABLEANDUNITS	1.00000E+002	s	1.00000E+002	second(s)	Max &Charge Time
CHARGECURRENT	QUANT	1.00000E-004	&Charge Current (A) 
VOLTAGEFINISH	TWOPARAM	F	1.00000E-003	3.60000E+003	&Voltage Finish	 I (A) < 	Max Time(s)
SAMPLETIME	QUANT	1.00000E-002	Sa&mple Period (s)
CHARGESTOPAT1	MULTIPARAM	4	1.00000E+000	Charge Stop At &1	Voltage > Limit	V
CHARGESTOPAT2	MULTIPARAM	0	0.00000E+000	Charge Stop At &2	None	N/A
AESBHCSELECTOR	TOGGLE	F	Save Both Half Cells
IRCOMP	TOGGLE	F	IR &Measure
EOC	QUANT	0	Open Circuit (V)
SEQUENCER	TOGGLE	TRUE	Run as Sequence
PSTATMODEL	IQUANT	53	Pstat Model
PSTATSECTION	LABEL	IFC5000-01520	Pstat Section
PSTATSERIALNO	LABEL	01520	Pstat Serial Number
CTRLMODE	IQUANT	0	Control Mode
ELECTROMETER	IQUANT	1	RE=0 or CS=1
IESTAB	IQUANT	0	I/E Stability
CASPEED	IQUANT	4	Control Amp Speed
CONVENTION	IQUANT	1	Current Convention
ICHRANGE	IQUANT	2	Ich Range
ICHRANGEMODE	TOGGLE	T	Ich Auto Range
ICHOFFSETENABLE	TOGGLE	F	Ich Offset Enable
ICHOFFSET	QUANT	0	Ich Offset (V)
ICHFILTER	IQUANT	1	Ich Filter
VCHRANGE	IQUANT	2	Vch Range
VCHRANGEMODE	TOGGLE	T	Vch Auto Range
VCHOFFSETENABLE	TOGGLE	F	Vch Offset Enable
VCHOFFSET	QUANT	0	Vch Offset (V)
VCHFILTER	IQUANT	1	Vch Filter
IERANGELOWERLIMIT	IQUANT	9	I/E Range Lower Limit
IERANGEMODE	TOGGLE	F	I/E AutoRange
IERANGE	IQUANT	9	I/E Range
ACHSELECT	IQUANT	1	Ach Select
ACHRANGE	IQUANT	2	Ach Range
ACHOFFSETENABLE	TOGGLE	F	Ach Offset Enable
ACHOFFSET	QUANT	0	Ach Offset (V)
ACHFILTER	IQUANT	1	Ach Filter
CABLEID	IQUANT	14	Cable ID
DCCALDATE	LABEL	5-7-2017	DC Calibration Date
ACCALDATE	LABEL	12/3/2015	AC Calibration Date
FRAMEWORKVERSION	QUANT	7.01	Framework Version
INSTRUMENTVERSION	LABEL	4.00	Instrument Version
CURVE	TABLE	82
	Pt	T	Vf	Im	Vu	Pwr	Sig	Ach	Temp	IERange	Over
	#	s	V	A	V	W	V	V	deg C	#	bits
	0	0.013333	2.58515E-001	1.01764E-004	0.00000E+000	2.63075E-005	5.99601E-002	2.58588E-001	3.57860E+000	9	...........
	1	0.026667	2.81233E-001	1.01047E-004	0.00000E+000	2.84177E-005	5.99601E-002	2.81291E-001	3.57860E+000	9	...........
	2	0.04	3.02315E-001	1.00417E-004	0.00000E+000	3.03575E-005	5.99601E-002	3.02380E-001	3.57860E+000	9	...........
	3	0.053333	3.22157E-001	1.00933E-004	0.00000E+000	3.25164E-005	5.99601E-002	3.22217E-001	3.57860E+000	9	...........
	4	0.066667	3.40960E-001	1.00457E-004	0.00000E+000	3.42519E-005	5.99601E-002	3.41033E-001	3.57860E+000	9	...........
	5	0.08	3.58892E-001	1.00536E-004	0.00000E+000	3.60817E-005	5.99601E-002	3.58968E-001	3.57860E+000	9	...........
	6	0.093333	3.76059E-001	1.01190E-004	0.00000E+000	3.80533E-005	5.99601E-002	3.76135E-001	3.57860E+000	9	...........
	7	0.106667	3.92555E-001	1.00864E-004	0.00000E+000	3.95946E-005	5.99601E-002	3.92637E-001	3.57860E+000	9	...........
	8	0.12	4.08462E-001	1.01170E-004	0.00000E+000	4.13241E-005	5.99601E-002	4.08548E-001	3.57860E+000	9	...........
	9	0.133333	4.23846E-001	1.01313E-004	0.00000E+000	4.29410E-005	5.99601E-002	4.23936E-001	3.57860E+000	9	...........
	10	0.146667	4.38758E-001	1.01569E-004	0.00000E+000	4.45642E-005	5.99601E-002	4.38854E-001	3.57860E+000	9	...........
	11	0.16	4.53260E-001	1.01293E-004	0.00000E+000	4.59120E-005	5.99601E-002	4.53357E-001	3.57860E+000	9	...........
	12	0.173333	4.67381E-001	1.01050E-004	0.00000E+000	4.72289E-005	5.99601E-002	4.67475E-001	3.57860E+000	9	...........
	13	0.186667	4.81159E-001	1.00381E-004	0.00000E+000	4.82993E-005	5.99601E-002	4.81262E-001	3.57860E+000	9	...........
	14	0.2	4.94624E-001	1.01307E-004	0.00000E+000	5.01091E-005	5.99601E-002	4.94728E-001	3.57860E+000	9	...........
	15	0.213333	5.07803E-001	1.00311E-004	0.00000E+000	5.09385E-005	5.99601E-002	5.07914E-001	3.57860E+000	9	...........
	16	0.226667	5.20712E-001	1.01196E-004	0.00000E+000	5.26940E-005	5.99601E-002	5.20822E-001	3.57860E+000	9	...........
	17	0.24	5.33243E-001	1.01148E-004	0.00000E+000	5.39365E-005	5.99601E-002	5.33374E-001	3.57860E+000	9	...........
	18	0.253333	5.45469E-001	1.00779E-004	0.00000E+000	5.49720E-005	5.99601E-002	5.45704E-001	3.57860E+000	9	...........
	19	0.266667	5.57664E-001	1.00897E-004	0.00000E+000	5.62666E-005	5.99601E-002	5.57922E-001	3.57860E+000	9	...........
	20	0.28	5.69686E-001	1.01102E-004	0.00000E+000	5.75965E-005	5.99601E-002	5.69914E-001	3.57860E+000	9	...........
	21	0.293333	5.81449E-001	1.00942E-004	0.00000E+000	5.86925E-005	5.99601E-002	5.81712E-001	3.57860E+000	9	...........
	22	0.306667	5.93057E-001	1.00648E-004	0.00000E+000	5.96900E-005	5.99601E-002	5.93311E-001	3.57860E+000	9	...........
	23	0.32	6.04427E-001	1.01174E-004	0.00000E+000	6.11524E-005	5.99601E-002	6.04716E-001	3.57860E+000	9	...........
	24	0.333333	6.15680E-001	1.00685E-004	0.00000E+000	6.19901E-005	5.99601E-002	6.15943E-001	3.57834E+000	9	...........
	25	0.346667	6.26753E-001	1.01411E-004	0.00000E+000	6.35594E-005	5.99601E-002	6.26981E-001	3.57790E+000	9	...........
	26	0.36	6.37637E-001	1.00441E-004	0.00000E+000	6.40447E-005	5.99601E-002	6.37876E-001	3.57790E+000	9	...........
	27	0.373333	6.48364E-001	1.00954E-004	0.00000E+000	6.54551E-005	5.99601E-002	6.48582E-001	3.57790E+000	9	...........
	28	0.386667	6.58901E-001	1.01419E-004	0.00000E+000	6.68251E-005	5.99601E-002	6.59131E-001	3.57790E+000	9	...........
	29	0.4	6.69319E-001	1.00864E-004	0.00000E+000	6.75099E-005	5.99601E-002	6.69527E-001	3.57790E+000	9	...........
	30	0.413333	6.79525E-001	1.00473E-004	0.00000E+000	6.82739E-005	5.99601E-002	6.79749E-001	3.57790E+000	9	...........
	31	0.426667	6.89596E-001	1.00328E-004	0.00000E+000	6.91859E-005	5.99601E-002	6.89823E-001	3.57790E+000	9	...........
	32	0.44	6.99526E-001	1.00926E-004	0.00000E+000	7.06005E-005	5.99601E-002	6.99750E-001	3.57790E+000	9	...........
	33	0.453333	7.09259E-001	1.00244E-004	0.00000E+000	7.10987E-005	5.99601E-002	7.09509E-001	3.57790E+000	9	...........
	34	0.466667	7.18901E-001	1.00640E-004	0.00000E+000	7.23499E-005	5.99601E-002	7.19140E-001	3.57790E+000	9	...........
	35	0.48	7.28339E-001	1.01016E-004	0.00000E+000	7.35738E-005	5.99601E-002	7.28588E-001	3.57790E+000	9	...........
	36	0.493333	7.37604E-001	1.01423E-004	0.00000E+000	7.48101E-005	5.99601E-002	7.37861E-001	3.57790E+000	9	...........
	37	0.506667	7.46769E-001	1.01240E-004	0.00000E+000	7.56027E-005	5.99601E-002	7.47020E-001	3.57790E+000	9	...........
	38	0.52	7.55718E-001	1.01204E-004	0.00000E+000	7.64820E-005	5.99601E-002	7.55990E-001	3.57790E+000	9	...........
	39	0.533333	7.64547E-001	1.01268E-004	0.00000E+000	7.74240E-005	5.99601E-002	7.64842E-001	3.57790E+000	9	...........
	40	0.546667	7.73203E-001	1.00086E-004	0.00000E+000	7.73872E-005	5.99601E-002	7.73506E-001	3.57790E+000	9	...........
	41	0.56	7.81682E-001	1.00842E-004	0.00000E+000	7.88262E-005	5.99601E-002	7.81980E-001	3.57790E+000	9	...........
	42	0.573333	7.90008E-001	1.00397E-004	0.00000E+000	7.93144E-005	5.99601E-002	7.90314E-001	3.57790E+000	9	...........
	43	0.586667	7.98219E-001	1.01395E-004	0.00000E+000	8.09354E-005	5.99601E-002	7.98485E-001	3.57790E+000	9	...........
	44	0.6	8.06193E-001	1.01224E-004	0.00000E+000	8.16062E-005	5.99601E-002	8.06487E-001	3.57790E+000	9	...........
	45	0.613333	8.14040E-001	1.01319E-004	0.00000E+000	8.24777E-005	5.99601E-002	8.14297E-001	3.57790E+000	9	...........
	46	0.626667	8.21746E-001	1.01295E-004	0.00000E+000	8.32388E-005	5.99601E-002	8.22030E-001	3.57790E+000	9	...........
	47	0.64	8.29252E-001	1.00511E-004	0.00000E+000	8.33493E-005	5.99601E-002	8.29521E-001	3.57790E+000	9	...........
	48	0.653333	8.36594E-001	1.01182E-004	0.00000E+000	8.46487E-005	5.99601E-002	8.36876E-001	3.57790E+000	9	...........
	49	0.666667	8.43795E-001	1.00622E-004	0.00000E+000	8.49042E-005	5.99601E-002	8.44104E-001	3.57790E+000	9	...........
	50	0.68	8.50846E-001	1.00956E-004	0.00000E+000	8.58983E-005	5.99601E-002	8.51139E-001	3.57790E+000	9	...........
	51	0.693333	8.57700E-001	1.01240E-004	0.00000E+000	8.68333E-005	5.99601E-002	8.57999E-001	3.57790E+000	9	...........
	52	0.706667	8.64396E-001	1.01488E-004	0.00000E+000	8.77256E-005	5.99601E-002	8.64724E-001	3.57790E+000	9	...........
	53	0.72	8.70985E-001	1.01425E-004	0.00000E+000	8.83398E-005	5.99601E-002	8.71301E-001	3.57790E+000	9	...........
	54	0.733333	8.77351E-001	1.01453E-004	0.00000E+000	8.90102E-005	5.99601E-002	8.77684E-001	3.57790E+000	9	...........
	55	0.746667	8.83577E-001	1.00840E-004	0.00000E+000	8.90996E-005	5.99601E-002	8.83892E-001	3.57790E+000	9	...........
	56	0.76	8.89655E-001	1.01198E-004	0.00000E+000	9.00314E-005	5.99601E-002	8.89966E-001	3.57790E+000	9	...........
	57	0.773333	8.95560E-001	1.01952E-004	0.00000E+000	9.13045E-005	5.99601E-002	8.95905E-001	3.57790E+000	9	...........
	58	0.786667	9.01327E-001	1.00338E-004	0.00000E+000	9.04369E-005	5.99601E-002	9.01679E-001	3.57790E+000	9	...........
	59	0.8	9.06924E-001	1.00633E-004	0.00000E+000	9.12668E-005	5.99601E-002	9.07304E-001	3.57790E+000	9	...........
	60	0.813333	9.12386E-001	1.01257E-004	0.00000E+000	9.23859E-005	5.99601E-002	9.12764E-001	3.57790E+000	9	...........
	61	0.826667	9.17732E-001	1.00867E-004	0.00000E+000	9.25687E-005	5.99601E-002	9.18080E-001	3.57790E+000	9	...........
	62	0.84	9.22950E-001	1.01388E-004	0.00000E+000	9.35758E-005	5.99601E-002	9.23272E-001	3.57790E+000	9	...........
	63	0.853333	9.27998E-001	1.01044E-004	0.00000E+000	9.37685E-005	5.99601E-002	9.28303E-001	3.57790E+000	9	...........
	64	0.866667	9.32896E-001	1.01276E-004	0.00000E+000	9.44802E-005	5.99601E-002	9.33194E-001	3.57790E+000	9	...........
	65	0.88	9.37645E-001	1.00769E-004	0.00000E+000	9.44854E-005	5.99601E-002	9.37959E-001	3.57790E+000	9	...........
	66	0.893333	9.42292E-001	1.00997E-004	0.00000E+000	9.51687E-005	5.99601E-002	9.42609E-001	3.57790E+000	9	...........
	67	0.906667	9.46804E-001	1.00732E-004	0.00000E+000	9.53738E-005	5.99601E-002	9.47153E-001	3.57790E+000	9	...........
	68	0.92	9.51238E-001	1.01768E-004	0.00000E+000	9.68056E-005	5.99601E-002	9.51566E-001	3.57790E+000	9	...........
	69	0.933333	9.55528E-001	1.00774E-004	0.00000E+000	9.62925E-005	5.99601E-002	9.55850E-001	3.57790E+000	9	...........
	70	0.946667	9.59692E-001	1.01113E-004	0.00000E+000	9.70370E-005	5.99601E-002	9.60056E-001	3.57790E+000	9	...........
	71	0.96	9.63736E-001	1.01181E-004	0.00000E+000	9.75122E-005	5.99601E-002	9.64096E-001	3.57790E+000	9	...........
	72	0.97333	9.67695E-001	1.00696E-004	0.00000E+000	9.74430E-005	5.99601E-002	9.68070E-001	3.57790E+000	9	...........
	73	0.98667	9.71584E-001	1.01076E-004	0.00000E+000	9.82040E-005	5.99601E-002	9.71991E-001	3.57790E+000	9	...........
	74	1	9.75382E-001	1.00212E-004	0.00000E+000	9.77454E-005	5.99601E-002	9.75740E-001	3.57790E+000	9	...........
	75	1.01333	9.79077E-001	1.01466E-004	0.00000E+000	9.93429E-005	5.99601E-002	9.79430E-001	3.57790E+000	9	...........
	76	1.02667	9.82682E-001	1.00746E-004	0.00000E+000	9.90012E-005	5.99601E-002	9.83024E-001	3.57790E+000	9	...........
	77	1.04	9.86185E-001	1.00406E-004	0.00000E+000	9.90191E-005	5.99601E-002	9.86564E-001	3.57790E+000	9	...........
	78	1.05333	9.89617E-001	1.01622E-004	0.00000E+000	1.00567E-004	5.99601E-002	9.89975E-001	3.57790E+000	9	...........
	79	1.06667	9.92946E-001	1.00546E-004	0.00000E+000	9.98366E-005	5.99601E-002	9.93307E-001	3.57790E+000	9	...........
	80	1.08	9.96180E-001	1.00324E-004	0.00000E+000	9.99407E-005	5.99601E-002	9.96551E-001	3.57790E+000	9	...........
	81	1.09167	9.99166E-001	1.00304E-004	0.00000E+000	1.00220E-004	5.99601E-002	9.99540E-001	3.57790E+000	9	...........
STARTTIMEOFFSET	QUANT	112.7	Start Time Offset (s)
