EXPLAIN
TAG	PWR800_CHARGE
TITLE	LABEL	PWR Cyclic Charge Discharge (Cell) - Charge Step	Test &Identifier
DATE	LABEL	12-7-2017	Date
TIME	LABEL	16:53:38	Time
NOTES	NOTES	2	&Notes...
	supercap test cell
	6M KOH
PSTAT	PSTAT	IFC5000-01520	Potentiostat
CAPACITY	QUANT	1.00000E-003	Capacity (A-hr)
CELLTYPE	SELECTOR	1	&Cell Type
WORKINGCONNECTION	SELECTOR	0	&Working Lead
MAXCHARGETIME	VARIABLEANDUNITS	1.00000E+002	s	1.00000E+002	second(s)	Max &Charge Time
CHARGECURRENT	QUANT	1.00000E-004	&Charge Current (A) 
VOLTAGEFINISH	TWOPARAM	F	1.00000E-003	3.60000E+003	&Voltage Finish	 I (A) < 	Max Time(s)
SAMPLETIME	QUANT	1.00000E-002	Sa&mple Period (s)
CHARGESTOPAT1	MULTIPARAM	4	1.00000E+000	Charge Stop At &1	Voltage > Limit	V
CHARGESTOPAT2	MULTIPARAM	0	0.00000E+000	Charge Stop At &2	None	N/A
AESBHCSELECTOR	TOGGLE	F	Save Both Half Cells
IRCOMP	TOGGLE	F	IR &Measure
EOC	QUANT	0	Open Circuit (V)
SEQUENCER	TOGGLE	TRUE	Run as Sequence
PSTATMODEL	IQUANT	53	Pstat Model
PSTATSECTION	LABEL	IFC5000-01520	Pstat Section
PSTATSERIALNO	LABEL	01520	Pstat Serial Number
CTRLMODE	IQUANT	0	Control Mode
ELECTROMETER	IQUANT	1	RE=0 or CS=1
IESTAB	IQUANT	0	I/E Stability
CASPEED	IQUANT	4	Control Amp Speed
CONVENTION	IQUANT	1	Current Convention
ICHRANGE	IQUANT	2	Ich Range
ICHRANGEMODE	TOGGLE	T	Ich Auto Range
ICHOFFSETENABLE	TOGGLE	F	Ich Offset Enable
ICHOFFSET	QUANT	0	Ich Offset (V)
ICHFILTER	IQUANT	1	Ich Filter
VCHRANGE	IQUANT	2	Vch Range
VCHRANGEMODE	TOGGLE	T	Vch Auto Range
VCHOFFSETENABLE	TOGGLE	F	Vch Offset Enable
VCHOFFSET	QUANT	0	Vch Offset (V)
VCHFILTER	IQUANT	1	Vch Filter
IERANGELOWERLIMIT	IQUANT	9	I/E Range Lower Limit
IERANGEMODE	TOGGLE	F	I/E AutoRange
IERANGE	IQUANT	9	I/E Range
ACHSELECT	IQUANT	1	Ach Select
ACHRANGE	IQUANT	2	Ach Range
ACHOFFSETENABLE	TOGGLE	F	Ach Offset Enable
ACHOFFSET	QUANT	0	Ach Offset (V)
ACHFILTER	IQUANT	1	Ach Filter
CABLEID	IQUANT	14	Cable ID
DCCALDATE	LABEL	5-7-2017	DC Calibration Date
ACCALDATE	LABEL	12/3/2015	AC Calibration Date
FRAMEWORKVERSION	QUANT	7.01	Framework Version
INSTRUMENTVERSION	LABEL	4.00	Instrument Version
CURVE	TABLE	74
	Pt	T	Vf	Im	Vu	Pwr	Sig	Ach	Temp	IERange	Over
	#	s	V	A	V	W	V	V	deg C	#	bits
	0	0.013333	2.56604E-001	1.01142E-004	0.00000E+000	2.59534E-005	5.99601E-002	2.56681E-001	3.57660E+000	9	...........
	1	0.026667	2.79743E-001	1.01498E-004	0.00000E+000	2.83934E-005	5.99601E-002	2.79801E-001	3.57660E+000	9	...........
	2	0.04	3.01654E-001	1.01164E-004	0.00000E+000	3.05164E-005	5.99601E-002	3.01718E-001	3.57660E+000	9	...........
	3	0.053333	3.22677E-001	1.01487E-004	0.00000E+000	3.27474E-005	5.99601E-002	3.22747E-001	3.57660E+000	9	...........
	4	0.066667	3.43003E-001	1.01771E-004	0.00000E+000	3.49078E-005	5.99601E-002	3.43076E-001	3.57660E+000	9	...........
	5	0.08	3.62733E-001	1.00123E-004	0.00000E+000	3.63178E-005	5.99601E-002	3.62811E-001	3.57660E+000	9	...........
	6	0.093333	3.81952E-001	1.01061E-004	0.00000E+000	3.86003E-005	5.99601E-002	3.82032E-001	3.57660E+000	9	...........
	7	0.106667	4.00699E-001	1.01735E-004	0.00000E+000	4.07650E-005	5.99601E-002	4.00785E-001	3.57660E+000	9	...........
	8	0.12	4.19006E-001	1.00773E-004	0.00000E+000	4.22245E-005	5.99601E-002	4.19096E-001	3.57660E+000	9	...........
	9	0.133333	4.36924E-001	1.01078E-004	0.00000E+000	4.41635E-005	5.99601E-002	4.37012E-001	3.57660E+000	9	...........
	10	0.146667	4.54433E-001	1.01810E-004	0.00000E+000	4.62657E-005	5.99601E-002	4.54525E-001	3.57660E+000	9	...........
	11	0.16	4.71564E-001	1.00503E-004	0.00000E+000	4.73937E-005	5.99601E-002	4.71658E-001	3.57660E+000	9	...........
	12	0.173333	4.88318E-001	1.00583E-004	0.00000E+000	4.91167E-005	5.99601E-002	4.88418E-001	3.57660E+000	9	...........
	13	0.186667	5.04717E-001	1.01580E-004	0.00000E+000	5.12693E-005	5.99601E-002	5.04816E-001	3.57660E+000	9	...........
	14	0.2	5.20757E-001	1.00304E-004	0.00000E+000	5.22341E-005	5.99601E-002	5.20863E-001	3.57660E+000	9	...........
	15	0.213333	5.36267E-001	1.00828E-004	0.00000E+000	5.40709E-005	5.99601E-002	5.36424E-001	3.57660E+000	9	...........
	16	0.226667	5.51480E-001	1.01473E-004	0.00000E+000	5.59604E-005	5.99601E-002	5.51671E-001	3.57660E+000	9	...........
	17	0.24	5.66470E-001	1.00298E-004	0.00000E+000	5.68157E-005	5.99601E-002	5.66676E-001	3.57660E+000	9	...........
	18	0.253333	5.81086E-001	1.01160E-004	0.00000E+000	5.87824E-005	5.99601E-002	5.81326E-001	3.57660E+000	9	...........
	19	0.266667	5.95416E-001	1.00752E-004	0.00000E+000	5.99895E-005	5.99601E-002	5.95637E-001	3.57660E+000	9	...........
	20	0.28	6.09359E-001	1.01045E-004	0.00000E+000	6.15727E-005	5.99601E-002	6.09626E-001	3.57660E+000	9	...........
	21	0.293333	6.23040E-001	1.01497E-004	0.00000E+000	6.32368E-005	5.99601E-002	6.23253E-001	3.57660E+000	9	...........
	22	0.306667	6.36333E-001	1.00392E-004	0.00000E+000	6.38825E-005	5.99601E-002	6.36587E-001	3.57660E+000	9	...........
	23	0.32	6.49321E-001	1.01530E-004	0.00000E+000	6.59259E-005	5.99601E-002	6.49569E-001	3.57660E+000	9	...........
	24	0.333333	6.61987E-001	1.02057E-004	0.00000E+000	6.75602E-005	5.99601E-002	6.62234E-001	3.57660E+000	9	...........
	25	0.346667	6.74341E-001	1.01168E-004	0.00000E+000	6.82216E-005	5.99601E-002	6.74563E-001	3.57660E+000	9	...........
	26	0.36	6.86311E-001	1.01100E-004	0.00000E+000	6.93862E-005	5.99601E-002	6.86567E-001	3.57660E+000	9	...........
	27	0.373333	6.98032E-001	1.00325E-004	0.00000E+000	7.00301E-005	5.99601E-002	6.98267E-001	3.57660E+000	9	...........
	28	0.386667	7.09414E-001	1.00236E-004	0.00000E+000	7.11091E-005	5.99601E-002	7.09671E-001	3.57660E+000	9	...........
	29	0.4	7.20533E-001	1.00198E-004	0.00000E+000	7.21959E-005	5.99601E-002	7.20775E-001	3.57660E+000	9	...........
	30	0.413333	7.31304E-001	1.02085E-004	0.00000E+000	7.46550E-005	5.99601E-002	7.31548E-001	3.57660E+000	9	...........
	31	0.426667	7.41791E-001	1.00986E-004	0.00000E+000	7.49101E-005	5.99601E-002	7.42041E-001	3.57660E+000	9	...........
	32	0.44	7.51972E-001	1.01095E-004	0.00000E+000	7.60206E-005	5.99601E-002	7.52243E-001	3.57660E+000	9	...........
	33	0.453333	7.61881E-001	1.01471E-004	0.00000E+000	7.73088E-005	5.99601E-002	7.62146E-001	3.57660E+000	9	...........
	34	0.466667	7.71509E-001	1.00790E-004	0.00000E+000	7.77601E-005	5.99601E-002	7.71781E-001	3.57660E+000	9	...........
	35	0.48	7.80850E-001	1.00115E-004	0.00000E+000	7.81744E-005	5.99601E-002	7.81116E-001	3.57660E+000	9	...........
	36	0.493333	7.89915E-001	1.00034E-004	0.00000E+000	7.90186E-005	5.99601E-002	7.90184E-001	3.57660E+000	9	...........
	37	0.506667	7.98733E-001	1.02366E-004	0.00000E+000	8.17631E-005	5.99601E-002	7.98977E-001	3.57660E+000	9	...........
	38	0.52	8.07222E-001	1.00469E-004	0.00000E+000	8.11006E-005	5.99601E-002	8.07496E-001	3.57660E+000	9	...........
	39	0.533333	8.15477E-001	1.01540E-004	0.00000E+000	8.28034E-005	5.99601E-002	8.15788E-001	3.57660E+000	9	...........
	40	0.546667	8.23497E-001	1.01945E-004	0.00000E+000	8.39515E-005	5.99601E-002	8.23817E-001	3.57660E+000	9	...........
	41	0.56	8.31226E-001	1.00789E-004	0.00000E+000	8.37781E-005	5.99601E-002	8.31532E-001	3.57660E+000	9	...........
	42	0.573333	8.38714E-001	1.01138E-004	0.00000E+000	8.48256E-005	5.99601E-002	8.39032E-001	3.57660E+000	9	...........
	43	0.586667	8.45994E-001	1.00888E-004	0.00000E+000	8.53503E-005	5.99601E-002	8.46311E-001	3.57660E+000	9	...........
	44	0.6	8.53032E-001	1.01078E-004	0.00000E+000	8.62230E-005	5.99601E-002	8.53361E-001	3.57660E+000	9	...........
	45	0.613333	8.59845E-001	9.96863E-005	0.00000E+000	8.57148E-005	5.99601E-002	8.60174E-001	3.57660E+000	9	...........
	46	0.626667	8.66458E-001	1.00490E-004	0.00000E+000	8.70700E-005	5.99601E-002	8.66786E-001	3.57660E+000	9	...........
	47	0.64	8.72895E-001	1.01767E-004	0.00000E+000	8.88319E-005	5.99601E-002	8.73251E-001	3.57660E+000	9	...........
	48	0.653333	8.79145E-001	1.00354E-004	0.00000E+000	8.82259E-005	5.99601E-002	8.79487E-001	3.57660E+000	9	...........
	49	0.666667	8.85224E-001	1.01202E-004	0.00000E+000	8.95866E-005	5.99601E-002	8.85559E-001	3.57660E+000	9	...........
	50	0.68	8.91136E-001	1.01299E-004	0.00000E+000	9.02713E-005	5.99601E-002	8.91446E-001	3.57660E+000	9	...........
	51	0.693333	8.96897E-001	1.00565E-004	0.00000E+000	9.01961E-005	5.99601E-002	8.97199E-001	3.57660E+000	9	...........
	52	0.706667	9.02514E-001	1.00536E-004	0.00000E+000	9.07356E-005	5.99601E-002	9.02814E-001	3.57660E+000	9	...........
	53	0.72	9.08021E-001	1.01320E-004	0.00000E+000	9.20007E-005	5.99601E-002	9.08295E-001	3.57660E+000	9	...........
	54	0.733333	9.13389E-001	1.02232E-004	0.00000E+000	9.33773E-005	5.99601E-002	9.13688E-001	3.57660E+000	9	...........
	55	0.746667	9.18663E-001	1.00996E-004	0.00000E+000	9.27813E-005	5.99601E-002	9.18950E-001	3.57660E+000	9	...........
	56	0.76	9.23882E-001	1.01998E-004	0.00000E+000	9.42343E-005	5.99601E-002	9.24137E-001	3.57660E+000	9	...........
	57	0.773333	9.28951E-001	1.00912E-004	0.00000E+000	9.37419E-005	5.99601E-002	9.29213E-001	3.57660E+000	9	...........
	58	0.786667	9.33935E-001	1.00046E-004	0.00000E+000	9.34363E-005	5.99601E-002	9.34200E-001	3.57660E+000	9	...........
	59	0.8	9.38822E-001	1.00185E-004	0.00000E+000	9.40563E-005	5.99601E-002	9.39133E-001	3.57660E+000	9	...........
	60	0.813333	9.43630E-001	1.00934E-004	0.00000E+000	9.52448E-005	5.99601E-002	9.43938E-001	3.57660E+000	9	...........
	61	0.826667	9.48407E-001	1.00609E-004	0.00000E+000	9.54187E-005	5.99601E-002	9.48741E-001	3.57660E+000	9	...........
	62	0.84	9.53105E-001	1.01270E-004	0.00000E+000	9.65209E-005	5.99601E-002	9.53430E-001	3.57660E+000	9	...........
	63	0.853333	9.57680E-001	1.01707E-004	0.00000E+000	9.74023E-005	5.99601E-002	9.58008E-001	3.57660E+000	9	...........
	64	0.866667	9.62211E-001	1.01885E-004	0.00000E+000	9.80346E-005	5.99601E-002	9.62564E-001	3.57660E+000	9	...........
	65	0.88	9.66660E-001	1.00347E-004	0.00000E+000	9.70013E-005	5.99601E-002	9.67008E-001	3.57660E+000	9	...........
	66	0.893333	9.71022E-001	1.00012E-004	0.00000E+000	9.71142E-005	5.99601E-002	9.71423E-001	3.57660E+000	9	...........
	67	0.906667	9.75394E-001	1.02350E-004	0.00000E+000	9.98320E-005	5.99601E-002	9.75730E-001	3.57660E+000	9	...........
	68	0.92	9.79589E-001	1.01324E-004	0.00000E+000	9.92560E-005	5.99601E-002	9.79941E-001	3.57735E+000	9	...........
	69	0.933333	9.83740E-001	1.00548E-004	0.00000E+000	9.89130E-005	5.99601E-002	9.84096E-001	3.57780E+000	9	...........
	70	0.946667	9.87800E-001	1.00879E-004	0.00000E+000	9.96486E-005	5.99601E-002	9.88137E-001	3.57780E+000	9	...........
	71	0.96	9.91769E-001	1.02249E-004	0.00000E+000	1.01408E-004	5.99601E-002	9.92105E-001	3.57780E+000	9	...........
	72	0.97333	9.95652E-001	1.00406E-004	0.00000E+000	9.99697E-005	5.99601E-002	9.95987E-001	3.57780E+000	9	...........
	73	0.98333	9.98987E-001	1.00052E-004	0.00000E+000	9.99507E-005	5.99601E-002	9.99349E-001	3.57780E+000	9	...........
STARTTIMEOFFSET	QUANT	1857.513	Start Time Offset (s)
