EXPLAIN
TAG	PWR800_CHARGE
TITLE	LABEL	PWR Cyclic Charge Discharge (Cell) - Charge Step	Test &Identifier
DATE	LABEL	12-7-2017	Date
TIME	LABEL	16:51:28	Time
NOTES	NOTES	2	&Notes...
	supercap test cell
	6M KOH
PSTAT	PSTAT	IFC5000-01520	Potentiostat
CAPACITY	QUANT	1.00000E-003	Capacity (A-hr)
CELLTYPE	SELECTOR	1	&Cell Type
WORKINGCONNECTION	SELECTOR	0	&Working Lead
MAXCHARGETIME	VARIABLEANDUNITS	1.00000E+002	s	1.00000E+002	second(s)	Max &Charge Time
CHARGECURRENT	QUANT	1.00000E-004	&Charge Current (A) 
VOLTAGEFINISH	TWOPARAM	F	1.00000E-003	3.60000E+003	&Voltage Finish	 I (A) < 	Max Time(s)
SAMPLETIME	QUANT	1.00000E-002	Sa&mple Period (s)
CHARGESTOPAT1	MULTIPARAM	4	1.00000E+000	Charge Stop At &1	Voltage > Limit	V
CHARGESTOPAT2	MULTIPARAM	0	0.00000E+000	Charge Stop At &2	None	N/A
AESBHCSELECTOR	TOGGLE	F	Save Both Half Cells
IRCOMP	TOGGLE	F	IR &Measure
EOC	QUANT	0	Open Circuit (V)
SEQUENCER	TOGGLE	TRUE	Run as Sequence
PSTATMODEL	IQUANT	53	Pstat Model
PSTATSECTION	LABEL	IFC5000-01520	Pstat Section
PSTATSERIALNO	LABEL	01520	Pstat Serial Number
CTRLMODE	IQUANT	0	Control Mode
ELECTROMETER	IQUANT	1	RE=0 or CS=1
IESTAB	IQUANT	0	I/E Stability
CASPEED	IQUANT	4	Control Amp Speed
CONVENTION	IQUANT	1	Current Convention
ICHRANGE	IQUANT	2	Ich Range
ICHRANGEMODE	TOGGLE	T	Ich Auto Range
ICHOFFSETENABLE	TOGGLE	F	Ich Offset Enable
ICHOFFSET	QUANT	0	Ich Offset (V)
ICHFILTER	IQUANT	1	Ich Filter
VCHRANGE	IQUANT	2	Vch Range
VCHRANGEMODE	TOGGLE	T	Vch Auto Range
VCHOFFSETENABLE	TOGGLE	F	Vch Offset Enable
VCHOFFSET	QUANT	0	Vch Offset (V)
VCHFILTER	IQUANT	1	Vch Filter
IERANGELOWERLIMIT	IQUANT	9	I/E Range Lower Limit
IERANGEMODE	TOGGLE	F	I/E AutoRange
IERANGE	IQUANT	9	I/E Range
ACHSELECT	IQUANT	1	Ach Select
ACHRANGE	IQUANT	2	Ach Range
ACHOFFSETENABLE	TOGGLE	F	Ach Offset Enable
ACHOFFSET	QUANT	0	Ach Offset (V)
ACHFILTER	IQUANT	1	Ach Filter
CABLEID	IQUANT	14	Cable ID
DCCALDATE	LABEL	5-7-2017	DC Calibration Date
ACCALDATE	LABEL	12/3/2015	AC Calibration Date
FRAMEWORKVERSION	QUANT	7.01	Framework Version
INSTRUMENTVERSION	LABEL	4.00	Instrument Version
CURVE	TABLE	74
	Pt	T	Vf	Im	Vu	Pwr	Sig	Ach	Temp	IERange	Over
	#	s	V	A	V	W	V	V	deg C	#	bits
	0	0.013333	2.56064E-001	1.02000E-004	0.00000E+000	2.61186E-005	5.99601E-002	2.56140E-001	3.57630E+000	9	...........
	1	0.026667	2.79188E-001	1.01523E-004	0.00000E+000	2.83441E-005	5.99601E-002	2.79247E-001	3.57630E+000	9	...........
	2	0.04	3.01082E-001	1.00920E-004	0.00000E+000	3.03852E-005	5.99601E-002	3.01150E-001	3.57630E+000	9	...........
	3	0.053333	3.22100E-001	9.99958E-005	0.00000E+000	3.22086E-005	5.99601E-002	3.22164E-001	3.57630E+000	9	...........
	4	0.066667	3.42403E-001	1.00800E-004	0.00000E+000	3.45143E-005	5.99601E-002	3.42468E-001	3.57630E+000	9	...........
	5	0.08	3.62115E-001	1.00848E-004	0.00000E+000	3.65186E-005	5.99601E-002	3.62191E-001	3.57630E+000	9	...........
	6	0.093333	3.81313E-001	1.00829E-004	0.00000E+000	3.84475E-005	5.99601E-002	3.81387E-001	3.57630E+000	9	...........
	7	0.106667	4.00039E-001	1.01147E-004	0.00000E+000	4.04628E-005	5.99601E-002	4.00117E-001	3.57630E+000	9	...........
	8	0.12	4.18328E-001	1.01752E-004	0.00000E+000	4.25659E-005	5.99601E-002	4.18415E-001	3.57630E+000	9	...........
	9	0.133333	4.36211E-001	9.96957E-005	0.00000E+000	4.34884E-005	5.99601E-002	4.36300E-001	3.57630E+000	9	...........
	10	0.146667	4.53707E-001	1.01364E-004	0.00000E+000	4.59894E-005	5.99601E-002	4.53794E-001	3.57630E+000	9	...........
	11	0.16	4.70816E-001	1.02005E-004	0.00000E+000	4.80254E-005	5.99601E-002	4.70905E-001	3.57630E+000	9	...........
	12	0.173333	4.87558E-001	1.01191E-004	0.00000E+000	4.93364E-005	5.99601E-002	4.87652E-001	3.57630E+000	9	...........
	13	0.186667	5.03928E-001	1.00576E-004	0.00000E+000	5.06831E-005	5.99601E-002	5.04033E-001	3.57630E+000	9	...........
	14	0.2	5.19945E-001	1.01724E-004	0.00000E+000	5.28910E-005	5.99601E-002	5.20053E-001	3.57630E+000	9	...........
	15	0.213333	5.35468E-001	1.00955E-004	0.00000E+000	5.40583E-005	5.99601E-002	5.35590E-001	3.57630E+000	9	...........
	16	0.226667	5.50642E-001	9.97572E-005	0.00000E+000	5.49305E-005	5.99601E-002	5.50850E-001	3.57630E+000	9	...........
	17	0.24	5.65653E-001	1.01811E-004	0.00000E+000	5.75895E-005	5.99601E-002	5.65839E-001	3.57630E+000	9	...........
	18	0.253333	5.80275E-001	1.01398E-004	0.00000E+000	5.88388E-005	5.99601E-002	5.80495E-001	3.57630E+000	9	...........
	19	0.266667	5.94572E-001	1.01329E-004	0.00000E+000	6.02477E-005	5.99601E-002	5.94795E-001	3.57630E+000	9	...........
	20	0.28	6.08514E-001	1.00875E-004	0.00000E+000	6.13839E-005	5.99601E-002	6.08770E-001	3.57630E+000	9	...........
	21	0.293333	6.22185E-001	1.00725E-004	0.00000E+000	6.26696E-005	5.99601E-002	6.22387E-001	3.57630E+000	9	...........
	22	0.306667	6.35468E-001	1.02654E-004	0.00000E+000	6.52330E-005	5.99601E-002	6.35692E-001	3.57630E+000	9	...........
	23	0.32	6.48456E-001	1.00634E-004	0.00000E+000	6.52570E-005	5.99601E-002	6.48637E-001	3.57630E+000	9	...........
	24	0.333333	6.61102E-001	1.01100E-004	0.00000E+000	6.68375E-005	5.99601E-002	6.61309E-001	3.57630E+000	9	...........
	25	0.346667	6.73435E-001	1.00932E-004	0.00000E+000	6.79715E-005	5.99601E-002	6.73648E-001	3.57630E+000	9	...........
	26	0.36	6.85442E-001	1.01689E-004	0.00000E+000	6.97018E-005	5.99601E-002	6.85672E-001	3.57630E+000	9	...........
	27	0.373333	6.97150E-001	1.00960E-004	0.00000E+000	7.03840E-005	5.99601E-002	6.97387E-001	3.57630E+000	9	...........
	28	0.386667	7.08538E-001	1.01023E-004	0.00000E+000	7.15787E-005	5.99601E-002	7.08779E-001	3.57630E+000	9	...........
	29	0.4	7.19659E-001	1.02343E-004	0.00000E+000	7.36521E-005	5.99601E-002	7.19893E-001	3.57630E+000	9	...........
	30	0.413333	7.30433E-001	1.01680E-004	0.00000E+000	7.42707E-005	5.99601E-002	7.30683E-001	3.57630E+000	9	...........
	31	0.426667	7.40923E-001	1.00923E-004	0.00000E+000	7.47762E-005	5.99601E-002	7.41196E-001	3.57630E+000	9	...........
	32	0.44	7.51137E-001	1.00756E-004	0.00000E+000	7.56818E-005	5.99601E-002	7.51400E-001	3.57630E+000	9	...........
	33	0.453333	7.61045E-001	1.00724E-004	0.00000E+000	7.66555E-005	5.99601E-002	7.61304E-001	3.57630E+000	9	...........
	34	0.466667	7.70675E-001	1.00134E-004	0.00000E+000	7.71710E-005	5.99601E-002	7.70959E-001	3.57630E+000	9	...........
	35	0.48	7.80047E-001	1.00734E-004	0.00000E+000	7.85776E-005	5.99601E-002	7.80316E-001	3.57630E+000	9	...........
	36	0.493333	7.89122E-001	1.01660E-004	0.00000E+000	8.02218E-005	5.99601E-002	7.89394E-001	3.57630E+000	9	...........
	37	0.506667	7.97968E-001	1.01142E-004	0.00000E+000	8.07079E-005	5.99601E-002	7.98217E-001	3.57630E+000	9	...........
	38	0.52	8.06476E-001	1.00357E-004	0.00000E+000	8.09357E-005	5.99601E-002	8.06731E-001	3.57630E+000	9	...........
	39	0.533333	8.14733E-001	1.01481E-004	0.00000E+000	8.26803E-005	5.99601E-002	8.15015E-001	3.57630E+000	9	...........
	40	0.546667	8.22764E-001	1.01844E-004	0.00000E+000	8.37937E-005	5.99601E-002	8.23031E-001	3.57630E+000	9	...........
	41	0.56	8.30507E-001	9.99978E-005	0.00000E+000	8.30489E-005	5.99601E-002	8.30787E-001	3.57630E+000	9	...........
	42	0.573333	8.38004E-001	9.93904E-005	0.00000E+000	8.32895E-005	5.99601E-002	8.38303E-001	3.57630E+000	9	...........
	43	0.586667	8.45315E-001	1.01989E-004	0.00000E+000	8.62127E-005	5.99601E-002	8.45612E-001	3.57630E+000	9	...........
	44	0.6	8.52356E-001	1.01061E-004	0.00000E+000	8.61396E-005	5.99601E-002	8.52666E-001	3.57630E+000	9	...........
	45	0.613333	8.59191E-001	9.93852E-005	0.00000E+000	8.53909E-005	5.99601E-002	8.59516E-001	3.57630E+000	9	...........
	46	0.626667	8.65823E-001	9.94759E-005	0.00000E+000	8.61285E-005	5.99601E-002	8.66147E-001	3.57630E+000	9	...........
	47	0.64	8.72263E-001	1.01245E-004	0.00000E+000	8.83122E-005	5.99601E-002	8.72596E-001	3.57630E+000	9	...........
	48	0.653333	8.78509E-001	1.00744E-004	0.00000E+000	8.85043E-005	5.99601E-002	8.78838E-001	3.57630E+000	9	...........
	49	0.666667	8.84601E-001	1.00504E-004	0.00000E+000	8.89061E-005	5.99601E-002	8.84934E-001	3.57630E+000	9	...........
	50	0.68	8.90508E-001	1.02041E-004	0.00000E+000	9.08683E-005	5.99601E-002	8.90834E-001	3.57630E+000	9	...........
	51	0.693333	8.96254E-001	9.98040E-005	0.00000E+000	8.94498E-005	5.99601E-002	8.96614E-001	3.57630E+000	9	...........
	52	0.706667	9.01885E-001	1.00713E-004	0.00000E+000	9.08311E-005	5.99601E-002	9.02222E-001	3.57630E+000	9	...........
	53	0.72	9.07362E-001	1.00230E-004	0.00000E+000	9.09450E-005	5.99601E-002	9.07739E-001	3.57630E+000	9	...........
	54	0.733333	9.12765E-001	1.01002E-004	0.00000E+000	9.21913E-005	5.99601E-002	9.13114E-001	3.57630E+000	9	...........
	55	0.746667	9.18029E-001	1.00096E-004	0.00000E+000	9.18909E-005	5.99601E-002	9.18380E-001	3.57630E+000	9	...........
	56	0.76	9.23266E-001	1.02134E-004	0.00000E+000	9.42966E-005	5.99601E-002	9.23559E-001	3.57630E+000	9	...........
	57	0.773333	9.28333E-001	1.00603E-004	0.00000E+000	9.33933E-005	5.99601E-002	9.28629E-001	3.57630E+000	9	...........
	58	0.786667	9.33313E-001	1.00267E-004	0.00000E+000	9.35801E-005	5.99601E-002	9.33630E-001	3.57630E+000	9	...........
	59	0.8	9.38201E-001	1.00793E-004	0.00000E+000	9.45639E-005	5.99601E-002	9.38523E-001	3.57770E+000	9	...........
	60	0.813333	9.43017E-001	1.01010E-004	0.00000E+000	9.52537E-005	5.99601E-002	9.43330E-001	3.57770E+000	9	...........
	61	0.826667	9.47778E-001	1.01344E-004	0.00000E+000	9.60516E-005	5.99601E-002	9.48103E-001	3.57770E+000	9	...........
	62	0.84	9.52470E-001	1.01413E-004	0.00000E+000	9.65926E-005	5.99601E-002	9.52785E-001	3.57770E+000	9	...........
	63	0.853333	9.57054E-001	1.00659E-004	0.00000E+000	9.63365E-005	5.99601E-002	9.57386E-001	3.57770E+000	9	...........
	64	0.866667	9.61569E-001	1.00471E-004	0.00000E+000	9.66097E-005	5.99601E-002	9.61906E-001	3.57770E+000	9	...........
	65	0.88	9.65998E-001	1.01082E-004	0.00000E+000	9.76455E-005	5.99601E-002	9.66344E-001	3.57770E+000	9	...........
	66	0.893333	9.70366E-001	1.01813E-004	0.00000E+000	9.87957E-005	5.99601E-002	9.70740E-001	3.57770E+000	9	...........
	67	0.906667	9.74724E-001	1.00746E-004	0.00000E+000	9.81995E-005	5.99601E-002	9.75039E-001	3.57770E+000	9	...........
	68	0.92	9.78937E-001	1.01783E-004	0.00000E+000	9.96387E-005	5.99601E-002	9.79258E-001	3.57770E+000	9	...........
	69	0.933333	9.83076E-001	1.02466E-004	0.00000E+000	1.00732E-004	5.99601E-002	9.83394E-001	3.57770E+000	9	...........
	70	0.946667	9.87123E-001	1.01472E-004	0.00000E+000	1.00165E-004	5.99601E-002	9.87449E-001	3.57770E+000	9	...........
	71	0.96	9.91116E-001	1.00881E-004	0.00000E+000	9.99852E-005	5.99601E-002	9.91429E-001	3.57770E+000	9	...........
	72	0.97333	9.94978E-001	1.01798E-004	0.00000E+000	1.01287E-004	5.99601E-002	9.95305E-001	3.57770E+000	9	...........
	73	0.98667	9.98788E-001	1.00704E-004	0.00000E+000	1.00582E-004	5.99601E-002	9.99131E-001	3.57770E+000	9	...........
STARTTIMEOFFSET	QUANT	1765.697	Start Time Offset (s)
