EXPLAIN
TAG	PWR800_CHARGE
TITLE	LABEL	PWR Cyclic Charge Discharge (Cell) - Charge Step	Test &Identifier
DATE	LABEL	12-7-2017	Date
TIME	LABEL	16:30:14	Time
NOTES	NOTES	2	&Notes...
	supercap test cell
	6M KOH
PSTAT	PSTAT	IFC5000-01520	Potentiostat
CAPACITY	QUANT	1.00000E-003	Capacity (A-hr)
CELLTYPE	SELECTOR	1	&Cell Type
WORKINGCONNECTION	SELECTOR	0	&Working Lead
MAXCHARGETIME	VARIABLEANDUNITS	1.00000E+002	s	1.00000E+002	second(s)	Max &Charge Time
CHARGECURRENT	QUANT	1.00000E-004	&Charge Current (A) 
VOLTAGEFINISH	TWOPARAM	F	1.00000E-003	3.60000E+003	&Voltage Finish	 I (A) < 	Max Time(s)
SAMPLETIME	QUANT	1.00000E-002	Sa&mple Period (s)
CHARGESTOPAT1	MULTIPARAM	4	1.00000E+000	Charge Stop At &1	Voltage > Limit	V
CHARGESTOPAT2	MULTIPARAM	0	0.00000E+000	Charge Stop At &2	None	N/A
AESBHCSELECTOR	TOGGLE	F	Save Both Half Cells
IRCOMP	TOGGLE	F	IR &Measure
EOC	QUANT	0	Open Circuit (V)
SEQUENCER	TOGGLE	TRUE	Run as Sequence
PSTATMODEL	IQUANT	53	Pstat Model
PSTATSECTION	LABEL	IFC5000-01520	Pstat Section
PSTATSERIALNO	LABEL	01520	Pstat Serial Number
CTRLMODE	IQUANT	0	Control Mode
ELECTROMETER	IQUANT	1	RE=0 or CS=1
IESTAB	IQUANT	0	I/E Stability
CASPEED	IQUANT	4	Control Amp Speed
CONVENTION	IQUANT	1	Current Convention
ICHRANGE	IQUANT	2	Ich Range
ICHRANGEMODE	TOGGLE	T	Ich Auto Range
ICHOFFSETENABLE	TOGGLE	F	Ich Offset Enable
ICHOFFSET	QUANT	0	Ich Offset (V)
ICHFILTER	IQUANT	1	Ich Filter
VCHRANGE	IQUANT	2	Vch Range
VCHRANGEMODE	TOGGLE	T	Vch Auto Range
VCHOFFSETENABLE	TOGGLE	F	Vch Offset Enable
VCHOFFSET	QUANT	0	Vch Offset (V)
VCHFILTER	IQUANT	1	Vch Filter
IERANGELOWERLIMIT	IQUANT	9	I/E Range Lower Limit
IERANGEMODE	TOGGLE	F	I/E AutoRange
IERANGE	IQUANT	9	I/E Range
ACHSELECT	IQUANT	1	Ach Select
ACHRANGE	IQUANT	2	Ach Range
ACHOFFSETENABLE	TOGGLE	F	Ach Offset Enable
ACHOFFSET	QUANT	0	Ach Offset (V)
ACHFILTER	IQUANT	1	Ach Filter
CABLEID	IQUANT	14	Cable ID
DCCALDATE	LABEL	5-7-2017	DC Calibration Date
ACCALDATE	LABEL	12/3/2015	AC Calibration Date
FRAMEWORKVERSION	QUANT	7.01	Framework Version
INSTRUMENTVERSION	LABEL	4.00	Instrument Version
CURVE	TABLE	76
	Pt	T	Vf	Im	Vu	Pwr	Sig	Ach	Temp	IERange	Over
	#	s	V	A	V	W	V	V	deg C	#	bits
	0	0.013333	2.60128E-001	1.00533E-004	0.00000E+000	2.61515E-005	5.99601E-002	2.60206E-001	3.57760E+000	9	...........
	1	0.026667	2.83015E-001	1.00371E-004	0.00000E+000	2.84064E-005	5.99601E-002	2.83081E-001	3.57760E+000	9	...........
	2	0.04	3.04553E-001	1.01336E-004	0.00000E+000	3.08621E-005	5.99601E-002	3.04621E-001	3.57760E+000	9	...........
	3	0.053333	3.25119E-001	1.01176E-004	0.00000E+000	3.28944E-005	5.99601E-002	3.25184E-001	3.57760E+000	9	...........
	4	0.066667	3.44915E-001	9.97936E-005	0.00000E+000	3.44203E-005	5.99601E-002	3.44988E-001	3.57760E+000	9	...........
	5	0.08	3.64070E-001	1.01339E-004	0.00000E+000	3.68944E-005	5.99601E-002	3.64140E-001	3.57760E+000	9	...........
	6	0.093333	3.82660E-001	1.00778E-004	0.00000E+000	3.85638E-005	5.99601E-002	3.82740E-001	3.57760E+000	9	...........
	7	0.106667	4.00759E-001	1.00597E-004	0.00000E+000	4.03151E-005	5.99601E-002	4.00841E-001	3.57760E+000	9	...........
	8	0.12	4.18393E-001	1.00905E-004	0.00000E+000	4.22181E-005	5.99601E-002	4.18483E-001	3.57760E+000	9	...........
	9	0.133333	4.35610E-001	1.01430E-004	0.00000E+000	4.41841E-005	5.99601E-002	4.35707E-001	3.57760E+000	9	...........
	10	0.146667	4.52426E-001	1.00733E-004	0.00000E+000	4.55744E-005	5.99601E-002	4.52522E-001	3.57760E+000	9	...........
	11	0.16	4.68869E-001	9.98895E-005	0.00000E+000	4.68351E-005	5.99601E-002	4.68972E-001	3.57760E+000	9	...........
	12	0.173333	4.84960E-001	1.01515E-004	0.00000E+000	4.92306E-005	5.99601E-002	4.85067E-001	3.57760E+000	9	...........
	13	0.186667	5.00697E-001	1.00020E-004	0.00000E+000	5.00795E-005	5.99601E-002	5.00809E-001	3.57760E+000	9	...........
	14	0.2	5.16106E-001	1.00152E-004	0.00000E+000	5.16891E-005	5.99601E-002	5.16223E-001	3.57760E+000	9	...........
	15	0.213333	5.31113E-001	1.00606E-004	0.00000E+000	5.34333E-005	5.99601E-002	5.31243E-001	3.57760E+000	9	...........
	16	0.226667	5.45648E-001	1.00933E-004	0.00000E+000	5.50741E-005	5.99601E-002	5.45864E-001	3.57760E+000	9	...........
	17	0.24	5.60080E-001	1.01238E-004	0.00000E+000	5.67012E-005	5.99601E-002	5.60322E-001	3.57760E+000	9	...........
	18	0.253333	5.74229E-001	1.01018E-004	0.00000E+000	5.80073E-005	5.99601E-002	5.74492E-001	3.57760E+000	9	...........
	19	0.266667	5.88091E-001	1.00091E-004	0.00000E+000	5.88624E-005	5.99601E-002	5.88337E-001	3.57760E+000	9	...........
	20	0.28	6.01651E-001	1.02320E-004	0.00000E+000	6.15611E-005	5.99601E-002	6.01913E-001	3.57760E+000	9	...........
	21	0.293333	6.14932E-001	1.01947E-004	0.00000E+000	6.26906E-005	5.99601E-002	6.15187E-001	3.57760E+000	9	...........
	22	0.306667	6.27917E-001	1.00056E-004	0.00000E+000	6.28270E-005	5.99601E-002	6.28152E-001	3.57760E+000	9	...........
	23	0.32	6.40616E-001	1.01559E-004	0.00000E+000	6.50600E-005	5.99601E-002	6.40858E-001	3.57760E+000	9	...........
	24	0.333333	6.53028E-001	1.02057E-004	0.00000E+000	6.66458E-005	5.99601E-002	6.53266E-001	3.57760E+000	9	...........
	25	0.346667	6.65181E-001	1.00553E-004	0.00000E+000	6.68861E-005	5.99601E-002	6.65402E-001	3.57760E+000	9	...........
	26	0.36	6.77034E-001	1.01754E-004	0.00000E+000	6.88912E-005	5.99601E-002	6.77257E-001	3.57760E+000	9	...........
	27	0.373333	6.88610E-001	1.00607E-004	0.00000E+000	6.92792E-005	5.99601E-002	6.88820E-001	3.57760E+000	9	...........
	28	0.386667	6.99916E-001	1.00730E-004	0.00000E+000	7.05028E-005	5.99601E-002	7.00118E-001	3.57760E+000	9	...........
	29	0.4	7.10928E-001	1.00946E-004	0.00000E+000	7.17653E-005	5.99601E-002	7.11169E-001	3.57760E+000	9	...........
	30	0.413333	7.21744E-001	1.01802E-004	0.00000E+000	7.34753E-005	5.99601E-002	7.21975E-001	3.57760E+000	9	...........
	31	0.426667	7.32220E-001	1.01148E-004	0.00000E+000	7.40626E-005	5.99601E-002	7.32451E-001	3.57760E+000	9	...........
	32	0.44	7.42442E-001	1.02262E-004	0.00000E+000	7.59235E-005	5.99601E-002	7.42691E-001	3.57760E+000	9	...........
	33	0.453333	7.52420E-001	1.01660E-004	0.00000E+000	7.64907E-005	5.99601E-002	7.52683E-001	3.57760E+000	9	...........
	34	0.466667	7.62133E-001	1.00825E-004	0.00000E+000	7.68421E-005	5.99601E-002	7.62396E-001	3.57760E+000	9	...........
	35	0.48	7.71617E-001	1.03134E-004	0.00000E+000	7.95798E-005	5.99601E-002	7.71882E-001	3.57760E+000	9	...........
	36	0.493333	7.80818E-001	1.01528E-004	0.00000E+000	7.92751E-005	5.99601E-002	7.81094E-001	3.57760E+000	9	...........
	37	0.506667	7.89751E-001	1.00355E-004	0.00000E+000	7.92556E-005	5.99601E-002	7.90056E-001	3.57760E+000	9	...........
	38	0.52	7.98474E-001	1.01199E-004	0.00000E+000	8.08049E-005	5.99601E-002	7.98783E-001	3.57760E+000	9	...........
	39	0.533333	8.06930E-001	1.01016E-004	0.00000E+000	8.15126E-005	5.99601E-002	8.07223E-001	3.57760E+000	9	...........
	40	0.546667	8.15150E-001	1.01913E-004	0.00000E+000	8.30743E-005	5.99601E-002	8.15466E-001	3.57760E+000	9	...........
	41	0.56	8.23137E-001	1.01138E-004	0.00000E+000	8.32501E-005	5.99601E-002	8.23453E-001	3.57760E+000	9	...........
	42	0.573333	8.30870E-001	1.01004E-004	0.00000E+000	8.39214E-005	5.99601E-002	8.31190E-001	3.57760E+000	9	...........
	43	0.586667	8.38366E-001	1.00752E-004	0.00000E+000	8.44672E-005	5.99601E-002	8.38700E-001	3.57760E+000	9	...........
	44	0.6	8.45678E-001	1.00893E-004	0.00000E+000	8.53228E-005	5.99601E-002	8.46022E-001	3.57760E+000	9	...........
	45	0.613333	8.52732E-001	1.02609E-004	0.00000E+000	8.74978E-005	5.99601E-002	8.53086E-001	3.57760E+000	9	...........
	46	0.626667	8.59562E-001	1.00336E-004	0.00000E+000	8.62454E-005	5.99601E-002	8.59908E-001	3.57760E+000	9	...........
	47	0.64	8.66192E-001	1.00435E-004	0.00000E+000	8.69963E-005	5.99601E-002	8.66518E-001	3.57760E+000	9	...........
	48	0.653333	8.72653E-001	1.00522E-004	0.00000E+000	8.77207E-005	5.99601E-002	8.72982E-001	3.57760E+000	9	...........
	49	0.666667	8.78860E-001	1.00572E-004	0.00000E+000	8.83886E-005	5.99601E-002	8.79191E-001	3.57775E+000	9	...........
	50	0.68	8.84921E-001	1.01295E-004	0.00000E+000	8.96381E-005	5.99601E-002	8.85247E-001	3.57810E+000	9	...........
	51	0.693333	8.90766E-001	1.01016E-004	0.00000E+000	8.99814E-005	5.99601E-002	8.91099E-001	3.57810E+000	9	...........
	52	0.706667	8.96475E-001	9.97811E-005	0.00000E+000	8.94513E-005	5.99601E-002	8.96803E-001	3.57810E+000	9	...........
	53	0.72	9.02020E-001	1.00676E-004	0.00000E+000	9.08119E-005	5.99601E-002	9.02359E-001	3.57810E+000	9	...........
	54	0.733333	9.07419E-001	1.01715E-004	0.00000E+000	9.22980E-005	5.99601E-002	9.07753E-001	3.57810E+000	9	...........
	55	0.746667	9.12694E-001	1.01821E-004	0.00000E+000	9.29315E-005	5.99601E-002	9.13022E-001	3.57810E+000	9	...........
	56	0.76	9.17831E-001	1.01348E-004	0.00000E+000	9.30204E-005	5.99601E-002	9.18182E-001	3.57810E+000	9	...........
	57	0.773333	9.22926E-001	9.95634E-005	0.00000E+000	9.18897E-005	5.99601E-002	9.23208E-001	3.57810E+000	9	...........
	58	0.786667	9.27828E-001	1.01536E-004	0.00000E+000	9.42076E-005	5.99601E-002	9.28117E-001	3.57810E+000	9	...........
	59	0.8	9.32645E-001	1.00946E-004	0.00000E+000	9.41467E-005	5.99601E-002	9.32943E-001	3.57810E+000	9	...........
	60	0.813333	9.37375E-001	1.01808E-004	0.00000E+000	9.54319E-005	5.99601E-002	9.37690E-001	3.57810E+000	9	...........
	61	0.826667	9.42002E-001	1.00641E-004	0.00000E+000	9.48037E-005	5.99601E-002	9.42305E-001	3.57810E+000	9	...........
	62	0.84	9.46553E-001	1.01135E-004	0.00000E+000	9.57291E-005	5.99601E-002	9.46904E-001	3.57810E+000	9	...........
	63	0.853333	9.51063E-001	1.00732E-004	0.00000E+000	9.58028E-005	5.99601E-002	9.51390E-001	3.57810E+000	9	...........
	64	0.866667	9.55452E-001	1.00848E-004	0.00000E+000	9.63554E-005	5.99601E-002	9.55779E-001	3.57810E+000	9	...........
	65	0.88	9.59751E-001	1.01504E-004	0.00000E+000	9.74190E-005	5.99601E-002	9.60098E-001	3.57810E+000	9	...........
	66	0.893333	9.63970E-001	1.01647E-004	0.00000E+000	9.79848E-005	5.99601E-002	9.64330E-001	3.57810E+000	9	...........
	67	0.906667	9.68138E-001	1.01758E-004	0.00000E+000	9.85154E-005	5.99601E-002	9.68480E-001	3.57810E+000	9	...........
	68	0.92	9.72246E-001	1.00177E-004	0.00000E+000	9.73967E-005	5.99601E-002	9.72593E-001	3.57810E+000	9	...........
	69	0.933333	9.76276E-001	9.99114E-005	0.00000E+000	9.75411E-005	5.99601E-002	9.76606E-001	3.57810E+000	9	...........
	70	0.946667	9.80212E-001	1.01588E-004	0.00000E+000	9.95776E-005	5.99601E-002	9.80531E-001	3.57810E+000	9	...........
	71	0.96	9.84071E-001	1.02714E-004	0.00000E+000	1.01078E-004	5.99601E-002	9.84382E-001	3.57810E+000	9	...........
	72	0.97333	9.87812E-001	1.00979E-004	0.00000E+000	9.97485E-005	5.99601E-002	9.88125E-001	3.57810E+000	9	...........
	73	0.98667	9.91498E-001	1.00942E-004	0.00000E+000	1.00084E-004	5.99601E-002	9.91817E-001	3.57810E+000	9	...........
	74	1	9.95090E-001	1.01714E-004	0.00000E+000	1.01214E-004	5.99601E-002	9.95419E-001	3.57810E+000	9	...........
	75	1.01333	9.98614E-001	1.02013E-004	0.00000E+000	1.01871E-004	5.99601E-002	9.98965E-001	3.57810E+000	9	...........
STARTTIMEOFFSET	QUANT	863.8588	Start Time Offset (s)
