EXPLAIN
TAG	PWR800_CHARGE
TITLE	LABEL	PWR Cyclic Charge Discharge (Cell) - Charge Step	Test &Identifier
DATE	LABEL	12-7-2017	Date
TIME	LABEL	16:36:37	Time
NOTES	NOTES	2	&Notes...
	supercap test cell
	6M KOH
PSTAT	PSTAT	IFC5000-01520	Potentiostat
CAPACITY	QUANT	1.00000E-003	Capacity (A-hr)
CELLTYPE	SELECTOR	1	&Cell Type
WORKINGCONNECTION	SELECTOR	0	&Working Lead
MAXCHARGETIME	VARIABLEANDUNITS	1.00000E+002	s	1.00000E+002	second(s)	Max &Charge Time
CHARGECURRENT	QUANT	1.00000E-004	&Charge Current (A) 
VOLTAGEFINISH	TWOPARAM	F	1.00000E-003	3.60000E+003	&Voltage Finish	 I (A) < 	Max Time(s)
SAMPLETIME	QUANT	1.00000E-002	Sa&mple Period (s)
CHARGESTOPAT1	MULTIPARAM	4	1.00000E+000	Charge Stop At &1	Voltage > Limit	V
CHARGESTOPAT2	MULTIPARAM	0	0.00000E+000	Charge Stop At &2	None	N/A
AESBHCSELECTOR	TOGGLE	F	Save Both Half Cells
IRCOMP	TOGGLE	F	IR &Measure
EOC	QUANT	0	Open Circuit (V)
SEQUENCER	TOGGLE	TRUE	Run as Sequence
PSTATMODEL	IQUANT	53	Pstat Model
PSTATSECTION	LABEL	IFC5000-01520	Pstat Section
PSTATSERIALNO	LABEL	01520	Pstat Serial Number
CTRLMODE	IQUANT	0	Control Mode
ELECTROMETER	IQUANT	1	RE=0 or CS=1
IESTAB	IQUANT	0	I/E Stability
CASPEED	IQUANT	4	Control Amp Speed
CONVENTION	IQUANT	1	Current Convention
ICHRANGE	IQUANT	2	Ich Range
ICHRANGEMODE	TOGGLE	T	Ich Auto Range
ICHOFFSETENABLE	TOGGLE	F	Ich Offset Enable
ICHOFFSET	QUANT	0	Ich Offset (V)
ICHFILTER	IQUANT	1	Ich Filter
VCHRANGE	IQUANT	2	Vch Range
VCHRANGEMODE	TOGGLE	T	Vch Auto Range
VCHOFFSETENABLE	TOGGLE	F	Vch Offset Enable
VCHOFFSET	QUANT	0	Vch Offset (V)
VCHFILTER	IQUANT	1	Vch Filter
IERANGELOWERLIMIT	IQUANT	9	I/E Range Lower Limit
IERANGEMODE	TOGGLE	F	I/E AutoRange
IERANGE	IQUANT	9	I/E Range
ACHSELECT	IQUANT	1	Ach Select
ACHRANGE	IQUANT	2	Ach Range
ACHOFFSETENABLE	TOGGLE	F	Ach Offset Enable
ACHOFFSET	QUANT	0	Ach Offset (V)
ACHFILTER	IQUANT	1	Ach Filter
CABLEID	IQUANT	14	Cable ID
DCCALDATE	LABEL	5-7-2017	DC Calibration Date
ACCALDATE	LABEL	12/3/2015	AC Calibration Date
FRAMEWORKVERSION	QUANT	7.01	Framework Version
INSTRUMENTVERSION	LABEL	4.00	Instrument Version
CURVE	TABLE	76
	Pt	T	Vf	Im	Vu	Pwr	Sig	Ach	Temp	IERange	Over
	#	s	V	A	V	W	V	V	deg C	#	bits
	0	0.013333	2.60109E-001	1.01088E-004	0.00000E+000	2.62939E-005	5.99601E-002	2.60176E-001	3.57810E+000	9	...........
	1	0.026667	2.83009E-001	1.01559E-004	0.00000E+000	2.87420E-005	5.99601E-002	2.83072E-001	3.57810E+000	9	...........
	2	0.04	3.04631E-001	1.01140E-004	0.00000E+000	3.08103E-005	5.99601E-002	3.04693E-001	3.57810E+000	9	...........
	3	0.053333	3.25329E-001	1.01847E-004	0.00000E+000	3.31339E-005	5.99601E-002	3.25397E-001	3.57810E+000	9	...........
	4	0.066667	3.45281E-001	9.96686E-005	0.00000E+000	3.44137E-005	5.99601E-002	3.45350E-001	3.57810E+000	9	...........
	5	0.08	3.64613E-001	1.00283E-004	0.00000E+000	3.65646E-005	5.99601E-002	3.64692E-001	3.57810E+000	9	...........
	6	0.093333	3.83416E-001	1.00927E-004	0.00000E+000	3.86971E-005	5.99601E-002	3.83498E-001	3.57810E+000	9	...........
	7	0.106667	4.01735E-001	1.00334E-004	0.00000E+000	4.03078E-005	5.99601E-002	4.01817E-001	3.57810E+000	9	...........
	8	0.12	4.19614E-001	1.01467E-004	0.00000E+000	4.25770E-005	5.99601E-002	4.19705E-001	3.57810E+000	9	...........
	9	0.133333	4.37070E-001	1.01379E-004	0.00000E+000	4.43098E-005	5.99601E-002	4.37168E-001	3.57810E+000	9	...........
	10	0.146667	4.54130E-001	1.00747E-004	0.00000E+000	4.57522E-005	5.99601E-002	4.54230E-001	3.57810E+000	9	...........
	11	0.16	4.70816E-001	1.01268E-004	0.00000E+000	4.76785E-005	5.99601E-002	4.70921E-001	3.57810E+000	9	...........
	12	0.173333	4.87134E-001	1.00638E-004	0.00000E+000	4.90240E-005	5.99601E-002	4.87240E-001	3.57810E+000	9	...........
	13	0.186667	5.03106E-001	1.01179E-004	0.00000E+000	5.09039E-005	5.99601E-002	5.03214E-001	3.57810E+000	9	...........
	14	0.2	5.18735E-001	1.00129E-004	0.00000E+000	5.19405E-005	5.99601E-002	5.18848E-001	3.57810E+000	9	...........
	15	0.213333	5.33890E-001	1.00373E-004	0.00000E+000	5.35881E-005	5.99601E-002	5.34065E-001	3.57810E+000	9	...........
	16	0.226667	5.48689E-001	1.00400E-004	0.00000E+000	5.50884E-005	5.99601E-002	5.48940E-001	3.57810E+000	9	...........
	17	0.24	5.63366E-001	1.00939E-004	0.00000E+000	5.68654E-005	5.99601E-002	5.63599E-001	3.57810E+000	9	...........
	18	0.253333	5.77669E-001	1.02080E-004	0.00000E+000	5.89681E-005	5.99601E-002	5.77938E-001	3.57810E+000	9	...........
	19	0.266667	5.91688E-001	1.03100E-004	0.00000E+000	6.10027E-005	5.99601E-002	5.91938E-001	3.57810E+000	9	...........
	20	0.28	6.05364E-001	1.00638E-004	0.00000E+000	6.09223E-005	5.99601E-002	6.05631E-001	3.57810E+000	9	...........
	21	0.293333	6.18798E-001	9.94227E-005	0.00000E+000	6.15225E-005	5.99601E-002	6.19029E-001	3.57810E+000	9	...........
	22	0.306667	6.31847E-001	1.01563E-004	0.00000E+000	6.41722E-005	5.99601E-002	6.32094E-001	3.57810E+000	9	...........
	23	0.32	6.44648E-001	1.00839E-004	0.00000E+000	6.50055E-005	5.99601E-002	6.44908E-001	3.57810E+000	9	...........
	24	0.333333	6.57144E-001	1.00659E-004	0.00000E+000	6.61478E-005	5.99601E-002	6.57376E-001	3.57810E+000	9	...........
	25	0.346667	6.69326E-001	1.00282E-004	0.00000E+000	6.71216E-005	5.99601E-002	6.69567E-001	3.57810E+000	9	...........
	26	0.36	6.81211E-001	1.00597E-004	0.00000E+000	6.85277E-005	5.99601E-002	6.81453E-001	3.57810E+000	9	...........
	27	0.373333	6.92804E-001	1.01879E-004	0.00000E+000	7.05825E-005	5.99601E-002	6.93074E-001	3.57810E+000	9	...........
	28	0.386667	7.04104E-001	1.00952E-004	0.00000E+000	7.10809E-005	5.99601E-002	7.04369E-001	3.57810E+000	9	...........
	29	0.4	7.15136E-001	1.01393E-004	0.00000E+000	7.25097E-005	5.99601E-002	7.15414E-001	3.57810E+000	9	...........
	30	0.413333	7.25896E-001	1.00924E-004	0.00000E+000	7.32604E-005	5.99601E-002	7.26150E-001	3.57810E+000	9	...........
	31	0.426667	7.36314E-001	1.01202E-004	0.00000E+000	7.45166E-005	5.99601E-002	7.36610E-001	3.57810E+000	9	...........
	32	0.44	7.46536E-001	1.00130E-004	0.00000E+000	7.47508E-005	5.99601E-002	7.46803E-001	3.57810E+000	9	...........
	33	0.453333	7.56476E-001	1.00739E-004	0.00000E+000	7.62064E-005	5.99601E-002	7.56714E-001	3.57810E+000	9	...........
	34	0.466667	7.66082E-001	1.01814E-004	0.00000E+000	7.79978E-005	5.99601E-002	7.66371E-001	3.57810E+000	9	...........
	35	0.48	7.75483E-001	1.01309E-004	0.00000E+000	7.85631E-005	5.99601E-002	7.75781E-001	3.57810E+000	9	...........
	36	0.493333	7.84605E-001	1.00989E-004	0.00000E+000	7.92362E-005	5.99601E-002	7.84884E-001	3.57810E+000	9	...........
	37	0.506667	7.93483E-001	1.00782E-004	0.00000E+000	7.99691E-005	5.99601E-002	7.93751E-001	3.57807E+000	9	...........
	38	0.52	8.02089E-001	1.01614E-004	0.00000E+000	8.15033E-005	5.99601E-002	8.02381E-001	3.57770E+000	9	...........
	39	0.533333	8.10427E-001	1.01992E-004	0.00000E+000	8.26571E-005	5.99601E-002	8.10692E-001	3.57770E+000	9	...........
	40	0.546667	8.18541E-001	1.00003E-004	0.00000E+000	8.18566E-005	5.99601E-002	8.18827E-001	3.57770E+000	9	...........
	41	0.56	8.26403E-001	1.01047E-004	0.00000E+000	8.35056E-005	5.99601E-002	8.26708E-001	3.57770E+000	9	...........
	42	0.573333	8.34023E-001	1.01536E-004	0.00000E+000	8.46831E-005	5.99601E-002	8.34308E-001	3.57770E+000	9	...........
	43	0.586667	8.41374E-001	1.01909E-004	0.00000E+000	8.57433E-005	5.99601E-002	8.41696E-001	3.57770E+000	9	...........
	44	0.6	8.48549E-001	1.01937E-004	0.00000E+000	8.64983E-005	5.99601E-002	8.48862E-001	3.57770E+000	9	...........
	45	0.613333	8.55469E-001	1.01926E-004	0.00000E+000	8.71948E-005	5.99601E-002	8.55788E-001	3.57770E+000	9	...........
	46	0.626667	8.62171E-001	1.00644E-004	0.00000E+000	8.67722E-005	5.99601E-002	8.62472E-001	3.57770E+000	9	...........
	47	0.64	8.68687E-001	1.00403E-004	0.00000E+000	8.72189E-005	5.99601E-002	8.68998E-001	3.57770E+000	9	...........
	48	0.653333	8.74999E-001	1.00460E-004	0.00000E+000	8.79027E-005	5.99601E-002	8.75308E-001	3.57770E+000	9	...........
	49	0.666667	8.81117E-001	1.00060E-004	0.00000E+000	8.81649E-005	5.99601E-002	8.81439E-001	3.57770E+000	9	...........
	50	0.68	8.87071E-001	1.01577E-004	0.00000E+000	9.01063E-005	5.99601E-002	8.87389E-001	3.57770E+000	9	...........
	51	0.693333	8.92848E-001	1.00824E-004	0.00000E+000	9.00205E-005	5.99601E-002	8.93158E-001	3.57770E+000	9	...........
	52	0.706667	8.98470E-001	1.00539E-004	0.00000E+000	9.03309E-005	5.99601E-002	8.98797E-001	3.57770E+000	9	...........
	53	0.72	9.03944E-001	1.00564E-004	0.00000E+000	9.09039E-005	5.99601E-002	9.04294E-001	3.57770E+000	9	...........
	54	0.733333	9.09324E-001	1.00797E-004	0.00000E+000	9.16571E-005	5.99601E-002	9.09645E-001	3.57770E+000	9	...........
	55	0.746667	9.14552E-001	1.00747E-004	0.00000E+000	9.21383E-005	5.99601E-002	9.14878E-001	3.57770E+000	9	...........
	56	0.76	9.19685E-001	1.01876E-004	0.00000E+000	9.36942E-005	5.99601E-002	9.20003E-001	3.57770E+000	9	...........
	57	0.773333	9.24736E-001	1.00952E-004	0.00000E+000	9.33541E-005	5.99601E-002	9.25007E-001	3.57770E+000	9	...........
	58	0.786667	9.29665E-001	1.01910E-004	0.00000E+000	9.47419E-005	5.99601E-002	9.29934E-001	3.57770E+000	9	...........
	59	0.8	9.34477E-001	1.00733E-004	0.00000E+000	9.41330E-005	5.99601E-002	9.34760E-001	3.57770E+000	9	...........
	60	0.813333	9.39220E-001	1.01262E-004	0.00000E+000	9.51069E-005	5.99601E-002	9.39510E-001	3.57770E+000	9	...........
	61	0.826667	9.43882E-001	1.00884E-004	0.00000E+000	9.52230E-005	5.99601E-002	9.44168E-001	3.57770E+000	9	...........
	62	0.84	9.48492E-001	1.01853E-004	0.00000E+000	9.66072E-005	5.99601E-002	9.48765E-001	3.57770E+000	9	...........
	63	0.853333	9.52986E-001	1.00664E-004	0.00000E+000	9.59310E-005	5.99601E-002	9.53259E-001	3.57770E+000	9	...........
	64	0.866667	9.57380E-001	1.01128E-004	0.00000E+000	9.68182E-005	5.99601E-002	9.57688E-001	3.57770E+000	9	...........
	65	0.88	9.61734E-001	1.01172E-004	0.00000E+000	9.73006E-005	5.99601E-002	9.62050E-001	3.57770E+000	9	...........
	66	0.893333	9.66016E-001	1.00902E-004	0.00000E+000	9.74731E-005	5.99601E-002	9.66326E-001	3.57770E+000	9	...........
	67	0.906667	9.70195E-001	1.01099E-004	0.00000E+000	9.80859E-005	5.99601E-002	9.70560E-001	3.57770E+000	9	...........
	68	0.92	9.74365E-001	1.00289E-004	0.00000E+000	9.77177E-005	5.99601E-002	9.74704E-001	3.57770E+000	9	...........
	69	0.933333	9.78422E-001	1.00957E-004	0.00000E+000	9.87789E-005	5.99601E-002	9.78756E-001	3.57770E+000	9	...........
	70	0.946667	9.82365E-001	1.01700E-004	0.00000E+000	9.99067E-005	5.99601E-002	9.82701E-001	3.57770E+000	9	...........
	71	0.96	9.86246E-001	1.02525E-004	0.00000E+000	1.01115E-004	5.99601E-002	9.86622E-001	3.57770E+000	9	...........
	72	0.97333	9.90046E-001	1.01657E-004	0.00000E+000	1.00645E-004	5.99601E-002	9.90416E-001	3.57770E+000	9	...........
	73	0.98667	9.93766E-001	9.93154E-005	0.00000E+000	9.86963E-005	5.99601E-002	9.94130E-001	3.57770E+000	9	...........
	74	1	9.97418E-001	1.00306E-004	0.00000E+000	1.00047E-004	5.99601E-002	9.97786E-001	3.57770E+000	9	...........
	75	1.005	9.99866E-001	1.00731E-004	0.00000E+000	1.00718E-004	5.99601E-002	1.00024E+000	3.57770E+000	9	...........
STARTTIMEOFFSET	QUANT	1134.947	Start Time Offset (s)
