EXPLAIN
TAG	PWR800_CHARGE
TITLE	LABEL	PWR Cyclic Charge Discharge (Cell) - Charge Step	Test &Identifier
DATE	LABEL	12-7-2017	Date
TIME	LABEL	16:28:25	Time
NOTES	NOTES	2	&Notes...
	supercap test cell
	6M KOH
PSTAT	PSTAT	IFC5000-01520	Potentiostat
CAPACITY	QUANT	1.00000E-003	Capacity (A-hr)
CELLTYPE	SELECTOR	1	&Cell Type
WORKINGCONNECTION	SELECTOR	0	&Working Lead
MAXCHARGETIME	VARIABLEANDUNITS	1.00000E+002	s	1.00000E+002	second(s)	Max &Charge Time
CHARGECURRENT	QUANT	1.00000E-004	&Charge Current (A) 
VOLTAGEFINISH	TWOPARAM	F	1.00000E-003	3.60000E+003	&Voltage Finish	 I (A) < 	Max Time(s)
SAMPLETIME	QUANT	1.00000E-002	Sa&mple Period (s)
CHARGESTOPAT1	MULTIPARAM	4	1.00000E+000	Charge Stop At &1	Voltage > Limit	V
CHARGESTOPAT2	MULTIPARAM	0	0.00000E+000	Charge Stop At &2	None	N/A
AESBHCSELECTOR	TOGGLE	F	Save Both Half Cells
IRCOMP	TOGGLE	F	IR &Measure
EOC	QUANT	0	Open Circuit (V)
SEQUENCER	TOGGLE	TRUE	Run as Sequence
PSTATMODEL	IQUANT	53	Pstat Model
PSTATSECTION	LABEL	IFC5000-01520	Pstat Section
PSTATSERIALNO	LABEL	01520	Pstat Serial Number
CTRLMODE	IQUANT	0	Control Mode
ELECTROMETER	IQUANT	1	RE=0 or CS=1
IESTAB	IQUANT	0	I/E Stability
CASPEED	IQUANT	4	Control Amp Speed
CONVENTION	IQUANT	1	Current Convention
ICHRANGE	IQUANT	2	Ich Range
ICHRANGEMODE	TOGGLE	T	Ich Auto Range
ICHOFFSETENABLE	TOGGLE	F	Ich Offset Enable
ICHOFFSET	QUANT	0	Ich Offset (V)
ICHFILTER	IQUANT	1	Ich Filter
VCHRANGE	IQUANT	2	Vch Range
VCHRANGEMODE	TOGGLE	T	Vch Auto Range
VCHOFFSETENABLE	TOGGLE	F	Vch Offset Enable
VCHOFFSET	QUANT	0	Vch Offset (V)
VCHFILTER	IQUANT	1	Vch Filter
IERANGELOWERLIMIT	IQUANT	9	I/E Range Lower Limit
IERANGEMODE	TOGGLE	F	I/E AutoRange
IERANGE	IQUANT	9	I/E Range
ACHSELECT	IQUANT	1	Ach Select
ACHRANGE	IQUANT	2	Ach Range
ACHOFFSETENABLE	TOGGLE	F	Ach Offset Enable
ACHOFFSET	QUANT	0	Ach Offset (V)
ACHFILTER	IQUANT	1	Ach Filter
CABLEID	IQUANT	14	Cable ID
DCCALDATE	LABEL	5-7-2017	DC Calibration Date
ACCALDATE	LABEL	12/3/2015	AC Calibration Date
FRAMEWORKVERSION	QUANT	7.01	Framework Version
INSTRUMENTVERSION	LABEL	4.00	Instrument Version
CURVE	TABLE	77
	Pt	T	Vf	Im	Vu	Pwr	Sig	Ach	Temp	IERange	Over
	#	s	V	A	V	W	V	V	deg C	#	bits
	0	0.013333	2.58649E-001	1.00540E-004	0.00000E+000	2.60045E-005	5.99601E-002	2.58716E-001	3.57810E+000	9	...........
	1	0.026667	2.81519E-001	1.00796E-004	0.00000E+000	2.83760E-005	5.99601E-002	2.81584E-001	3.57810E+000	9	...........
	2	0.04	3.03040E-001	1.01018E-004	0.00000E+000	3.06124E-005	5.99601E-002	3.03109E-001	3.57810E+000	9	...........
	3	0.053333	3.23587E-001	1.01491E-004	0.00000E+000	3.28411E-005	5.99601E-002	3.23655E-001	3.57810E+000	9	...........
	4	0.066667	3.43350E-001	1.00769E-004	0.00000E+000	3.45990E-005	5.99601E-002	3.43423E-001	3.57810E+000	9	...........
	5	0.08	3.62458E-001	1.00868E-004	0.00000E+000	3.65603E-005	5.99601E-002	3.62536E-001	3.57810E+000	9	...........
	6	0.093333	3.81006E-001	1.01994E-004	0.00000E+000	3.88604E-005	5.99601E-002	3.81082E-001	3.57810E+000	9	...........
	7	0.106667	3.99050E-001	1.01503E-004	0.00000E+000	4.05049E-005	5.99601E-002	3.99129E-001	3.57810E+000	9	...........
	8	0.12	4.16631E-001	1.00250E-004	0.00000E+000	4.17673E-005	5.99601E-002	4.16722E-001	3.57810E+000	9	...........
	9	0.133333	4.33801E-001	1.02430E-004	0.00000E+000	4.44341E-005	5.99601E-002	4.33892E-001	3.57810E+000	9	...........
	10	0.146667	4.50561E-001	1.01198E-004	0.00000E+000	4.55959E-005	5.99601E-002	4.50659E-001	3.57810E+000	9	...........
	11	0.16	4.66952E-001	1.00423E-004	0.00000E+000	4.68927E-005	5.99601E-002	4.67051E-001	3.57810E+000	9	...........
	12	0.173333	4.82984E-001	1.01018E-004	0.00000E+000	4.87900E-005	5.99601E-002	4.83086E-001	3.57810E+000	9	...........
	13	0.186667	4.98663E-001	1.01036E-004	0.00000E+000	5.03827E-005	5.99601E-002	4.98774E-001	3.57810E+000	9	...........
	14	0.2	5.14020E-001	1.00749E-004	0.00000E+000	5.17870E-005	5.99601E-002	5.14135E-001	3.57810E+000	9	...........
	15	0.213333	5.29008E-001	1.01412E-004	0.00000E+000	5.36476E-005	5.99601E-002	5.29135E-001	3.57810E+000	9	...........
	16	0.226667	5.43494E-001	1.00745E-004	0.00000E+000	5.47542E-005	5.99601E-002	5.43689E-001	3.57810E+000	9	...........
	17	0.24	5.57891E-001	1.01865E-004	0.00000E+000	5.68295E-005	5.99601E-002	5.58110E-001	3.57810E+000	9	...........
	18	0.253333	5.72032E-001	1.01127E-004	0.00000E+000	5.78480E-005	5.99601E-002	5.72225E-001	3.57810E+000	9	...........
	19	0.266667	5.85835E-001	1.03246E-004	0.00000E+000	6.04854E-005	5.99601E-002	5.86048E-001	3.57810E+000	9	...........
	20	0.28	5.99342E-001	9.99134E-005	0.00000E+000	5.98823E-005	5.99601E-002	5.99580E-001	3.57810E+000	9	...........
	21	0.293333	6.12590E-001	1.02112E-004	0.00000E+000	6.25527E-005	5.99601E-002	6.12823E-001	3.57810E+000	9	...........
	22	0.306667	6.25573E-001	1.01246E-004	0.00000E+000	6.33367E-005	5.99601E-002	6.25779E-001	3.57810E+000	9	...........
	23	0.32	6.38240E-001	1.01304E-004	0.00000E+000	6.46565E-005	5.99601E-002	6.38489E-001	3.57810E+000	9	...........
	24	0.333333	6.50659E-001	1.01088E-004	0.00000E+000	6.57736E-005	5.99601E-002	6.50912E-001	3.57810E+000	9	...........
	25	0.346667	6.62794E-001	1.01248E-004	0.00000E+000	6.71066E-005	5.99601E-002	6.63045E-001	3.57810E+000	9	...........
	26	0.36	6.74671E-001	9.99030E-005	0.00000E+000	6.74017E-005	5.99601E-002	6.74930E-001	3.57810E+000	9	...........
	27	0.373333	6.86243E-001	1.00041E-004	0.00000E+000	6.86521E-005	5.99601E-002	6.86512E-001	3.57810E+000	9	...........
	28	0.386667	6.97573E-001	1.01692E-004	0.00000E+000	7.09376E-005	5.99601E-002	6.97817E-001	3.57810E+000	9	...........
	29	0.4	7.08618E-001	1.01523E-004	0.00000E+000	7.19412E-005	5.99601E-002	7.08888E-001	3.57810E+000	9	...........
	30	0.413333	7.19451E-001	1.00042E-004	0.00000E+000	7.19750E-005	5.99601E-002	7.19699E-001	3.57810E+000	9	...........
	31	0.426667	7.29967E-001	1.00505E-004	0.00000E+000	7.33656E-005	5.99601E-002	7.30241E-001	3.57810E+000	9	...........
	32	0.44	7.40239E-001	1.01125E-004	0.00000E+000	7.48568E-005	5.99601E-002	7.40484E-001	3.57810E+000	9	...........
	33	0.453333	7.50262E-001	1.00681E-004	0.00000E+000	7.55374E-005	5.99601E-002	7.50510E-001	3.57700E+000	9	...........
	34	0.466667	7.60035E-001	1.00972E-004	0.00000E+000	7.67422E-005	5.99601E-002	7.60271E-001	3.57700E+000	9	...........
	35	0.48	7.69527E-001	1.01603E-004	0.00000E+000	7.81866E-005	5.99601E-002	7.69794E-001	3.57700E+000	9	...........
	36	0.493333	7.78791E-001	1.01186E-004	0.00000E+000	7.88024E-005	5.99601E-002	7.79034E-001	3.57700E+000	9	...........
	37	0.506667	7.87790E-001	1.01661E-004	0.00000E+000	8.00873E-005	5.99601E-002	7.88051E-001	3.57700E+000	9	...........
	38	0.52	7.96572E-001	1.01311E-004	0.00000E+000	8.07012E-005	5.99601E-002	7.96818E-001	3.57700E+000	9	...........
	39	0.533333	8.05075E-001	9.99301E-005	0.00000E+000	8.04513E-005	5.99601E-002	8.05341E-001	3.57700E+000	9	...........
	40	0.546667	8.13345E-001	1.02210E-004	0.00000E+000	8.31318E-005	5.99601E-002	8.13602E-001	3.57700E+000	9	...........
	41	0.56	8.21407E-001	9.98655E-005	0.00000E+000	8.20303E-005	5.99601E-002	8.21678E-001	3.57700E+000	9	...........
	42	0.573333	8.29193E-001	1.01582E-004	0.00000E+000	8.42307E-005	5.99601E-002	8.29480E-001	3.57700E+000	9	...........
	43	0.586667	8.36789E-001	1.00792E-004	0.00000E+000	8.43415E-005	5.99601E-002	8.37080E-001	3.57700E+000	9	...........
	44	0.6	8.44158E-001	1.01822E-004	0.00000E+000	8.59541E-005	5.99601E-002	8.44422E-001	3.57700E+000	9	...........
	45	0.613333	8.51261E-001	1.00408E-004	0.00000E+000	8.54737E-005	5.99601E-002	8.51541E-001	3.57700E+000	9	...........
	46	0.626667	8.58187E-001	1.00562E-004	0.00000E+000	8.63006E-005	5.99601E-002	8.58479E-001	3.57700E+000	9	...........
	47	0.64	8.64865E-001	1.00867E-004	0.00000E+000	8.72361E-005	5.99601E-002	8.65161E-001	3.57700E+000	9	...........
	48	0.653333	8.71388E-001	1.00165E-004	0.00000E+000	8.72822E-005	5.99601E-002	8.71693E-001	3.57700E+000	9	...........
	49	0.666667	8.77662E-001	1.00093E-004	0.00000E+000	8.78475E-005	5.99601E-002	8.77984E-001	3.57700E+000	9	...........
	50	0.68	8.83782E-001	1.00888E-004	0.00000E+000	8.91626E-005	5.99601E-002	8.84082E-001	3.57700E+000	9	...........
	51	0.693333	8.89687E-001	1.00303E-004	0.00000E+000	8.92383E-005	5.99601E-002	8.89992E-001	3.57700E+000	9	...........
	52	0.706667	8.95440E-001	1.00927E-004	0.00000E+000	9.03742E-005	5.99601E-002	8.95779E-001	3.57700E+000	9	...........
	53	0.72	9.01023E-001	9.95238E-005	0.00000E+000	8.96732E-005	5.99601E-002	9.01357E-001	3.57700E+000	9	...........
	54	0.733333	9.06458E-001	1.01412E-004	0.00000E+000	9.19254E-005	5.99601E-002	9.06787E-001	3.57700E+000	9	...........
	55	0.746667	9.11765E-001	1.01509E-004	0.00000E+000	9.25519E-005	5.99601E-002	9.12084E-001	3.57700E+000	9	...........
	56	0.76	9.16927E-001	1.00804E-004	0.00000E+000	9.24301E-005	5.99601E-002	9.17260E-001	3.57700E+000	9	...........
	57	0.773333	9.22030E-001	1.01791E-004	0.00000E+000	9.38543E-005	5.99601E-002	9.22330E-001	3.57700E+000	9	...........
	58	0.786667	9.26960E-001	1.00703E-004	0.00000E+000	9.33479E-005	5.99601E-002	9.27270E-001	3.57700E+000	9	...........
	59	0.8	9.31782E-001	1.01177E-004	0.00000E+000	9.42752E-005	5.99601E-002	9.32101E-001	3.57700E+000	9	...........
	60	0.813333	9.36515E-001	1.00075E-004	0.00000E+000	9.37217E-005	5.99601E-002	9.36850E-001	3.57700E+000	9	...........
	61	0.826667	9.41155E-001	1.00388E-004	0.00000E+000	9.44803E-005	5.99601E-002	9.41483E-001	3.57700E+000	9	...........
	62	0.84	9.45718E-001	1.00234E-004	0.00000E+000	9.47935E-005	5.99601E-002	9.46045E-001	3.57700E+000	9	...........
	63	0.853333	9.50203E-001	1.02136E-004	0.00000E+000	9.70497E-005	5.99601E-002	9.50528E-001	3.57700E+000	9	...........
	64	0.866667	9.54597E-001	1.01574E-004	0.00000E+000	9.69624E-005	5.99601E-002	9.54899E-001	3.57700E+000	9	...........
	65	0.88	9.58887E-001	1.01256E-004	0.00000E+000	9.70935E-005	5.99601E-002	9.59211E-001	3.57700E+000	9	...........
	66	0.893333	9.63135E-001	1.01486E-004	0.00000E+000	9.77444E-005	5.99601E-002	9.63450E-001	3.57700E+000	9	...........
	67	0.906667	9.67269E-001	9.98843E-005	0.00000E+000	9.66150E-005	5.99601E-002	9.67623E-001	3.57700E+000	9	...........
	68	0.92	9.71350E-001	1.00447E-004	0.00000E+000	9.75691E-005	5.99601E-002	9.71706E-001	3.57700E+000	9	...........
	69	0.933333	9.75394E-001	1.00427E-004	0.00000E+000	9.79560E-005	5.99601E-002	9.75755E-001	3.57700E+000	9	...........
	70	0.946667	9.79327E-001	1.03021E-004	0.00000E+000	1.00892E-004	5.99601E-002	9.79663E-001	3.57700E+000	9	...........
	71	0.96	9.83151E-001	1.02030E-004	0.00000E+000	1.00310E-004	5.99601E-002	9.83492E-001	3.57700E+000	9	...........
	72	0.97333	9.86930E-001	1.01370E-004	0.00000E+000	1.00045E-004	5.99601E-002	9.87276E-001	3.57700E+000	9	...........
	73	0.98667	9.90614E-001	1.00750E-004	0.00000E+000	9.98044E-005	5.99601E-002	9.90931E-001	3.57700E+000	9	...........
	74	1	9.94185E-001	1.01630E-004	0.00000E+000	1.01040E-004	5.99601E-002	9.94530E-001	3.57700E+000	9	...........
	75	1.01333	9.97713E-001	9.93310E-005	0.00000E+000	9.91038E-005	5.99601E-002	9.98060E-001	3.57700E+000	9	...........
	76	1.01667	9.99896E-001	9.97270E-005	0.00000E+000	9.97166E-005	5.99601E-002	1.00021E+000	3.57700E+000	9	...........
STARTTIMEOFFSET	QUANT	785.5099	Start Time Offset (s)
