EXPLAIN
TAG	PWR800_CHARGE
TITLE	LABEL	PWR Cyclic Charge Discharge (Cell) - Charge Step	Test &Identifier
DATE	LABEL	12-7-2017	Date
TIME	LABEL	16:42:06	Time
NOTES	NOTES	2	&Notes...
	supercap test cell
	6M KOH
PSTAT	PSTAT	IFC5000-01520	Potentiostat
CAPACITY	QUANT	1.00000E-003	Capacity (A-hr)
CELLTYPE	SELECTOR	1	&Cell Type
WORKINGCONNECTION	SELECTOR	0	&Working Lead
MAXCHARGETIME	VARIABLEANDUNITS	1.00000E+002	s	1.00000E+002	second(s)	Max &Charge Time
CHARGECURRENT	QUANT	1.00000E-004	&Charge Current (A) 
VOLTAGEFINISH	TWOPARAM	F	1.00000E-003	3.60000E+003	&Voltage Finish	 I (A) < 	Max Time(s)
SAMPLETIME	QUANT	1.00000E-002	Sa&mple Period (s)
CHARGESTOPAT1	MULTIPARAM	4	1.00000E+000	Charge Stop At &1	Voltage > Limit	V
CHARGESTOPAT2	MULTIPARAM	0	0.00000E+000	Charge Stop At &2	None	N/A
AESBHCSELECTOR	TOGGLE	F	Save Both Half Cells
IRCOMP	TOGGLE	F	IR &Measure
EOC	QUANT	0	Open Circuit (V)
SEQUENCER	TOGGLE	TRUE	Run as Sequence
PSTATMODEL	IQUANT	53	Pstat Model
PSTATSECTION	LABEL	IFC5000-01520	Pstat Section
PSTATSERIALNO	LABEL	01520	Pstat Serial Number
CTRLMODE	IQUANT	0	Control Mode
ELECTROMETER	IQUANT	1	RE=0 or CS=1
IESTAB	IQUANT	0	I/E Stability
CASPEED	IQUANT	4	Control Amp Speed
CONVENTION	IQUANT	1	Current Convention
ICHRANGE	IQUANT	2	Ich Range
ICHRANGEMODE	TOGGLE	T	Ich Auto Range
ICHOFFSETENABLE	TOGGLE	F	Ich Offset Enable
ICHOFFSET	QUANT	0	Ich Offset (V)
ICHFILTER	IQUANT	1	Ich Filter
VCHRANGE	IQUANT	2	Vch Range
VCHRANGEMODE	TOGGLE	T	Vch Auto Range
VCHOFFSETENABLE	TOGGLE	F	Vch Offset Enable
VCHOFFSET	QUANT	0	Vch Offset (V)
VCHFILTER	IQUANT	1	Vch Filter
IERANGELOWERLIMIT	IQUANT	9	I/E Range Lower Limit
IERANGEMODE	TOGGLE	F	I/E AutoRange
IERANGE	IQUANT	9	I/E Range
ACHSELECT	IQUANT	1	Ach Select
ACHRANGE	IQUANT	2	Ach Range
ACHOFFSETENABLE	TOGGLE	F	Ach Offset Enable
ACHOFFSET	QUANT	0	Ach Offset (V)
ACHFILTER	IQUANT	1	Ach Filter
CABLEID	IQUANT	14	Cable ID
DCCALDATE	LABEL	5-7-2017	DC Calibration Date
ACCALDATE	LABEL	12/3/2015	AC Calibration Date
FRAMEWORKVERSION	QUANT	7.01	Framework Version
INSTRUMENTVERSION	LABEL	4.00	Instrument Version
CURVE	TABLE	75
	Pt	T	Vf	Im	Vu	Pwr	Sig	Ach	Temp	IERange	Over
	#	s	V	A	V	W	V	V	deg C	#	bits
	0	0.013333	2.59552E-001	1.02016E-004	0.00000E+000	2.64784E-005	5.99601E-002	2.59630E-001	3.57790E+000	9	...........
	1	0.026667	2.82545E-001	1.00694E-004	0.00000E+000	2.84505E-005	5.99601E-002	2.82607E-001	3.57790E+000	9	...........
	2	0.04	3.04279E-001	1.01132E-004	0.00000E+000	3.07725E-005	5.99601E-002	3.04338E-001	3.57790E+000	9	...........
	3	0.053333	3.25100E-001	1.01260E-004	0.00000E+000	3.29195E-005	5.99601E-002	3.25163E-001	3.57790E+000	9	...........
	4	0.066667	3.45198E-001	1.01015E-004	0.00000E+000	3.48701E-005	5.99601E-002	3.45263E-001	3.57790E+000	9	...........
	5	0.08	3.64680E-001	1.00950E-004	0.00000E+000	3.68145E-005	5.99601E-002	3.64753E-001	3.57790E+000	9	...........
	6	0.093333	3.83638E-001	1.01026E-004	0.00000E+000	3.87575E-005	5.99601E-002	3.83719E-001	3.57790E+000	9	...........
	7	0.106667	4.02125E-001	9.96467E-005	0.00000E+000	4.00704E-005	5.99601E-002	4.02206E-001	3.57790E+000	9	...........
	8	0.12	4.20161E-001	1.01379E-004	0.00000E+000	4.25956E-005	5.99601E-002	4.20249E-001	3.57790E+000	9	...........
	9	0.133333	4.37784E-001	1.00562E-004	0.00000E+000	4.40242E-005	5.99601E-002	4.37876E-001	3.57790E+000	9	...........
	10	0.146667	4.55029E-001	1.01365E-004	0.00000E+000	4.61240E-005	5.99601E-002	4.55122E-001	3.57790E+000	9	...........
	11	0.16	4.71888E-001	1.00534E-004	0.00000E+000	4.74410E-005	5.99601E-002	4.71987E-001	3.57790E+000	9	...........
	12	0.173333	4.88384E-001	1.00457E-004	0.00000E+000	4.90618E-005	5.99601E-002	4.88483E-001	3.57790E+000	9	...........
	13	0.186667	5.04518E-001	1.02906E-004	0.00000E+000	5.19178E-005	5.99601E-002	5.04627E-001	3.57790E+000	9	...........
	14	0.2	5.20305E-001	1.01179E-004	0.00000E+000	5.26441E-005	5.99601E-002	5.20417E-001	3.57790E+000	9	...........
	15	0.213333	5.35594E-001	1.01565E-004	0.00000E+000	5.43975E-005	5.99601E-002	5.35742E-001	3.57790E+000	9	...........
	16	0.226667	5.50526E-001	9.96446E-005	0.00000E+000	5.48570E-005	5.99601E-002	5.50766E-001	3.57790E+000	9	...........
	17	0.24	5.65320E-001	1.00524E-004	0.00000E+000	5.68283E-005	5.99601E-002	5.65558E-001	3.57790E+000	9	...........
	18	0.253333	5.79762E-001	1.01680E-004	0.00000E+000	5.89505E-005	5.99601E-002	5.80003E-001	3.57790E+000	9	...........
	19	0.266667	5.93875E-001	1.01065E-004	0.00000E+000	6.00198E-005	5.99601E-002	5.94128E-001	3.57790E+000	9	...........
	20	0.28	6.07647E-001	1.00594E-004	0.00000E+000	6.11255E-005	5.99601E-002	6.07922E-001	3.57790E+000	9	...........
	21	0.293333	6.21177E-001	1.00357E-004	0.00000E+000	6.23397E-005	5.99601E-002	6.21408E-001	3.57790E+000	9	...........
	22	0.306667	6.34297E-001	1.02075E-004	0.00000E+000	6.47461E-005	5.99601E-002	6.34561E-001	3.57790E+000	9	...........
	23	0.32	6.47162E-001	1.01903E-004	0.00000E+000	6.59480E-005	5.99601E-002	6.47408E-001	3.57790E+000	9	...........
	24	0.333333	6.59684E-001	1.02483E-004	0.00000E+000	6.76062E-005	5.99601E-002	6.59937E-001	3.57790E+000	9	...........
	25	0.346667	6.71942E-001	1.00973E-004	0.00000E+000	6.78481E-005	5.99601E-002	6.72187E-001	3.57790E+000	9	...........
	26	0.36	6.83848E-001	1.00960E-004	0.00000E+000	6.90410E-005	5.99601E-002	6.84105E-001	3.57790E+000	9	...........
	27	0.373333	6.95477E-001	1.01220E-004	0.00000E+000	7.03962E-005	5.99601E-002	6.95727E-001	3.57790E+000	9	...........
	28	0.386667	7.06793E-001	1.00590E-004	0.00000E+000	7.10960E-005	5.99601E-002	7.07040E-001	3.57790E+000	9	...........
	29	0.4	7.17824E-001	1.01648E-004	0.00000E+000	7.29655E-005	5.99601E-002	7.18074E-001	3.57790E+000	9	...........
	30	0.413333	7.28579E-001	1.00124E-004	0.00000E+000	7.29482E-005	5.99601E-002	7.28823E-001	3.57790E+000	9	...........
	31	0.426667	7.39006E-001	1.00132E-004	0.00000E+000	7.39983E-005	5.99601E-002	7.39274E-001	3.57790E+000	9	...........
	32	0.44	7.49183E-001	1.00090E-004	0.00000E+000	7.49854E-005	5.99601E-002	7.49456E-001	3.57790E+000	9	...........
	33	0.453333	7.59092E-001	1.01838E-004	0.00000E+000	7.73043E-005	5.99601E-002	7.59357E-001	3.57790E+000	9	...........
	34	0.466667	7.68686E-001	1.01835E-004	0.00000E+000	7.82788E-005	5.99601E-002	7.68971E-001	3.57790E+000	9	...........
	35	0.48	7.78045E-001	1.00924E-004	0.00000E+000	7.85235E-005	5.99601E-002	7.78336E-001	3.57790E+000	9	...........
	36	0.493333	7.87136E-001	1.00616E-004	0.00000E+000	7.91982E-005	5.99601E-002	7.87405E-001	3.57790E+000	9	...........
	37	0.506667	7.95984E-001	1.01014E-004	0.00000E+000	8.04053E-005	5.99601E-002	7.96236E-001	3.57790E+000	9	...........
	38	0.52	8.04524E-001	1.00187E-004	0.00000E+000	8.06032E-005	5.99601E-002	8.04803E-001	3.57790E+000	9	...........
	39	0.533333	8.12791E-001	9.98686E-005	0.00000E+000	8.11723E-005	5.99601E-002	8.13086E-001	3.57790E+000	9	...........
	40	0.546667	8.20877E-001	1.01259E-004	0.00000E+000	8.31208E-005	5.99601E-002	8.21157E-001	3.57790E+000	9	...........
	41	0.56	8.28639E-001	1.01031E-004	0.00000E+000	8.37185E-005	5.99601E-002	8.28946E-001	3.57790E+000	9	...........
	42	0.573333	8.36187E-001	1.00967E-004	0.00000E+000	8.44271E-005	5.99601E-002	8.36492E-001	3.57790E+000	9	...........
	43	0.586667	8.43486E-001	1.00277E-004	0.00000E+000	8.45823E-005	5.99601E-002	8.43807E-001	3.57790E+000	9	...........
	44	0.6	8.50576E-001	1.00804E-004	0.00000E+000	8.57417E-005	5.99601E-002	8.50908E-001	3.57798E+000	9	...........
	45	0.613333	8.57417E-001	1.00644E-004	0.00000E+000	8.62937E-005	5.99601E-002	8.57752E-001	3.57850E+000	9	...........
	46	0.626667	8.64085E-001	9.97197E-005	0.00000E+000	8.61662E-005	5.99601E-002	8.64403E-001	3.57850E+000	9	...........
	47	0.64	8.70561E-001	1.00787E-004	0.00000E+000	8.77408E-005	5.99601E-002	8.70858E-001	3.57850E+000	9	...........
	48	0.653333	8.76813E-001	1.00566E-004	0.00000E+000	8.81773E-005	5.99601E-002	8.77117E-001	3.57850E+000	9	...........
	49	0.666667	8.82898E-001	1.00381E-004	0.00000E+000	8.86264E-005	5.99601E-002	8.83191E-001	3.57850E+000	9	...........
	50	0.68	8.88804E-001	1.00916E-004	0.00000E+000	8.96943E-005	5.99601E-002	8.89109E-001	3.57850E+000	9	...........
	51	0.693333	8.94555E-001	1.00990E-004	0.00000E+000	9.03408E-005	5.99601E-002	8.94867E-001	3.57850E+000	9	...........
	52	0.706667	9.00180E-001	1.00939E-004	0.00000E+000	9.08630E-005	5.99601E-002	9.00492E-001	3.57850E+000	9	...........
	53	0.72	9.05635E-001	1.02043E-004	0.00000E+000	9.24138E-005	5.99601E-002	9.05969E-001	3.57850E+000	9	...........
	54	0.733333	9.10989E-001	1.01209E-004	0.00000E+000	9.21999E-005	5.99601E-002	9.11308E-001	3.57850E+000	9	...........
	55	0.746667	9.16220E-001	1.00433E-004	0.00000E+000	9.20191E-005	5.99601E-002	9.16543E-001	3.57850E+000	9	...........
	56	0.76	9.21408E-001	1.00479E-004	0.00000E+000	9.25824E-005	5.99601E-002	9.21692E-001	3.57850E+000	9	...........
	57	0.773333	9.26421E-001	1.02082E-004	0.00000E+000	9.45706E-005	5.99601E-002	9.26737E-001	3.57850E+000	9	...........
	58	0.786667	9.31363E-001	1.00575E-004	0.00000E+000	9.36719E-005	5.99601E-002	9.31666E-001	3.57850E+000	9	...........
	59	0.8	9.36209E-001	1.00739E-004	0.00000E+000	9.43124E-005	5.99601E-002	9.36521E-001	3.57850E+000	9	...........
	60	0.813333	9.40972E-001	1.02209E-004	0.00000E+000	9.61755E-005	5.99601E-002	9.41281E-001	3.57850E+000	9	...........
	61	0.826667	9.45652E-001	1.00786E-004	0.00000E+000	9.53080E-005	5.99601E-002	9.45994E-001	3.57850E+000	9	...........
	62	0.84	9.50309E-001	1.00061E-004	0.00000E+000	9.50892E-005	5.99601E-002	9.50616E-001	3.57850E+000	9	...........
	63	0.853333	9.54862E-001	1.01509E-004	0.00000E+000	9.69267E-005	5.99601E-002	9.55158E-001	3.57850E+000	9	...........
	64	0.866667	9.59301E-001	9.93060E-005	0.00000E+000	9.52644E-005	5.99601E-002	9.59645E-001	3.57850E+000	9	...........
	65	0.88	9.63678E-001	1.01460E-004	0.00000E+000	9.77743E-005	5.99601E-002	9.64031E-001	3.57850E+000	9	...........
	66	0.893333	9.67982E-001	1.00831E-004	0.00000E+000	9.76029E-005	5.99601E-002	9.68331E-001	3.57850E+000	9	...........
	67	0.906667	9.72243E-001	9.97030E-005	0.00000E+000	9.69356E-005	5.99601E-002	9.72578E-001	3.57850E+000	9	...........
	68	0.92	9.76401E-001	1.01326E-004	0.00000E+000	9.89351E-005	5.99601E-002	9.76759E-001	3.57850E+000	9	...........
	69	0.933333	9.80483E-001	1.01323E-004	0.00000E+000	9.93455E-005	5.99601E-002	9.80811E-001	3.57850E+000	9	...........
	70	0.946667	9.84483E-001	1.00794E-004	0.00000E+000	9.92298E-005	5.99601E-002	9.84839E-001	3.57850E+000	9	...........
	71	0.96	9.88367E-001	1.01683E-004	0.00000E+000	1.00500E-004	5.99601E-002	9.88741E-001	3.57850E+000	9	...........
	72	0.97333	9.92203E-001	1.02016E-004	0.00000E+000	1.01221E-004	5.99601E-002	9.92565E-001	3.57850E+000	9	...........
	73	0.98667	9.95968E-001	1.00491E-004	0.00000E+000	1.00086E-004	5.99601E-002	9.96329E-001	3.57850E+000	9	...........
	74	0.99667	9.99191E-001	1.01229E-004	0.00000E+000	1.01147E-004	5.99601E-002	9.99552E-001	3.57850E+000	9	...........
STARTTIMEOFFSET	QUANT	1367.437	Start Time Offset (s)
