EXPLAIN
TAG	PWR800_CHARGE
TITLE	LABEL	PWR Cyclic Charge Discharge (Cell) - Charge Step	Test &Identifier
DATE	LABEL	12-7-2017	Date
TIME	LABEL	16:15:50	Time
NOTES	NOTES	2	&Notes...
	supercap test cell
	6M KOH
PSTAT	PSTAT	IFC5000-01520	Potentiostat
CAPACITY	QUANT	1.00000E-003	Capacity (A-hr)
CELLTYPE	SELECTOR	1	&Cell Type
WORKINGCONNECTION	SELECTOR	0	&Working Lead
MAXCHARGETIME	VARIABLEANDUNITS	1.00000E+002	s	1.00000E+002	second(s)	Max &Charge Time
CHARGECURRENT	QUANT	1.00000E-004	&Charge Current (A) 
VOLTAGEFINISH	TWOPARAM	F	1.00000E-003	3.60000E+003	&Voltage Finish	 I (A) < 	Max Time(s)
SAMPLETIME	QUANT	1.00000E-002	Sa&mple Period (s)
CHARGESTOPAT1	MULTIPARAM	4	1.00000E+000	Charge Stop At &1	Voltage > Limit	V
CHARGESTOPAT2	MULTIPARAM	0	0.00000E+000	Charge Stop At &2	None	N/A
AESBHCSELECTOR	TOGGLE	F	Save Both Half Cells
IRCOMP	TOGGLE	F	IR &Measure
EOC	QUANT	0	Open Circuit (V)
SEQUENCER	TOGGLE	TRUE	Run as Sequence
PSTATMODEL	IQUANT	53	Pstat Model
PSTATSECTION	LABEL	IFC5000-01520	Pstat Section
PSTATSERIALNO	LABEL	01520	Pstat Serial Number
CTRLMODE	IQUANT	0	Control Mode
ELECTROMETER	IQUANT	1	RE=0 or CS=1
IESTAB	IQUANT	0	I/E Stability
CASPEED	IQUANT	4	Control Amp Speed
CONVENTION	IQUANT	1	Current Convention
ICHRANGE	IQUANT	2	Ich Range
ICHRANGEMODE	TOGGLE	T	Ich Auto Range
ICHOFFSETENABLE	TOGGLE	F	Ich Offset Enable
ICHOFFSET	QUANT	0	Ich Offset (V)
ICHFILTER	IQUANT	1	Ich Filter
VCHRANGE	IQUANT	2	Vch Range
VCHRANGEMODE	TOGGLE	T	Vch Auto Range
VCHOFFSETENABLE	TOGGLE	F	Vch Offset Enable
VCHOFFSET	QUANT	0	Vch Offset (V)
VCHFILTER	IQUANT	1	Vch Filter
IERANGELOWERLIMIT	IQUANT	9	I/E Range Lower Limit
IERANGEMODE	TOGGLE	F	I/E AutoRange
IERANGE	IQUANT	9	I/E Range
ACHSELECT	IQUANT	1	Ach Select
ACHRANGE	IQUANT	2	Ach Range
ACHOFFSETENABLE	TOGGLE	F	Ach Offset Enable
ACHOFFSET	QUANT	0	Ach Offset (V)
ACHFILTER	IQUANT	1	Ach Filter
CABLEID	IQUANT	14	Cable ID
DCCALDATE	LABEL	5-7-2017	DC Calibration Date
ACCALDATE	LABEL	12/3/2015	AC Calibration Date
FRAMEWORKVERSION	QUANT	7.01	Framework Version
INSTRUMENTVERSION	LABEL	4.00	Instrument Version
CURVE	TABLE	80
	Pt	T	Vf	Im	Vu	Pwr	Sig	Ach	Temp	IERange	Over
	#	s	V	A	V	W	V	V	deg C	#	bits
	0	0.013333	2.65747E-001	1.00631E-004	0.00000E+000	2.67424E-005	5.99601E-002	2.65826E-001	3.57720E+000	9	...........
	1	0.026667	2.88287E-001	1.00252E-004	0.00000E+000	2.89014E-005	5.99601E-002	2.88342E-001	3.57720E+000	9	...........
	2	0.04	3.09260E-001	1.01245E-004	0.00000E+000	3.13110E-005	5.99601E-002	3.09324E-001	3.57720E+000	9	...........
	3	0.053333	3.29042E-001	1.01180E-004	0.00000E+000	3.32926E-005	5.99601E-002	3.29115E-001	3.57720E+000	9	...........
	4	0.066667	3.47880E-001	1.01244E-004	0.00000E+000	3.52207E-005	5.99601E-002	3.47947E-001	3.57720E+000	9	...........
	5	0.08	3.65914E-001	1.01056E-004	0.00000E+000	3.69779E-005	5.99601E-002	3.65986E-001	3.57720E+000	9	...........
	6	0.093333	3.83262E-001	1.00280E-004	0.00000E+000	3.84336E-005	5.99601E-002	3.83336E-001	3.57720E+000	9	...........
	7	0.106667	4.00016E-001	1.00365E-004	0.00000E+000	4.01474E-005	5.99601E-002	4.00103E-001	3.57720E+000	9	...........
	8	0.12	4.16260E-001	1.00818E-004	0.00000E+000	4.19665E-005	5.99601E-002	4.16354E-001	3.57720E+000	9	...........
	9	0.133333	4.32043E-001	1.00435E-004	0.00000E+000	4.33925E-005	5.99601E-002	4.32129E-001	3.57720E+000	9	...........
	10	0.146667	4.47413E-001	1.01833E-004	0.00000E+000	4.55612E-005	5.99601E-002	4.47517E-001	3.57720E+000	9	...........
	11	0.16	4.62405E-001	1.00879E-004	0.00000E+000	4.66471E-005	5.99601E-002	4.62506E-001	3.57720E+000	9	...........
	12	0.173333	4.77050E-001	1.00909E-004	0.00000E+000	4.81389E-005	5.99601E-002	4.77152E-001	3.57720E+000	9	...........
	13	0.186667	4.91361E-001	1.00509E-004	0.00000E+000	4.93864E-005	5.99601E-002	4.91471E-001	3.57720E+000	9	...........
	14	0.2	5.05373E-001	1.01384E-004	0.00000E+000	5.12365E-005	5.99601E-002	5.05491E-001	3.57725E+000	9	...........
	15	0.213333	5.19108E-001	1.01763E-004	0.00000E+000	5.28259E-005	5.99601E-002	5.19225E-001	3.57760E+000	9	...........
	16	0.226667	5.32436E-001	1.01627E-004	0.00000E+000	5.41101E-005	5.99601E-002	5.32621E-001	3.57760E+000	9	...........
	17	0.24	5.45476E-001	1.01180E-004	0.00000E+000	5.51914E-005	5.99601E-002	5.45726E-001	3.57760E+000	9	...........
	18	0.253333	5.58408E-001	1.00741E-004	0.00000E+000	5.62544E-005	5.99601E-002	5.58721E-001	3.57760E+000	9	...........
	19	0.266667	5.71180E-001	1.00852E-004	0.00000E+000	5.76048E-005	5.99601E-002	5.71446E-001	3.57760E+000	9	...........
	20	0.28	5.83651E-001	1.01011E-004	0.00000E+000	5.89549E-005	5.99601E-002	5.83960E-001	3.57760E+000	9	...........
	21	0.293333	5.95970E-001	1.01546E-004	0.00000E+000	6.05185E-005	5.99601E-002	5.96278E-001	3.57760E+000	9	...........
	22	0.306667	6.08030E-001	1.01553E-004	0.00000E+000	6.17475E-005	5.99601E-002	6.08356E-001	3.57760E+000	9	...........
	23	0.32	6.19962E-001	1.00458E-004	0.00000E+000	6.22803E-005	5.99601E-002	6.20239E-001	3.57760E+000	9	...........
	24	0.333333	6.31625E-001	1.00902E-004	0.00000E+000	6.37323E-005	5.99601E-002	6.31903E-001	3.57760E+000	9	...........
	25	0.346667	6.43117E-001	1.01095E-004	0.00000E+000	6.50158E-005	5.99601E-002	6.43401E-001	3.57760E+000	9	...........
	26	0.36	6.54397E-001	1.00615E-004	0.00000E+000	6.58419E-005	5.99601E-002	6.54680E-001	3.57760E+000	9	...........
	27	0.373333	6.65467E-001	1.01133E-004	0.00000E+000	6.73010E-005	5.99601E-002	6.65772E-001	3.57760E+000	9	...........
	28	0.386667	6.76369E-001	1.00575E-004	0.00000E+000	6.80258E-005	5.99601E-002	6.76660E-001	3.57760E+000	9	...........
	29	0.4	6.87063E-001	1.00830E-004	0.00000E+000	6.92768E-005	5.99601E-002	6.87343E-001	3.57760E+000	9	...........
	30	0.413333	6.97579E-001	1.00893E-004	0.00000E+000	7.03807E-005	5.99601E-002	6.97834E-001	3.57760E+000	9	...........
	31	0.426667	7.07874E-001	1.00442E-004	0.00000E+000	7.11001E-005	5.99601E-002	7.08113E-001	3.57760E+000	9	...........
	32	0.44	7.18019E-001	1.01325E-004	0.00000E+000	7.27534E-005	5.99601E-002	7.18241E-001	3.57760E+000	9	...........
	33	0.453333	7.27964E-001	1.00787E-004	0.00000E+000	7.33690E-005	5.99601E-002	7.28175E-001	3.57760E+000	9	...........
	34	0.466667	7.37692E-001	1.01408E-004	0.00000E+000	7.48075E-005	5.99601E-002	7.37928E-001	3.57760E+000	9	...........
	35	0.48	7.47254E-001	1.00898E-004	0.00000E+000	7.53964E-005	5.99601E-002	7.47513E-001	3.57760E+000	9	...........
	36	0.493333	7.56611E-001	1.00837E-004	0.00000E+000	7.62941E-005	5.99601E-002	7.56860E-001	3.57760E+000	9	...........
	37	0.506667	7.65784E-001	1.01049E-004	0.00000E+000	7.73818E-005	5.99601E-002	7.66054E-001	3.57760E+000	9	...........
	38	0.52	7.74767E-001	1.00541E-004	0.00000E+000	7.78955E-005	5.99601E-002	7.75022E-001	3.57760E+000	9	...........
	39	0.533333	7.83562E-001	1.00865E-004	0.00000E+000	7.90338E-005	5.99601E-002	7.83817E-001	3.57760E+000	9	...........
	40	0.546667	7.92144E-001	1.01772E-004	0.00000E+000	8.06182E-005	5.99601E-002	7.92407E-001	3.57760E+000	9	...........
	41	0.56	8.00552E-001	1.01062E-004	0.00000E+000	8.09051E-005	5.99601E-002	8.00807E-001	3.57760E+000	9	...........
	42	0.573333	8.08744E-001	1.00838E-004	0.00000E+000	8.15518E-005	5.99601E-002	8.09050E-001	3.57760E+000	9	...........
	43	0.586667	8.16757E-001	9.99812E-005	0.00000E+000	8.16603E-005	5.99601E-002	8.17066E-001	3.57760E+000	9	...........
	44	0.6	8.24579E-001	9.99885E-005	0.00000E+000	8.24484E-005	5.99601E-002	8.24877E-001	3.57760E+000	9	...........
	45	0.613333	8.32217E-001	1.00475E-004	0.00000E+000	8.36170E-005	5.99601E-002	8.32527E-001	3.57760E+000	9	...........
	46	0.626667	8.39622E-001	1.00838E-004	0.00000E+000	8.46654E-005	5.99601E-002	8.39963E-001	3.57760E+000	9	...........
	47	0.64	8.46917E-001	1.00635E-004	0.00000E+000	8.52299E-005	5.99601E-002	8.47256E-001	3.57760E+000	9	...........
	48	0.653333	8.53981E-001	9.98874E-005	0.00000E+000	8.53019E-005	5.99601E-002	8.54298E-001	3.57760E+000	9	...........
	49	0.666667	8.60868E-001	1.01219E-004	0.00000E+000	8.71362E-005	5.99601E-002	8.61169E-001	3.57760E+000	9	...........
	50	0.68	8.67578E-001	1.00602E-004	0.00000E+000	8.72802E-005	5.99601E-002	8.67871E-001	3.57760E+000	9	...........
	51	0.693333	8.74117E-001	1.00998E-004	0.00000E+000	8.82841E-005	5.99601E-002	8.74403E-001	3.57760E+000	9	...........
	52	0.706667	8.80444E-001	1.00878E-004	0.00000E+000	8.88177E-005	5.99601E-002	8.80714E-001	3.57760E+000	9	...........
	53	0.72	8.86627E-001	1.00985E-004	0.00000E+000	8.95355E-005	5.99601E-002	8.86893E-001	3.57760E+000	9	...........
	54	0.733333	8.92619E-001	1.00624E-004	0.00000E+000	8.98189E-005	5.99601E-002	8.92883E-001	3.57760E+000	9	...........
	55	0.746667	8.98442E-001	1.01220E-004	0.00000E+000	9.09403E-005	5.99601E-002	8.98729E-001	3.57760E+000	9	...........
	56	0.76	9.04087E-001	1.00269E-004	0.00000E+000	9.06516E-005	5.99601E-002	9.04405E-001	3.57760E+000	9	...........
	57	0.773333	9.09610E-001	1.01325E-004	0.00000E+000	9.21664E-005	5.99601E-002	9.09928E-001	3.57760E+000	9	...........
	58	0.786667	9.14931E-001	1.00979E-004	0.00000E+000	9.23891E-005	5.99601E-002	9.15278E-001	3.57760E+000	9	...........
	59	0.8	9.20166E-001	1.00761E-004	0.00000E+000	9.27164E-005	5.99601E-002	9.20485E-001	3.57760E+000	9	...........
	60	0.813333	9.25238E-001	1.00767E-004	0.00000E+000	9.32333E-005	5.99601E-002	9.25548E-001	3.57760E+000	9	...........
	61	0.826667	9.30139E-001	1.00595E-004	0.00000E+000	9.35672E-005	5.99601E-002	9.30450E-001	3.57760E+000	9	...........
	62	0.84	9.34901E-001	1.00201E-004	0.00000E+000	9.36780E-005	5.99601E-002	9.35243E-001	3.57760E+000	9	...........
	63	0.853333	9.39554E-001	1.00952E-004	0.00000E+000	9.48500E-005	5.99601E-002	9.39888E-001	3.57760E+000	9	...........
	64	0.866667	9.44057E-001	1.00111E-004	0.00000E+000	9.45108E-005	5.99601E-002	9.44408E-001	3.57760E+000	9	...........
	65	0.88	9.48523E-001	1.00547E-004	0.00000E+000	9.53711E-005	5.99601E-002	9.48865E-001	3.57760E+000	9	...........
	66	0.893333	9.52826E-001	1.01425E-004	0.00000E+000	9.66406E-005	5.99601E-002	9.53193E-001	3.57760E+000	9	...........
	67	0.906667	9.57025E-001	1.00947E-004	0.00000E+000	9.66088E-005	5.99601E-002	9.57380E-001	3.57760E+000	9	...........
	68	0.92	9.61162E-001	1.01302E-004	0.00000E+000	9.73679E-005	5.99601E-002	9.61523E-001	3.57760E+000	9	...........
	69	0.933333	9.65157E-001	1.00642E-004	0.00000E+000	9.71351E-005	5.99601E-002	9.65536E-001	3.57760E+000	9	...........
	70	0.946667	9.69092E-001	1.00858E-004	0.00000E+000	9.77411E-005	5.99601E-002	9.69490E-001	3.57760E+000	9	...........
	71	0.96	9.72960E-001	1.01450E-004	0.00000E+000	9.87070E-005	5.99601E-002	9.73371E-001	3.57760E+000	9	...........
	72	0.97333	9.76740E-001	1.01219E-004	0.00000E+000	9.88646E-005	5.99601E-002	9.77131E-001	3.57760E+000	9	...........
	73	0.98667	9.80433E-001	1.00754E-004	0.00000E+000	9.87827E-005	5.99601E-002	9.80813E-001	3.57760E+000	9	...........
	74	1	9.83999E-001	1.01857E-004	0.00000E+000	1.00227E-004	5.99601E-002	9.84404E-001	3.57760E+000	9	...........
	75	1.01333	9.87521E-001	1.01421E-004	0.00000E+000	1.00155E-004	5.99601E-002	9.87941E-001	3.57760E+000	9	...........
	76	1.02667	9.90961E-001	1.00395E-004	0.00000E+000	9.94874E-005	5.99601E-002	9.91384E-001	3.57760E+000	9	...........
	77	1.04	9.94293E-001	1.00305E-004	0.00000E+000	9.97327E-005	5.99601E-002	9.94717E-001	3.57760E+000	9	...........
	78	1.05333	9.97554E-001	1.00568E-004	0.00000E+000	1.00322E-004	5.99601E-002	9.97965E-001	3.57760E+000	9	...........
	79	1.05833	9.99746E-001	1.01023E-004	0.00000E+000	1.00997E-004	5.99601E-002	1.00017E+000	3.57760E+000	9	...........
STARTTIMEOFFSET	QUANT	246.665	Start Time Offset (s)
