EXPLAIN
TAG	PWR800_CHARGE
TITLE	LABEL	PWR Cyclic Charge Discharge (Cell) - Charge Step	Test &Identifier
DATE	LABEL	12-7-2017	Date
TIME	LABEL	16:13:43	Time
NOTES	NOTES	2	&Notes...
	supercap test cell
	6M KOH
PSTAT	PSTAT	IFC5000-01520	Potentiostat
CAPACITY	QUANT	1.00000E-003	Capacity (A-hr)
CELLTYPE	SELECTOR	1	&Cell Type
WORKINGCONNECTION	SELECTOR	0	&Working Lead
MAXCHARGETIME	VARIABLEANDUNITS	1.00000E+002	s	1.00000E+002	second(s)	Max &Charge Time
CHARGECURRENT	QUANT	1.00000E-004	&Charge Current (A) 
VOLTAGEFINISH	TWOPARAM	F	1.00000E-003	3.60000E+003	&Voltage Finish	 I (A) < 	Max Time(s)
SAMPLETIME	QUANT	1.00000E-002	Sa&mple Period (s)
CHARGESTOPAT1	MULTIPARAM	4	1.00000E+000	Charge Stop At &1	Voltage > Limit	V
CHARGESTOPAT2	MULTIPARAM	0	0.00000E+000	Charge Stop At &2	None	N/A
AESBHCSELECTOR	TOGGLE	F	Save Both Half Cells
IRCOMP	TOGGLE	F	IR &Measure
EOC	QUANT	0	Open Circuit (V)
SEQUENCER	TOGGLE	TRUE	Run as Sequence
PSTATMODEL	IQUANT	53	Pstat Model
PSTATSECTION	LABEL	IFC5000-01520	Pstat Section
PSTATSERIALNO	LABEL	01520	Pstat Serial Number
CTRLMODE	IQUANT	0	Control Mode
ELECTROMETER	IQUANT	1	RE=0 or CS=1
IESTAB	IQUANT	0	I/E Stability
CASPEED	IQUANT	4	Control Amp Speed
CONVENTION	IQUANT	1	Current Convention
ICHRANGE	IQUANT	2	Ich Range
ICHRANGEMODE	TOGGLE	T	Ich Auto Range
ICHOFFSETENABLE	TOGGLE	F	Ich Offset Enable
ICHOFFSET	QUANT	0	Ich Offset (V)
ICHFILTER	IQUANT	1	Ich Filter
VCHRANGE	IQUANT	2	Vch Range
VCHRANGEMODE	TOGGLE	T	Vch Auto Range
VCHOFFSETENABLE	TOGGLE	F	Vch Offset Enable
VCHOFFSET	QUANT	0	Vch Offset (V)
VCHFILTER	IQUANT	1	Vch Filter
IERANGELOWERLIMIT	IQUANT	9	I/E Range Lower Limit
IERANGEMODE	TOGGLE	F	I/E AutoRange
IERANGE	IQUANT	9	I/E Range
ACHSELECT	IQUANT	1	Ach Select
ACHRANGE	IQUANT	2	Ach Range
ACHOFFSETENABLE	TOGGLE	F	Ach Offset Enable
ACHOFFSET	QUANT	0	Ach Offset (V)
ACHFILTER	IQUANT	1	Ach Filter
CABLEID	IQUANT	14	Cable ID
DCCALDATE	LABEL	5-7-2017	DC Calibration Date
ACCALDATE	LABEL	12/3/2015	AC Calibration Date
FRAMEWORKVERSION	QUANT	7.01	Framework Version
INSTRUMENTVERSION	LABEL	4.00	Instrument Version
CURVE	TABLE	81
	Pt	T	Vf	Im	Vu	Pwr	Sig	Ach	Temp	IERange	Over
	#	s	V	A	V	W	V	V	deg C	#	bits
	0	0.013333	2.61764E-001	1.00548E-004	0.00000E+000	2.63199E-005	5.99601E-002	2.61849E-001	3.57870E+000	9	...........
	1	0.026667	2.84427E-001	1.00917E-004	0.00000E+000	2.87034E-005	5.99601E-002	2.84489E-001	3.57870E+000	9	...........
	2	0.04	3.05470E-001	1.00660E-004	0.00000E+000	3.07488E-005	5.99601E-002	3.05533E-001	3.57870E+000	9	...........
	3	0.053333	3.25279E-001	1.01245E-004	0.00000E+000	3.29328E-005	5.99601E-002	3.25350E-001	3.57870E+000	9	...........
	4	0.066667	3.44072E-001	1.00933E-004	0.00000E+000	3.47284E-005	5.99601E-002	3.44143E-001	3.57870E+000	9	...........
	5	0.08	3.62005E-001	9.99374E-005	0.00000E+000	3.61779E-005	5.99601E-002	3.62078E-001	3.57870E+000	9	...........
	6	0.093333	3.79198E-001	1.00783E-004	0.00000E+000	3.82169E-005	5.99601E-002	3.79274E-001	3.57870E+000	9	...........
	7	0.106667	3.95744E-001	1.01073E-004	0.00000E+000	3.99991E-005	5.99601E-002	3.95829E-001	3.57870E+000	9	...........
	8	0.12	4.11729E-001	9.94509E-005	0.00000E+000	4.09468E-005	5.99601E-002	4.11816E-001	3.57870E+000	9	...........
	9	0.133333	4.27222E-001	1.00864E-004	0.00000E+000	4.30911E-005	5.99601E-002	4.27317E-001	3.57870E+000	9	...........
	10	0.146667	4.42273E-001	1.00599E-004	0.00000E+000	4.44922E-005	5.99601E-002	4.42375E-001	3.57870E+000	9	...........
	11	0.16	4.56928E-001	1.01119E-004	0.00000E+000	4.62041E-005	5.99601E-002	4.57022E-001	3.57870E+000	9	...........
	12	0.173333	4.71214E-001	1.01413E-004	0.00000E+000	4.77870E-005	5.99601E-002	4.71320E-001	3.57870E+000	9	...........
	13	0.186667	4.85178E-001	1.01023E-004	0.00000E+000	4.90142E-005	5.99601E-002	4.85280E-001	3.57870E+000	9	...........
	14	0.2	4.98822E-001	1.00840E-004	0.00000E+000	5.03011E-005	5.99601E-002	4.98929E-001	3.57870E+000	9	...........
	15	0.213333	5.12201E-001	1.00776E-004	0.00000E+000	5.16176E-005	5.99601E-002	5.12313E-001	3.57870E+000	9	...........
	16	0.226667	5.25304E-001	1.01118E-004	0.00000E+000	5.31176E-005	5.99601E-002	5.25422E-001	3.57870E+000	9	...........
	17	0.24	5.37926E-001	1.00869E-004	0.00000E+000	5.42600E-005	5.99601E-002	5.38122E-001	3.57870E+000	9	...........
	18	0.253333	5.50474E-001	1.00921E-004	0.00000E+000	5.55543E-005	5.99601E-002	5.50725E-001	3.57870E+000	9	...........
	19	0.266667	5.62884E-001	1.00438E-004	0.00000E+000	5.65347E-005	5.99601E-002	5.63130E-001	3.57870E+000	9	...........
	20	0.28	5.75064E-001	1.01620E-004	0.00000E+000	5.84380E-005	5.99601E-002	5.75331E-001	3.57870E+000	9	...........
	21	0.293333	5.87038E-001	1.00819E-004	0.00000E+000	5.91845E-005	5.99601E-002	5.87340E-001	3.57870E+000	9	...........
	22	0.306667	5.98808E-001	1.00610E-004	0.00000E+000	6.02463E-005	5.99601E-002	5.99103E-001	3.57870E+000	9	...........
	23	0.32	6.10385E-001	1.00859E-004	0.00000E+000	6.15631E-005	5.99601E-002	6.10691E-001	3.57870E+000	9	...........
	24	0.333333	6.21856E-001	1.01046E-004	0.00000E+000	6.28361E-005	5.99601E-002	6.22091E-001	3.57870E+000	9	...........
	25	0.346667	6.33049E-001	1.01436E-004	0.00000E+000	6.42137E-005	5.99601E-002	6.33307E-001	3.57870E+000	9	...........
	26	0.36	6.44117E-001	1.01341E-004	0.00000E+000	6.52754E-005	5.99601E-002	6.44372E-001	3.57870E+000	9	...........
	27	0.373333	6.54985E-001	1.00833E-004	0.00000E+000	6.60444E-005	5.99601E-002	6.55236E-001	3.57870E+000	9	...........
	28	0.386667	6.65680E-001	1.01629E-004	0.00000E+000	6.76527E-005	5.99601E-002	6.65938E-001	3.57870E+000	9	...........
	29	0.4	6.76193E-001	1.01214E-004	0.00000E+000	6.84400E-005	5.99601E-002	6.76489E-001	3.57870E+000	9	...........
	30	0.413333	6.86551E-001	1.00814E-004	0.00000E+000	6.92137E-005	5.99601E-002	6.86829E-001	3.57870E+000	9	...........
	31	0.426667	6.96748E-001	1.00321E-004	0.00000E+000	6.98983E-005	5.99601E-002	6.97002E-001	3.57870E+000	9	...........
	32	0.44	7.06748E-001	1.00883E-004	0.00000E+000	7.12991E-005	5.99601E-002	7.07020E-001	3.57870E+000	9	...........
	33	0.453333	7.16623E-001	1.00981E-004	0.00000E+000	7.23655E-005	5.99601E-002	7.16885E-001	3.57870E+000	9	...........
	34	0.466667	7.26309E-001	1.01365E-004	0.00000E+000	7.36221E-005	5.99601E-002	7.26540E-001	3.57870E+000	9	...........
	35	0.48	7.35797E-001	1.01213E-004	0.00000E+000	7.44720E-005	5.99601E-002	7.36054E-001	3.57795E+000	9	...........
	36	0.493333	7.45156E-001	1.00654E-004	0.00000E+000	7.50031E-005	5.99601E-002	7.45395E-001	3.57750E+000	9	...........
	37	0.506667	7.54338E-001	1.01496E-004	0.00000E+000	7.65623E-005	5.99601E-002	7.54576E-001	3.57750E+000	9	...........
	38	0.52	7.63327E-001	1.00774E-004	0.00000E+000	7.69236E-005	5.99601E-002	7.63590E-001	3.57750E+000	9	...........
	39	0.533333	7.72174E-001	1.01191E-004	0.00000E+000	7.81369E-005	5.99601E-002	7.72416E-001	3.57750E+000	9	...........
	40	0.546667	7.80818E-001	1.01064E-004	0.00000E+000	7.89123E-005	5.99601E-002	7.81077E-001	3.57750E+000	9	...........
	41	0.56	7.89308E-001	1.01166E-004	0.00000E+000	7.98510E-005	5.99601E-002	7.89536E-001	3.57750E+000	9	...........
	42	0.573333	7.97657E-001	1.01411E-004	0.00000E+000	8.08910E-005	5.99601E-002	7.97860E-001	3.57750E+000	9	...........
	43	0.586667	8.05774E-001	1.00992E-004	0.00000E+000	8.13766E-005	5.99601E-002	8.05990E-001	3.57750E+000	9	...........
	44	0.6	8.13727E-001	1.00334E-004	0.00000E+000	8.16448E-005	5.99601E-002	8.13960E-001	3.57750E+000	9	...........
	45	0.613333	8.21539E-001	1.01368E-004	0.00000E+000	8.32777E-005	5.99601E-002	8.21767E-001	3.57750E+000	9	...........
	46	0.626667	8.29147E-001	1.00253E-004	0.00000E+000	8.31245E-005	5.99601E-002	8.29413E-001	3.57750E+000	9	...........
	47	0.64	8.36582E-001	1.00856E-004	0.00000E+000	8.43746E-005	5.99601E-002	8.36857E-001	3.57750E+000	9	...........
	48	0.653333	8.43855E-001	1.00302E-004	0.00000E+000	8.46404E-005	5.99601E-002	8.44143E-001	3.57750E+000	9	...........
	49	0.666667	8.50955E-001	1.01074E-004	0.00000E+000	8.60095E-005	5.99601E-002	8.51253E-001	3.57750E+000	9	...........
	50	0.68	8.57881E-001	1.00557E-004	0.00000E+000	8.62662E-005	5.99601E-002	8.58191E-001	3.57750E+000	9	...........
	51	0.693333	8.64641E-001	1.00735E-004	0.00000E+000	8.71000E-005	5.99601E-002	8.64966E-001	3.57750E+000	9	...........
	52	0.706667	8.71255E-001	1.00862E-004	0.00000E+000	8.78761E-005	5.99601E-002	8.71594E-001	3.57750E+000	9	...........
	53	0.72	8.77668E-001	1.01187E-004	0.00000E+000	8.88083E-005	5.99601E-002	8.78018E-001	3.57750E+000	9	...........
	54	0.733333	8.83932E-001	1.00234E-004	0.00000E+000	8.86003E-005	5.99601E-002	8.84267E-001	3.57750E+000	9	...........
	55	0.746667	8.90018E-001	1.00569E-004	0.00000E+000	8.95080E-005	5.99601E-002	8.90352E-001	3.57750E+000	9	...........
	56	0.76	8.95945E-001	1.01003E-004	0.00000E+000	9.04934E-005	5.99601E-002	8.96298E-001	3.57750E+000	9	...........
	57	0.773333	9.01715E-001	1.00920E-004	0.00000E+000	9.10010E-005	5.99601E-002	9.02068E-001	3.57750E+000	9	...........
	58	0.786667	9.07318E-001	1.01820E-004	0.00000E+000	9.23832E-005	5.99601E-002	9.07685E-001	3.57750E+000	9	...........
	59	0.8	9.12795E-001	1.00657E-004	0.00000E+000	9.18795E-005	5.99601E-002	9.13132E-001	3.57750E+000	9	...........
	60	0.813333	9.18087E-001	1.00612E-004	0.00000E+000	9.23701E-005	5.99601E-002	9.18443E-001	3.57750E+000	9	...........
	61	0.826667	9.23318E-001	1.00634E-004	0.00000E+000	9.29176E-005	5.99601E-002	9.23614E-001	3.57750E+000	9	...........
	62	0.84	9.28323E-001	1.01601E-004	0.00000E+000	9.43189E-005	5.99601E-002	9.28624E-001	3.57750E+000	9	...........
	63	0.853333	9.33198E-001	1.00363E-004	0.00000E+000	9.36580E-005	5.99601E-002	9.33523E-001	3.57750E+000	9	...........
	64	0.866667	9.37927E-001	1.00905E-004	0.00000E+000	9.46418E-005	5.99601E-002	9.38273E-001	3.57750E+000	9	...........
	65	0.88	9.42551E-001	1.00360E-004	0.00000E+000	9.45948E-005	5.99601E-002	9.42893E-001	3.57750E+000	9	...........
	66	0.893333	9.47060E-001	1.00670E-004	0.00000E+000	9.53404E-005	5.99601E-002	9.47418E-001	3.57750E+000	9	...........
	67	0.906667	9.51464E-001	1.00996E-004	0.00000E+000	9.60941E-005	5.99601E-002	9.51818E-001	3.57750E+000	9	...........
	68	0.92	9.55751E-001	1.01014E-004	0.00000E+000	9.65439E-005	5.99601E-002	9.56100E-001	3.57750E+000	9	...........
	69	0.933333	9.59916E-001	9.99562E-005	0.00000E+000	9.59495E-005	5.99601E-002	9.60261E-001	3.57750E+000	9	...........
	70	0.946667	9.63969E-001	1.01127E-004	0.00000E+000	9.74835E-005	5.99601E-002	9.64343E-001	3.57750E+000	9	...........
	71	0.96	9.67920E-001	1.00642E-004	0.00000E+000	9.74132E-005	5.99601E-002	9.68291E-001	3.57750E+000	9	...........
	72	0.97333	9.71824E-001	1.00166E-004	0.00000E+000	9.73434E-005	5.99601E-002	9.72196E-001	3.57750E+000	9	...........
	73	0.98667	9.75635E-001	1.00608E-004	0.00000E+000	9.81570E-005	5.99601E-002	9.75976E-001	3.57750E+000	9	...........
	74	1	9.79328E-001	1.01772E-004	0.00000E+000	9.96684E-005	5.99601E-002	9.79674E-001	3.57750E+000	9	...........
	75	1.01333	9.82918E-001	1.00772E-004	0.00000E+000	9.90506E-005	5.99601E-002	9.83279E-001	3.57750E+000	9	...........
	76	1.02667	9.86437E-001	1.00962E-004	0.00000E+000	9.95923E-005	5.99601E-002	9.86806E-001	3.57750E+000	9	...........
	77	1.04	9.89872E-001	1.00579E-004	0.00000E+000	9.95606E-005	5.99601E-002	9.90239E-001	3.57750E+000	9	...........
	78	1.05333	9.93192E-001	1.01898E-004	0.00000E+000	1.01205E-004	5.99601E-002	9.93562E-001	3.57750E+000	9	...........
	79	1.06667	9.96476E-001	1.01089E-004	0.00000E+000	1.00732E-004	5.99601E-002	9.96826E-001	3.57750E+000	9	...........
	80	1.07667	9.99289E-001	9.99117E-005	0.00000E+000	9.98407E-005	5.99601E-002	9.99601E-001	3.57750E+000	9	...........
STARTTIMEOFFSET	QUANT	155.6567	Start Time Offset (s)
