EXPLAIN
TAG	PWR800_CHARGE
TITLE	LABEL	PWR Cyclic Charge Discharge (Cell) - Charge Step	Test &Identifier
DATE	LABEL	12-7-2017	Date
TIME	LABEL	16:39:57	Time
NOTES	NOTES	2	&Notes...
	supercap test cell
	6M KOH
PSTAT	PSTAT	IFC5000-01520	Potentiostat
CAPACITY	QUANT	1.00000E-003	Capacity (A-hr)
CELLTYPE	SELECTOR	1	&Cell Type
WORKINGCONNECTION	SELECTOR	0	&Working Lead
MAXCHARGETIME	VARIABLEANDUNITS	1.00000E+002	s	1.00000E+002	second(s)	Max &Charge Time
CHARGECURRENT	QUANT	1.00000E-004	&Charge Current (A) 
VOLTAGEFINISH	TWOPARAM	F	1.00000E-003	3.60000E+003	&Voltage Finish	 I (A) < 	Max Time(s)
SAMPLETIME	QUANT	1.00000E-002	Sa&mple Period (s)
CHARGESTOPAT1	MULTIPARAM	4	1.00000E+000	Charge Stop At &1	Voltage > Limit	V
CHARGESTOPAT2	MULTIPARAM	0	0.00000E+000	Charge Stop At &2	None	N/A
AESBHCSELECTOR	TOGGLE	F	Save Both Half Cells
IRCOMP	TOGGLE	F	IR &Measure
EOC	QUANT	0	Open Circuit (V)
SEQUENCER	TOGGLE	TRUE	Run as Sequence
PSTATMODEL	IQUANT	53	Pstat Model
PSTATSECTION	LABEL	IFC5000-01520	Pstat Section
PSTATSERIALNO	LABEL	01520	Pstat Serial Number
CTRLMODE	IQUANT	0	Control Mode
ELECTROMETER	IQUANT	1	RE=0 or CS=1
IESTAB	IQUANT	0	I/E Stability
CASPEED	IQUANT	4	Control Amp Speed
CONVENTION	IQUANT	1	Current Convention
ICHRANGE	IQUANT	2	Ich Range
ICHRANGEMODE	TOGGLE	T	Ich Auto Range
ICHOFFSETENABLE	TOGGLE	F	Ich Offset Enable
ICHOFFSET	QUANT	0	Ich Offset (V)
ICHFILTER	IQUANT	1	Ich Filter
VCHRANGE	IQUANT	2	Vch Range
VCHRANGEMODE	TOGGLE	T	Vch Auto Range
VCHOFFSETENABLE	TOGGLE	F	Vch Offset Enable
VCHOFFSET	QUANT	0	Vch Offset (V)
VCHFILTER	IQUANT	1	Vch Filter
IERANGELOWERLIMIT	IQUANT	9	I/E Range Lower Limit
IERANGEMODE	TOGGLE	F	I/E AutoRange
IERANGE	IQUANT	9	I/E Range
ACHSELECT	IQUANT	1	Ach Select
ACHRANGE	IQUANT	2	Ach Range
ACHOFFSETENABLE	TOGGLE	F	Ach Offset Enable
ACHOFFSET	QUANT	0	Ach Offset (V)
ACHFILTER	IQUANT	1	Ach Filter
CABLEID	IQUANT	14	Cable ID
DCCALDATE	LABEL	5-7-2017	DC Calibration Date
ACCALDATE	LABEL	12/3/2015	AC Calibration Date
FRAMEWORKVERSION	QUANT	7.01	Framework Version
INSTRUMENTVERSION	LABEL	4.00	Instrument Version
CURVE	TABLE	75
	Pt	T	Vf	Im	Vu	Pwr	Sig	Ach	Temp	IERange	Over
	#	s	V	A	V	W	V	V	deg C	#	bits
	0	0.013333	2.62048E-001	1.01555E-004	0.00000E+000	2.66124E-005	5.99601E-002	2.62133E-001	3.57640E+000	9	...........
	1	0.026667	2.84984E-001	9.97634E-005	0.00000E+000	2.84309E-005	5.99601E-002	2.85047E-001	3.57640E+000	9	...........
	2	0.04	3.06648E-001	1.00469E-004	0.00000E+000	3.08085E-005	5.99601E-002	3.06712E-001	3.57640E+000	9	...........
	3	0.053333	3.27390E-001	1.02516E-004	0.00000E+000	3.35628E-005	5.99601E-002	3.27454E-001	3.57640E+000	9	...........
	4	0.066667	3.47385E-001	1.01069E-004	0.00000E+000	3.51098E-005	5.99601E-002	3.47454E-001	3.57640E+000	9	...........
	5	0.08	3.66777E-001	1.00501E-004	0.00000E+000	3.68614E-005	5.99601E-002	3.66851E-001	3.57640E+000	9	...........
	6	0.093333	3.85636E-001	1.01028E-004	0.00000E+000	3.89601E-005	5.99601E-002	3.85714E-001	3.57640E+000	9	...........
	7	0.106667	4.04022E-001	1.00220E-004	0.00000E+000	4.04910E-005	5.99601E-002	4.04104E-001	3.57640E+000	9	...........
	8	0.12	4.21951E-001	1.00026E-004	0.00000E+000	4.22061E-005	5.99601E-002	4.22040E-001	3.57640E+000	9	...........
	9	0.133333	4.39480E-001	1.00897E-004	0.00000E+000	4.43422E-005	5.99601E-002	4.39574E-001	3.57640E+000	9	...........
	10	0.146667	4.56612E-001	1.01252E-004	0.00000E+000	4.62330E-005	5.99601E-002	4.56705E-001	3.57640E+000	9	...........
	11	0.16	4.73360E-001	9.91987E-005	0.00000E+000	4.69567E-005	5.99601E-002	4.73457E-001	3.57640E+000	9	...........
	12	0.173333	4.89751E-001	1.01038E-004	0.00000E+000	4.94833E-005	5.99601E-002	4.89853E-001	3.57640E+000	9	...........
	13	0.186667	5.05780E-001	1.00592E-004	0.00000E+000	5.08773E-005	5.99601E-002	5.05888E-001	3.57640E+000	9	...........
	14	0.2	5.21466E-001	1.02487E-004	0.00000E+000	5.34434E-005	5.99601E-002	5.21571E-001	3.57640E+000	9	...........
	15	0.213333	5.36621E-001	1.00517E-004	0.00000E+000	5.39393E-005	5.99601E-002	5.36802E-001	3.57640E+000	9	...........
	16	0.226667	5.51520E-001	1.01559E-004	0.00000E+000	5.60116E-005	5.99601E-002	5.51740E-001	3.57640E+000	9	...........
	17	0.24	5.66221E-001	1.00193E-004	0.00000E+000	5.67312E-005	5.99601E-002	5.66440E-001	3.57640E+000	9	...........
	18	0.253333	5.80534E-001	1.00697E-004	0.00000E+000	5.84580E-005	5.99601E-002	5.80781E-001	3.57640E+000	9	...........
	19	0.266667	5.94600E-001	1.01159E-004	0.00000E+000	6.01488E-005	5.99601E-002	5.94833E-001	3.57640E+000	9	...........
	20	0.28	6.08284E-001	1.01159E-004	0.00000E+000	6.15331E-005	5.99601E-002	6.08545E-001	3.57640E+000	9	...........
	21	0.293333	6.21747E-001	1.00939E-004	0.00000E+000	6.27584E-005	5.99601E-002	6.21957E-001	3.57640E+000	9	...........
	22	0.306667	6.34786E-001	1.00603E-004	0.00000E+000	6.38615E-005	5.99601E-002	6.35023E-001	3.57640E+000	9	...........
	23	0.32	6.47586E-001	1.00957E-004	0.00000E+000	6.53786E-005	5.99601E-002	6.47828E-001	3.57640E+000	9	...........
	24	0.333333	6.60050E-001	1.00154E-004	0.00000E+000	6.61068E-005	5.99601E-002	6.60304E-001	3.57640E+000	9	...........
	25	0.346667	6.72252E-001	1.01028E-004	0.00000E+000	6.79165E-005	5.99601E-002	6.72469E-001	3.57640E+000	9	...........
	26	0.36	6.84102E-001	1.00377E-004	0.00000E+000	6.86681E-005	5.99601E-002	6.84353E-001	3.57640E+000	9	...........
	27	0.373333	6.95691E-001	1.00172E-004	0.00000E+000	6.96887E-005	5.99601E-002	6.95935E-001	3.57640E+000	9	...........
	28	0.386667	7.06975E-001	1.02030E-004	0.00000E+000	7.21323E-005	5.99601E-002	7.07230E-001	3.57640E+000	9	...........
	29	0.4	7.17976E-001	1.00684E-004	0.00000E+000	7.22890E-005	5.99601E-002	7.18240E-001	3.57640E+000	9	...........
	30	0.413333	7.28668E-001	9.95738E-005	0.00000E+000	7.25563E-005	5.99601E-002	7.28944E-001	3.57640E+000	9	...........
	31	0.426667	7.39112E-001	1.00644E-004	0.00000E+000	7.43871E-005	5.99601E-002	7.39361E-001	3.57640E+000	9	...........
	32	0.44	7.49235E-001	1.01363E-004	0.00000E+000	7.59444E-005	5.99601E-002	7.49510E-001	3.57640E+000	9	...........
	33	0.453333	7.59109E-001	1.01531E-004	0.00000E+000	7.70735E-005	5.99601E-002	7.59387E-001	3.57640E+000	9	...........
	34	0.466667	7.68692E-001	1.01319E-004	0.00000E+000	7.78830E-005	5.99601E-002	7.68986E-001	3.57640E+000	9	...........
	35	0.48	7.78043E-001	1.01535E-004	0.00000E+000	7.89983E-005	5.99601E-002	7.78327E-001	3.57640E+000	9	...........
	36	0.493333	7.87104E-001	1.01449E-004	0.00000E+000	7.98510E-005	5.99601E-002	7.87390E-001	3.57640E+000	9	...........
	37	0.506667	7.95918E-001	1.00530E-004	0.00000E+000	8.00138E-005	5.99601E-002	7.96191E-001	3.57640E+000	9	...........
	38	0.52	8.04455E-001	1.00481E-004	0.00000E+000	8.08327E-005	5.99601E-002	8.04741E-001	3.57640E+000	9	...........
	39	0.533333	8.12717E-001	1.01312E-004	0.00000E+000	8.23377E-005	5.99601E-002	8.13020E-001	3.57640E+000	9	...........
	40	0.546667	8.20780E-001	1.00382E-004	0.00000E+000	8.23918E-005	5.99601E-002	8.21072E-001	3.57640E+000	9	...........
	41	0.56	8.28555E-001	1.01266E-004	0.00000E+000	8.39043E-005	5.99601E-002	8.28841E-001	3.57640E+000	9	...........
	42	0.573333	8.36082E-001	1.01529E-004	0.00000E+000	8.48869E-005	5.99601E-002	8.36388E-001	3.57640E+000	9	...........
	43	0.586667	8.43388E-001	1.01399E-004	0.00000E+000	8.55189E-005	5.99601E-002	8.43696E-001	3.57640E+000	9	...........
	44	0.6	8.50489E-001	1.01441E-004	0.00000E+000	8.62744E-005	5.99601E-002	8.50779E-001	3.57640E+000	9	...........
	45	0.613333	8.57342E-001	1.01042E-004	0.00000E+000	8.66274E-005	5.99601E-002	8.57644E-001	3.57640E+000	9	...........
	46	0.626667	8.63970E-001	1.01122E-004	0.00000E+000	8.73664E-005	5.99601E-002	8.64267E-001	3.57640E+000	9	...........
	47	0.64	8.70449E-001	1.01695E-004	0.00000E+000	8.85204E-005	5.99601E-002	8.70746E-001	3.57640E+000	9	...........
	48	0.653333	8.76693E-001	1.01058E-004	0.00000E+000	8.85973E-005	5.99601E-002	8.76997E-001	3.57640E+000	9	...........
	49	0.666667	8.82778E-001	1.01442E-004	0.00000E+000	8.95506E-005	5.99601E-002	8.83082E-001	3.57640E+000	9	...........
	50	0.68	8.88672E-001	1.00502E-004	0.00000E+000	8.93135E-005	5.99601E-002	8.88982E-001	3.57640E+000	9	...........
	51	0.693333	8.94413E-001	1.00368E-004	0.00000E+000	8.97702E-005	5.99601E-002	8.94726E-001	3.57640E+000	9	...........
	52	0.706667	9.00003E-001	1.01272E-004	0.00000E+000	9.11451E-005	5.99601E-002	9.00329E-001	3.57640E+000	9	...........
	53	0.72	9.05452E-001	1.00961E-004	0.00000E+000	9.14150E-005	5.99601E-002	9.05778E-001	3.57640E+000	9	...........
	54	0.733333	9.10807E-001	1.01211E-004	0.00000E+000	9.21833E-005	5.99601E-002	9.11119E-001	3.57640E+000	9	...........
	55	0.746667	9.16021E-001	1.01506E-004	0.00000E+000	9.29821E-005	5.99601E-002	9.16352E-001	3.57640E+000	9	...........
	56	0.76	9.21192E-001	1.00756E-004	0.00000E+000	9.28159E-005	5.99601E-002	9.21462E-001	3.57640E+000	9	...........
	57	0.773333	9.26204E-001	1.00235E-004	0.00000E+000	9.28384E-005	5.99601E-002	9.26474E-001	3.57659E+000	9	...........
	58	0.786667	9.31116E-001	1.01737E-004	0.00000E+000	9.47287E-005	5.99601E-002	9.31399E-001	3.57790E+000	9	...........
	59	0.8	9.35947E-001	1.02995E-004	0.00000E+000	9.63982E-005	5.99601E-002	9.36250E-001	3.57790E+000	9	...........
	60	0.813333	9.40709E-001	1.02139E-004	0.00000E+000	9.60830E-005	5.99601E-002	9.40985E-001	3.57790E+000	9	...........
	61	0.826667	9.45380E-001	1.01768E-004	0.00000E+000	9.62094E-005	5.99601E-002	9.45675E-001	3.57790E+000	9	...........
	62	0.84	9.49993E-001	9.95842E-005	0.00000E+000	9.46043E-005	5.99601E-002	9.50265E-001	3.57790E+000	9	...........
	63	0.853333	9.54482E-001	1.00798E-004	0.00000E+000	9.62098E-005	5.99601E-002	9.54771E-001	3.57790E+000	9	...........
	64	0.866667	9.58918E-001	1.02160E-004	0.00000E+000	9.79629E-005	5.99601E-002	9.59210E-001	3.57790E+000	9	...........
	65	0.88	9.63279E-001	9.89945E-005	0.00000E+000	9.53593E-005	5.99601E-002	9.63574E-001	3.57790E+000	9	...........
	66	0.893333	9.67577E-001	1.00920E-004	0.00000E+000	9.76477E-005	5.99601E-002	9.67873E-001	3.57790E+000	9	...........
	67	0.906667	9.71786E-001	1.01180E-004	0.00000E+000	9.83256E-005	5.99601E-002	9.72109E-001	3.57790E+000	9	...........
	68	0.92	9.75953E-001	1.01513E-004	0.00000E+000	9.90717E-005	5.99601E-002	9.76244E-001	3.57790E+000	9	...........
	69	0.933333	9.80011E-001	1.01346E-004	0.00000E+000	9.93203E-005	5.99601E-002	9.80299E-001	3.57790E+000	9	...........
	70	0.946667	9.83976E-001	1.02510E-004	0.00000E+000	1.00867E-004	5.99601E-002	9.84290E-001	3.57790E+000	9	...........
	71	0.96	9.87869E-001	9.93560E-005	0.00000E+000	9.81508E-005	5.99601E-002	9.88195E-001	3.57790E+000	9	...........
	72	0.97333	9.91673E-001	1.01870E-004	0.00000E+000	1.01022E-004	5.99601E-002	9.92012E-001	3.57790E+000	9	...........
	73	0.98667	9.95401E-001	1.01239E-004	0.00000E+000	1.00773E-004	5.99601E-002	9.95745E-001	3.57790E+000	9	...........
	74	0.99833	9.98846E-001	1.00808E-004	0.00000E+000	1.00691E-004	5.99601E-002	9.99189E-001	3.57790E+000	9	...........
STARTTIMEOFFSET	QUANT	1276.512	Start Time Offset (s)
