EXPLAIN
TAG	PWR800_CHARGE
TITLE	LABEL	PWR Cyclic Charge Discharge (Cell) - Charge Step	Test &Identifier
DATE	LABEL	12-7-2017	Date
TIME	LABEL	16:12:17	Time
NOTES	NOTES	2	&Notes...
	supercap test cell
	6M KOH
PSTAT	PSTAT	IFC5000-01520	Potentiostat
CAPACITY	QUANT	1.00000E-003	Capacity (A-hr)
CELLTYPE	SELECTOR	1	&Cell Type
WORKINGCONNECTION	SELECTOR	0	&Working Lead
MAXCHARGETIME	VARIABLEANDUNITS	1.00000E+002	s	1.00000E+002	second(s)	Max &Charge Time
CHARGECURRENT	QUANT	1.00000E-004	&Charge Current (A) 
VOLTAGEFINISH	TWOPARAM	F	1.00000E-003	3.60000E+003	&Voltage Finish	 I (A) < 	Max Time(s)
SAMPLETIME	QUANT	1.00000E-002	Sa&mple Period (s)
CHARGESTOPAT1	MULTIPARAM	4	1.00000E+000	Charge Stop At &1	Voltage > Limit	V
CHARGESTOPAT2	MULTIPARAM	0	0.00000E+000	Charge Stop At &2	None	N/A
AESBHCSELECTOR	TOGGLE	F	Save Both Half Cells
IRCOMP	TOGGLE	F	IR &Measure
EOC	QUANT	0	Open Circuit (V)
SEQUENCER	TOGGLE	TRUE	Run as Sequence
PSTATMODEL	IQUANT	53	Pstat Model
PSTATSECTION	LABEL	IFC5000-01520	Pstat Section
PSTATSERIALNO	LABEL	01520	Pstat Serial Number
CTRLMODE	IQUANT	0	Control Mode
ELECTROMETER	IQUANT	1	RE=0 or CS=1
IESTAB	IQUANT	0	I/E Stability
CASPEED	IQUANT	4	Control Amp Speed
CONVENTION	IQUANT	1	Current Convention
ICHRANGE	IQUANT	2	Ich Range
ICHRANGEMODE	TOGGLE	T	Ich Auto Range
ICHOFFSETENABLE	TOGGLE	F	Ich Offset Enable
ICHOFFSET	QUANT	0	Ich Offset (V)
ICHFILTER	IQUANT	1	Ich Filter
VCHRANGE	IQUANT	2	Vch Range
VCHRANGEMODE	TOGGLE	T	Vch Auto Range
VCHOFFSETENABLE	TOGGLE	F	Vch Offset Enable
VCHOFFSET	QUANT	0	Vch Offset (V)
VCHFILTER	IQUANT	1	Vch Filter
IERANGELOWERLIMIT	IQUANT	9	I/E Range Lower Limit
IERANGEMODE	TOGGLE	F	I/E AutoRange
IERANGE	IQUANT	9	I/E Range
ACHSELECT	IQUANT	1	Ach Select
ACHRANGE	IQUANT	2	Ach Range
ACHOFFSETENABLE	TOGGLE	F	Ach Offset Enable
ACHOFFSET	QUANT	0	Ach Offset (V)
ACHFILTER	IQUANT	1	Ach Filter
CABLEID	IQUANT	14	Cable ID
DCCALDATE	LABEL	5-7-2017	DC Calibration Date
ACCALDATE	LABEL	12/3/2015	AC Calibration Date
FRAMEWORKVERSION	QUANT	7.01	Framework Version
INSTRUMENTVERSION	LABEL	4.00	Instrument Version
CURVE	TABLE	83
	Pt	T	Vf	Im	Vu	Pwr	Sig	Ach	Temp	IERange	Over
	#	s	V	A	V	W	V	V	deg C	#	bits
	0	0.013333	2.60162E-001	1.01203E-004	0.00000E+000	2.63292E-005	5.99601E-002	2.60245E-001	3.57740E+000	9	...........
	1	0.026667	2.82768E-001	1.00079E-004	0.00000E+000	2.82991E-005	5.99601E-002	2.82836E-001	3.57740E+000	9	...........
	2	0.04	3.03750E-001	9.99676E-005	0.00000E+000	3.03651E-005	5.99601E-002	3.03817E-001	3.57740E+000	9	...........
	3	0.053333	3.23490E-001	1.00952E-004	0.00000E+000	3.26570E-005	5.99601E-002	3.23559E-001	3.57740E+000	9	...........
	4	0.066667	3.42201E-001	9.99926E-005	0.00000E+000	3.42176E-005	5.99601E-002	3.42268E-001	3.57740E+000	9	...........
	5	0.08	3.60023E-001	9.97426E-005	0.00000E+000	3.59096E-005	5.99601E-002	3.60099E-001	3.57740E+000	9	...........
	6	0.093333	3.77087E-001	1.00960E-004	0.00000E+000	3.80705E-005	5.99601E-002	3.77163E-001	3.57740E+000	9	...........
	7	0.106667	3.93468E-001	1.01367E-004	0.00000E+000	3.98846E-005	5.99601E-002	3.93552E-001	3.57803E+000	9	...........
	8	0.12	4.09258E-001	9.98447E-005	0.00000E+000	4.08623E-005	5.99601E-002	4.09344E-001	3.57810E+000	9	...........
	9	0.133333	4.24519E-001	1.01025E-004	0.00000E+000	4.28871E-005	5.99601E-002	4.24611E-001	3.57810E+000	9	...........
	10	0.146667	4.39302E-001	1.00862E-004	0.00000E+000	4.43087E-005	5.99601E-002	4.39395E-001	3.57810E+000	9	...........
	11	0.16	4.53662E-001	1.00977E-004	0.00000E+000	4.58096E-005	5.99601E-002	4.53759E-001	3.57810E+000	9	...........
	12	0.173333	4.67649E-001	1.00816E-004	0.00000E+000	4.71464E-005	5.99601E-002	4.67745E-001	3.57810E+000	9	...........
	13	0.186667	4.81276E-001	1.01017E-004	0.00000E+000	4.86169E-005	5.99601E-002	4.81381E-001	3.57810E+000	9	...........
	14	0.2	4.94588E-001	1.00520E-004	0.00000E+000	4.97159E-005	5.99601E-002	4.94698E-001	3.57810E+000	9	...........
	15	0.213333	5.07618E-001	1.01401E-004	0.00000E+000	5.14731E-005	5.99601E-002	5.07732E-001	3.57810E+000	9	...........
	16	0.226667	5.20376E-001	1.00587E-004	0.00000E+000	5.23428E-005	5.99601E-002	5.20491E-001	3.57810E+000	9	...........
	17	0.24	5.32745E-001	1.01387E-004	0.00000E+000	5.40133E-005	5.99601E-002	5.32924E-001	3.57810E+000	9	...........
	18	0.253333	5.44842E-001	1.00893E-004	0.00000E+000	5.49706E-005	5.99601E-002	5.45109E-001	3.57810E+000	9	...........
	19	0.266667	5.56867E-001	1.00350E-004	0.00000E+000	5.58816E-005	5.99601E-002	5.57169E-001	3.57810E+000	9	...........
	20	0.28	5.68727E-001	1.01299E-004	0.00000E+000	5.76115E-005	5.99601E-002	5.68997E-001	3.57810E+000	9	...........
	21	0.293333	5.80363E-001	1.00005E-004	0.00000E+000	5.80393E-005	5.99601E-002	5.80632E-001	3.57810E+000	9	...........
	22	0.306667	5.91809E-001	1.01241E-004	0.00000E+000	5.99152E-005	5.99601E-002	5.92112E-001	3.57810E+000	9	...........
	23	0.32	6.03062E-001	1.01037E-004	0.00000E+000	6.09313E-005	5.99601E-002	6.03361E-001	3.57810E+000	9	...........
	24	0.333333	6.14185E-001	1.00980E-004	0.00000E+000	6.20206E-005	5.99601E-002	6.14472E-001	3.57810E+000	9	...........
	25	0.346667	6.25119E-001	1.00538E-004	0.00000E+000	6.28479E-005	5.99601E-002	6.25387E-001	3.57810E+000	9	...........
	26	0.36	6.35849E-001	1.00712E-004	0.00000E+000	6.40373E-005	5.99601E-002	6.36136E-001	3.57810E+000	9	...........
	27	0.373333	6.46493E-001	1.01569E-004	0.00000E+000	6.56636E-005	5.99601E-002	6.46733E-001	3.57810E+000	9	...........
	28	0.386667	6.56902E-001	1.01625E-004	0.00000E+000	6.67578E-005	5.99601E-002	6.57168E-001	3.57810E+000	9	...........
	29	0.4	6.67191E-001	1.01248E-004	0.00000E+000	6.75518E-005	5.99601E-002	6.67455E-001	3.57810E+000	9	...........
	30	0.413333	6.77332E-001	1.00842E-004	0.00000E+000	6.83033E-005	5.99601E-002	6.77560E-001	3.57810E+000	9	...........
	31	0.426667	6.87282E-001	1.01157E-004	0.00000E+000	6.95237E-005	5.99601E-002	6.87527E-001	3.57810E+000	9	...........
	32	0.44	6.97103E-001	1.01517E-004	0.00000E+000	7.07677E-005	5.99601E-002	6.97343E-001	3.57810E+000	9	...........
	33	0.453333	7.06758E-001	1.01193E-004	0.00000E+000	7.15188E-005	5.99601E-002	7.07029E-001	3.57810E+000	9	...........
	34	0.466667	7.16287E-001	1.00154E-004	0.00000E+000	7.17391E-005	5.99601E-002	7.16545E-001	3.57810E+000	9	...........
	35	0.48	7.25668E-001	1.00933E-004	0.00000E+000	7.32442E-005	5.99601E-002	7.25908E-001	3.57810E+000	9	...........
	36	0.493333	7.34848E-001	1.00850E-004	0.00000E+000	7.41095E-005	5.99601E-002	7.35113E-001	3.57810E+000	9	...........
	37	0.506667	7.43931E-001	1.00932E-004	0.00000E+000	7.50868E-005	5.99601E-002	7.44189E-001	3.57810E+000	9	...........
	38	0.52	7.52843E-001	1.01228E-004	0.00000E+000	7.62091E-005	5.99601E-002	7.53106E-001	3.57810E+000	9	...........
	39	0.533333	7.61618E-001	1.00904E-004	0.00000E+000	7.68505E-005	5.99601E-002	7.61866E-001	3.57810E+000	9	...........
	40	0.546667	7.70212E-001	1.00979E-004	0.00000E+000	7.77755E-005	5.99601E-002	7.70501E-001	3.57810E+000	9	...........
	41	0.56	7.78652E-001	1.01344E-004	0.00000E+000	7.89116E-005	5.99601E-002	7.78954E-001	3.57810E+000	9	...........
	42	0.573333	7.86972E-001	1.00998E-004	0.00000E+000	7.94827E-005	5.99601E-002	7.87254E-001	3.57810E+000	9	...........
	43	0.586667	7.95125E-001	1.01162E-004	0.00000E+000	8.04362E-005	5.99601E-002	7.95412E-001	3.57810E+000	9	...........
	44	0.6	8.03116E-001	1.00820E-004	0.00000E+000	8.09700E-005	5.99601E-002	8.03401E-001	3.57810E+000	9	...........
	45	0.613333	8.10931E-001	1.00939E-004	0.00000E+000	8.18543E-005	5.99601E-002	8.11227E-001	3.57810E+000	9	...........
	46	0.626667	8.18604E-001	1.01039E-004	0.00000E+000	8.27107E-005	5.99601E-002	8.18923E-001	3.57810E+000	9	...........
	47	0.64	8.26126E-001	1.00920E-004	0.00000E+000	8.33725E-005	5.99601E-002	8.26436E-001	3.57810E+000	9	...........
	48	0.653333	8.33467E-001	1.01299E-004	0.00000E+000	8.44295E-005	5.99601E-002	8.33776E-001	3.57810E+000	9	...........
	49	0.666667	8.40653E-001	1.01396E-004	0.00000E+000	8.52389E-005	5.99601E-002	8.40992E-001	3.57810E+000	9	...........
	50	0.68	8.47728E-001	1.00557E-004	0.00000E+000	8.52453E-005	5.99601E-002	8.48053E-001	3.57810E+000	9	...........
	51	0.693333	8.54607E-001	1.01461E-004	0.00000E+000	8.67090E-005	5.99601E-002	8.54926E-001	3.57810E+000	9	...........
	52	0.706667	8.61338E-001	1.01499E-004	0.00000E+000	8.74252E-005	5.99601E-002	8.61653E-001	3.57810E+000	9	...........
	53	0.72	8.67920E-001	1.01157E-004	0.00000E+000	8.77966E-005	5.99601E-002	8.68236E-001	3.57810E+000	9	...........
	54	0.733333	8.74345E-001	1.01378E-004	0.00000E+000	8.86396E-005	5.99601E-002	8.74668E-001	3.57810E+000	9	...........
	55	0.746667	8.80626E-001	1.00340E-004	0.00000E+000	8.83616E-005	5.99601E-002	8.80923E-001	3.57810E+000	9	...........
	56	0.76	8.86734E-001	1.01121E-004	0.00000E+000	8.96674E-005	5.99601E-002	8.87053E-001	3.57810E+000	9	...........
	57	0.773333	8.92674E-001	1.00825E-004	0.00000E+000	9.00039E-005	5.99601E-002	8.92992E-001	3.57810E+000	9	...........
	58	0.786667	8.98485E-001	1.00764E-004	0.00000E+000	9.05346E-005	5.99601E-002	8.98817E-001	3.57810E+000	9	...........
	59	0.8	9.04151E-001	1.00856E-004	0.00000E+000	9.11893E-005	5.99601E-002	9.04492E-001	3.57810E+000	9	...........
	60	0.813333	9.09678E-001	1.01723E-004	0.00000E+000	9.25353E-005	5.99601E-002	9.10008E-001	3.57810E+000	9	...........
	61	0.826667	9.15060E-001	1.01159E-004	0.00000E+000	9.25661E-005	5.99601E-002	9.15392E-001	3.57810E+000	9	...........
	62	0.84	9.20309E-001	1.00936E-004	0.00000E+000	9.28919E-005	5.99601E-002	9.20615E-001	3.57810E+000	9	...........
	63	0.853333	9.25425E-001	1.00881E-004	0.00000E+000	9.33581E-005	5.99601E-002	9.25729E-001	3.57810E+000	9	...........
	64	0.866667	9.30395E-001	1.00552E-004	0.00000E+000	9.35532E-005	5.99601E-002	9.30674E-001	3.57810E+000	9	...........
	65	0.88	9.35186E-001	1.01272E-004	0.00000E+000	9.47082E-005	5.99601E-002	9.35545E-001	3.57810E+000	9	...........
	66	0.893333	9.39893E-001	1.01277E-004	0.00000E+000	9.51898E-005	5.99601E-002	9.40238E-001	3.57810E+000	9	...........
	67	0.906667	9.44450E-001	1.01835E-004	0.00000E+000	9.61778E-005	5.99601E-002	9.44795E-001	3.57810E+000	9	...........
	68	0.92	9.48948E-001	1.01822E-004	0.00000E+000	9.66240E-005	5.99601E-002	9.49286E-001	3.57810E+000	9	...........
	69	0.933333	9.53269E-001	1.00385E-004	0.00000E+000	9.56943E-005	5.99601E-002	9.53604E-001	3.57810E+000	9	...........
	70	0.946667	9.57499E-001	1.01461E-004	0.00000E+000	9.71485E-005	5.99601E-002	9.57831E-001	3.57810E+000	9	...........
	71	0.96	9.61607E-001	1.00911E-004	0.00000E+000	9.70363E-005	5.99601E-002	9.61975E-001	3.57810E+000	9	...........
	72	0.97333	9.65622E-001	1.01467E-004	0.00000E+000	9.79787E-005	5.99601E-002	9.65975E-001	3.57810E+000	9	...........
	73	0.98667	9.69545E-001	1.00492E-004	0.00000E+000	9.74312E-005	5.99601E-002	9.69890E-001	3.57810E+000	9	...........
	74	1	9.73405E-001	1.01299E-004	0.00000E+000	9.86051E-005	5.99601E-002	9.73734E-001	3.57810E+000	9	...........
	75	1.01333	9.77140E-001	1.01170E-004	0.00000E+000	9.88572E-005	5.99601E-002	9.77471E-001	3.57810E+000	9	...........
	76	1.02667	9.80746E-001	1.01369E-004	0.00000E+000	9.94172E-005	5.99601E-002	9.81090E-001	3.57810E+000	9	...........
	77	1.04	9.84274E-001	1.00716E-004	0.00000E+000	9.91318E-005	5.99601E-002	9.84639E-001	3.57810E+000	9	...........
	78	1.05333	9.87748E-001	1.01599E-004	0.00000E+000	1.00354E-004	5.99601E-002	9.88105E-001	3.57810E+000	9	...........
	79	1.06667	9.91089E-001	1.01623E-004	0.00000E+000	1.00718E-004	5.99601E-002	9.91461E-001	3.57810E+000	9	...........
	80	1.08	9.94381E-001	1.01317E-004	0.00000E+000	1.00748E-004	5.99601E-002	9.94735E-001	3.57810E+000	9	...........
	81	1.09333	9.97573E-001	1.01889E-004	0.00000E+000	1.01642E-004	5.99601E-002	9.97945E-001	3.57810E+000	9	...........
	82	1.09833	9.99743E-001	1.01331E-004	0.00000E+000	1.01305E-004	5.99601E-002	1.00011E+000	3.57833E+000	9	...........
STARTTIMEOFFSET	QUANT	94.135	Start Time Offset (s)
