EXPLAIN
TAG	PWR800_CHARGE
TITLE	LABEL	PWR Cyclic Charge Discharge (Cell) - Charge Step	Test &Identifier
DATE	LABEL	12-7-2017	Date
TIME	LABEL	16:53:08	Time
NOTES	NOTES	2	&Notes...
	supercap test cell
	6M KOH
PSTAT	PSTAT	IFC5000-01520	Potentiostat
CAPACITY	QUANT	1.00000E-003	Capacity (A-hr)
CELLTYPE	SELECTOR	1	&Cell Type
WORKINGCONNECTION	SELECTOR	0	&Working Lead
MAXCHARGETIME	VARIABLEANDUNITS	1.00000E+002	s	1.00000E+002	second(s)	Max &Charge Time
CHARGECURRENT	QUANT	1.00000E-004	&Charge Current (A) 
VOLTAGEFINISH	TWOPARAM	F	1.00000E-003	3.60000E+003	&Voltage Finish	 I (A) < 	Max Time(s)
SAMPLETIME	QUANT	1.00000E-002	Sa&mple Period (s)
CHARGESTOPAT1	MULTIPARAM	4	1.00000E+000	Charge Stop At &1	Voltage > Limit	V
CHARGESTOPAT2	MULTIPARAM	0	0.00000E+000	Charge Stop At &2	None	N/A
AESBHCSELECTOR	TOGGLE	F	Save Both Half Cells
IRCOMP	TOGGLE	F	IR &Measure
EOC	QUANT	0	Open Circuit (V)
SEQUENCER	TOGGLE	TRUE	Run as Sequence
PSTATMODEL	IQUANT	53	Pstat Model
PSTATSECTION	LABEL	IFC5000-01520	Pstat Section
PSTATSERIALNO	LABEL	01520	Pstat Serial Number
CTRLMODE	IQUANT	0	Control Mode
ELECTROMETER	IQUANT	1	RE=0 or CS=1
IESTAB	IQUANT	0	I/E Stability
CASPEED	IQUANT	4	Control Amp Speed
CONVENTION	IQUANT	1	Current Convention
ICHRANGE	IQUANT	2	Ich Range
ICHRANGEMODE	TOGGLE	T	Ich Auto Range
ICHOFFSETENABLE	TOGGLE	F	Ich Offset Enable
ICHOFFSET	QUANT	0	Ich Offset (V)
ICHFILTER	IQUANT	1	Ich Filter
VCHRANGE	IQUANT	2	Vch Range
VCHRANGEMODE	TOGGLE	T	Vch Auto Range
VCHOFFSETENABLE	TOGGLE	F	Vch Offset Enable
VCHOFFSET	QUANT	0	Vch Offset (V)
VCHFILTER	IQUANT	1	Vch Filter
IERANGELOWERLIMIT	IQUANT	9	I/E Range Lower Limit
IERANGEMODE	TOGGLE	F	I/E AutoRange
IERANGE	IQUANT	9	I/E Range
ACHSELECT	IQUANT	1	Ach Select
ACHRANGE	IQUANT	2	Ach Range
ACHOFFSETENABLE	TOGGLE	F	Ach Offset Enable
ACHOFFSET	QUANT	0	Ach Offset (V)
ACHFILTER	IQUANT	1	Ach Filter
CABLEID	IQUANT	14	Cable ID
DCCALDATE	LABEL	5-7-2017	DC Calibration Date
ACCALDATE	LABEL	12/3/2015	AC Calibration Date
FRAMEWORKVERSION	QUANT	7.01	Framework Version
INSTRUMENTVERSION	LABEL	4.00	Instrument Version
CURVE	TABLE	74
	Pt	T	Vf	Im	Vu	Pwr	Sig	Ach	Temp	IERange	Over
	#	s	V	A	V	W	V	V	deg C	#	bits
	0	0.013333	2.58851E-001	1.01106E-004	0.00000E+000	2.61715E-005	5.99601E-002	2.58927E-001	3.57640E+000	9	...........
	1	0.026667	2.81935E-001	9.98197E-005	0.00000E+000	2.81426E-005	5.99601E-002	2.81992E-001	3.57640E+000	9	...........
	2	0.04	3.03796E-001	1.00677E-004	0.00000E+000	3.05854E-005	5.99601E-002	3.03863E-001	3.57640E+000	9	...........
	3	0.053333	3.24780E-001	1.00209E-004	0.00000E+000	3.25460E-005	5.99601E-002	3.24849E-001	3.57640E+000	9	...........
	4	0.066667	3.45052E-001	1.01468E-004	0.00000E+000	3.50118E-005	5.99601E-002	3.45125E-001	3.57640E+000	9	...........
	5	0.08	3.64737E-001	1.00719E-004	0.00000E+000	3.67358E-005	5.99601E-002	3.64816E-001	3.57640E+000	9	...........
	6	0.093333	3.83903E-001	1.01572E-004	0.00000E+000	3.89939E-005	5.99601E-002	3.83977E-001	3.57640E+000	9	...........
	7	0.106667	4.02595E-001	1.00050E-004	0.00000E+000	4.02796E-005	5.99601E-002	4.02670E-001	3.57640E+000	9	...........
	8	0.12	4.20856E-001	1.00229E-004	0.00000E+000	4.21820E-005	5.99601E-002	4.20942E-001	3.57640E+000	9	...........
	9	0.133333	4.38705E-001	1.00221E-004	0.00000E+000	4.39674E-005	5.99601E-002	4.38790E-001	3.57640E+000	9	...........
	10	0.146667	4.56167E-001	1.00879E-004	0.00000E+000	4.60178E-005	5.99601E-002	4.56255E-001	3.57640E+000	9	...........
	11	0.16	4.73240E-001	1.00737E-004	0.00000E+000	4.76726E-005	5.99601E-002	4.73337E-001	3.57640E+000	9	...........
	12	0.173333	4.89952E-001	1.00321E-004	0.00000E+000	4.91524E-005	5.99601E-002	4.90049E-001	3.57640E+000	9	...........
	13	0.186667	5.06298E-001	1.00951E-004	0.00000E+000	5.11113E-005	5.99601E-002	5.06401E-001	3.57640E+000	9	...........
	14	0.2	5.22286E-001	1.01317E-004	0.00000E+000	5.29164E-005	5.99601E-002	5.22393E-001	3.57640E+000	9	...........
	15	0.213333	5.37713E-001	1.00873E-004	0.00000E+000	5.42408E-005	5.99601E-002	5.37896E-001	3.57640E+000	9	...........
	16	0.226667	5.52928E-001	1.02051E-004	0.00000E+000	5.64271E-005	5.99601E-002	5.53145E-001	3.57640E+000	9	...........
	17	0.24	5.67885E-001	1.01060E-004	0.00000E+000	5.73902E-005	5.99601E-002	5.68128E-001	3.57640E+000	9	...........
	18	0.253333	5.82447E-001	1.01568E-004	0.00000E+000	5.91579E-005	5.99601E-002	5.82702E-001	3.57640E+000	9	...........
	19	0.266667	5.96709E-001	1.01591E-004	0.00000E+000	6.06202E-005	5.99601E-002	5.96972E-001	3.57640E+000	9	...........
	20	0.28	6.10618E-001	1.01935E-004	0.00000E+000	6.22432E-005	5.99601E-002	6.10891E-001	3.57640E+000	9	...........
	21	0.293333	6.24260E-001	1.00968E-004	0.00000E+000	6.30301E-005	5.99601E-002	6.24492E-001	3.57640E+000	9	...........
	22	0.306667	6.37491E-001	1.00700E-004	0.00000E+000	6.41954E-005	5.99601E-002	6.37746E-001	3.57640E+000	9	...........
	23	0.32	6.50418E-001	1.01723E-004	0.00000E+000	6.61626E-005	5.99601E-002	6.50697E-001	3.57640E+000	9	...........
	24	0.333333	6.63040E-001	1.01833E-004	0.00000E+000	6.75191E-005	5.99601E-002	6.63280E-001	3.57640E+000	9	...........
	25	0.346667	6.75335E-001	1.01922E-004	0.00000E+000	6.88316E-005	5.99601E-002	6.75588E-001	3.57640E+000	9	...........
	26	0.36	6.87289E-001	1.00298E-004	0.00000E+000	6.89337E-005	5.99601E-002	6.87539E-001	3.57640E+000	9	...........
	27	0.373333	6.98977E-001	1.00948E-004	0.00000E+000	7.05604E-005	5.99601E-002	6.99215E-001	3.57640E+000	9	...........
	28	0.386667	7.10303E-001	1.00164E-004	0.00000E+000	7.11464E-005	5.99601E-002	7.10559E-001	3.57640E+000	9	...........
	29	0.4	7.21377E-001	1.00107E-004	0.00000E+000	7.22150E-005	5.99601E-002	7.21626E-001	3.57640E+000	9	...........
	30	0.413333	7.32126E-001	1.01154E-004	0.00000E+000	7.40577E-005	5.99601E-002	7.32385E-001	3.57640E+000	9	...........
	31	0.426667	7.42581E-001	1.02577E-004	0.00000E+000	7.61714E-005	5.99601E-002	7.42849E-001	3.57640E+000	9	...........
	32	0.44	7.52745E-001	1.00025E-004	0.00000E+000	7.52932E-005	5.99601E-002	7.53017E-001	3.57640E+000	9	...........
	33	0.453333	7.62602E-001	1.00574E-004	0.00000E+000	7.66979E-005	5.99601E-002	7.62889E-001	3.57640E+000	9	...........
	34	0.466667	7.72221E-001	1.01400E-004	0.00000E+000	7.83033E-005	5.99601E-002	7.72469E-001	3.57640E+000	9	...........
	35	0.48	7.81537E-001	1.01249E-004	0.00000E+000	7.91299E-005	5.99601E-002	7.81775E-001	3.57640E+000	9	...........
	36	0.493333	7.90570E-001	1.02359E-004	0.00000E+000	8.09217E-005	5.99601E-002	7.90832E-001	3.57640E+000	9	...........
	37	0.506667	7.99352E-001	1.00877E-004	0.00000E+000	8.06364E-005	5.99601E-002	7.99589E-001	3.57640E+000	9	...........
	38	0.52	8.07812E-001	1.00949E-004	0.00000E+000	8.15479E-005	5.99601E-002	8.08077E-001	3.57640E+000	9	...........
	39	0.533333	8.16038E-001	1.01647E-004	0.00000E+000	8.29479E-005	5.99601E-002	8.16323E-001	3.57640E+000	9	...........
	40	0.546667	8.24006E-001	1.01490E-004	0.00000E+000	8.36282E-005	5.99601E-002	8.24323E-001	3.57640E+000	9	...........
	41	0.56	8.31735E-001	1.01061E-004	0.00000E+000	8.40556E-005	5.99601E-002	8.32035E-001	3.57640E+000	9	...........
	42	0.573333	8.39187E-001	1.01271E-004	0.00000E+000	8.49853E-005	5.99601E-002	8.39518E-001	3.57640E+000	9	...........
	43	0.586667	8.46477E-001	1.01674E-004	0.00000E+000	8.60649E-005	5.99601E-002	8.46814E-001	3.57640E+000	9	...........
	44	0.6	8.53493E-001	1.00790E-004	0.00000E+000	8.60233E-005	5.99601E-002	8.53807E-001	3.57640E+000	9	...........
	45	0.613333	8.60304E-001	1.01524E-004	0.00000E+000	8.73417E-005	5.99601E-002	8.60632E-001	3.57640E+000	9	...........
	46	0.626667	8.66901E-001	1.00778E-004	0.00000E+000	8.73647E-005	5.99601E-002	8.67233E-001	3.57640E+000	9	...........
	47	0.64	8.73332E-001	9.99343E-005	0.00000E+000	8.72758E-005	5.99601E-002	8.73643E-001	3.57640E+000	9	...........
	48	0.653333	8.79540E-001	1.01278E-004	0.00000E+000	8.90784E-005	5.99601E-002	8.79854E-001	3.57640E+000	9	...........
	49	0.666667	8.85641E-001	1.00918E-004	0.00000E+000	8.93770E-005	5.99601E-002	8.85906E-001	3.57640E+000	9	...........
	50	0.68	8.91510E-001	1.00713E-004	0.00000E+000	8.97862E-005	5.99601E-002	8.91796E-001	3.57640E+000	9	...........
	51	0.693333	8.97269E-001	1.01815E-004	0.00000E+000	9.13554E-005	5.99601E-002	8.97552E-001	3.57759E+000	9	...........
	52	0.706667	9.02851E-001	1.01366E-004	0.00000E+000	9.15183E-005	5.99601E-002	9.03129E-001	3.57780E+000	9	...........
	53	0.72	9.08337E-001	1.01049E-004	0.00000E+000	9.17866E-005	5.99601E-002	9.08613E-001	3.57780E+000	9	...........
	54	0.733333	9.13702E-001	1.01708E-004	0.00000E+000	9.29304E-005	5.99601E-002	9.13980E-001	3.57780E+000	9	...........
	55	0.746667	9.18944E-001	1.00151E-004	0.00000E+000	9.20331E-005	5.99601E-002	9.19243E-001	3.57780E+000	9	...........
	56	0.76	9.24176E-001	1.00010E-004	0.00000E+000	9.24271E-005	5.99601E-002	9.24427E-001	3.57780E+000	9	...........
	57	0.773333	9.29219E-001	1.01808E-004	0.00000E+000	9.46015E-005	5.99601E-002	9.29488E-001	3.57780E+000	9	...........
	58	0.786667	9.34202E-001	1.00643E-004	0.00000E+000	9.40207E-005	5.99601E-002	9.34468E-001	3.57780E+000	9	...........
	59	0.8	9.39079E-001	1.01714E-004	0.00000E+000	9.55173E-005	5.99601E-002	9.39370E-001	3.57780E+000	9	...........
	60	0.813333	9.43887E-001	1.00152E-004	0.00000E+000	9.45322E-005	5.99601E-002	9.44181E-001	3.57780E+000	9	...........
	61	0.826667	9.48665E-001	1.01144E-004	0.00000E+000	9.59516E-005	5.99601E-002	9.48963E-001	3.57780E+000	9	...........
	62	0.84	9.53324E-001	1.01394E-004	0.00000E+000	9.66613E-005	5.99601E-002	9.53628E-001	3.57780E+000	9	...........
	63	0.853333	9.57914E-001	1.01221E-004	0.00000E+000	9.69610E-005	5.99601E-002	9.58229E-001	3.57780E+000	9	...........
	64	0.866667	9.62422E-001	1.00311E-004	0.00000E+000	9.65420E-005	5.99601E-002	9.62735E-001	3.57780E+000	9	...........
	65	0.88	9.66863E-001	1.01361E-004	0.00000E+000	9.80018E-005	5.99601E-002	9.67175E-001	3.57780E+000	9	...........
	66	0.893333	9.71227E-001	1.01024E-004	0.00000E+000	9.81173E-005	5.99601E-002	9.71569E-001	3.57780E+000	9	...........
	67	0.906667	9.75548E-001	1.00319E-004	0.00000E+000	9.78658E-005	5.99601E-002	9.75884E-001	3.57780E+000	9	...........
	68	0.92	9.79756E-001	1.01774E-004	0.00000E+000	9.97139E-005	5.99601E-002	9.80063E-001	3.57780E+000	9	...........
	69	0.933333	9.83883E-001	1.01106E-004	0.00000E+000	9.94768E-005	5.99601E-002	9.84219E-001	3.57780E+000	9	...........
	70	0.946667	9.87928E-001	1.01112E-004	0.00000E+000	9.98910E-005	5.99601E-002	9.88280E-001	3.57780E+000	9	...........
	71	0.96	9.91881E-001	1.01272E-004	0.00000E+000	1.00450E-004	5.99601E-002	9.92221E-001	3.57780E+000	9	...........
	72	0.97333	9.95752E-001	1.00664E-004	0.00000E+000	1.00236E-004	5.99601E-002	9.96104E-001	3.57780E+000	9	...........
	73	0.98333	9.99119E-001	1.00986E-004	0.00000E+000	1.00897E-004	5.99601E-002	9.99432E-001	3.57780E+000	9	...........
STARTTIMEOFFSET	QUANT	1836.497	Start Time Offset (s)
