EXPLAIN
TAG	PWR800_CHARGE
TITLE	LABEL	PWR Cyclic Charge Discharge (Cell) - Charge Step	Test &Identifier
DATE	LABEL	12-7-2017	Date
TIME	LABEL	16:27:33	Time
NOTES	NOTES	2	&Notes...
	supercap test cell
	6M KOH
PSTAT	PSTAT	IFC5000-01520	Potentiostat
CAPACITY	QUANT	1.00000E-003	Capacity (A-hr)
CELLTYPE	SELECTOR	1	&Cell Type
WORKINGCONNECTION	SELECTOR	0	&Working Lead
MAXCHARGETIME	VARIABLEANDUNITS	1.00000E+002	s	1.00000E+002	second(s)	Max &Charge Time
CHARGECURRENT	QUANT	1.00000E-004	&Charge Current (A) 
VOLTAGEFINISH	TWOPARAM	F	1.00000E-003	3.60000E+003	&Voltage Finish	 I (A) < 	Max Time(s)
SAMPLETIME	QUANT	1.00000E-002	Sa&mple Period (s)
CHARGESTOPAT1	MULTIPARAM	4	1.00000E+000	Charge Stop At &1	Voltage > Limit	V
CHARGESTOPAT2	MULTIPARAM	0	0.00000E+000	Charge Stop At &2	None	N/A
AESBHCSELECTOR	TOGGLE	F	Save Both Half Cells
IRCOMP	TOGGLE	F	IR &Measure
EOC	QUANT	0	Open Circuit (V)
SEQUENCER	TOGGLE	TRUE	Run as Sequence
PSTATMODEL	IQUANT	53	Pstat Model
PSTATSECTION	LABEL	IFC5000-01520	Pstat Section
PSTATSERIALNO	LABEL	01520	Pstat Serial Number
CTRLMODE	IQUANT	0	Control Mode
ELECTROMETER	IQUANT	1	RE=0 or CS=1
IESTAB	IQUANT	0	I/E Stability
CASPEED	IQUANT	4	Control Amp Speed
CONVENTION	IQUANT	1	Current Convention
ICHRANGE	IQUANT	2	Ich Range
ICHRANGEMODE	TOGGLE	T	Ich Auto Range
ICHOFFSETENABLE	TOGGLE	F	Ich Offset Enable
ICHOFFSET	QUANT	0	Ich Offset (V)
ICHFILTER	IQUANT	1	Ich Filter
VCHRANGE	IQUANT	2	Vch Range
VCHRANGEMODE	TOGGLE	T	Vch Auto Range
VCHOFFSETENABLE	TOGGLE	F	Vch Offset Enable
VCHOFFSET	QUANT	0	Vch Offset (V)
VCHFILTER	IQUANT	1	Vch Filter
IERANGELOWERLIMIT	IQUANT	9	I/E Range Lower Limit
IERANGEMODE	TOGGLE	F	I/E AutoRange
IERANGE	IQUANT	9	I/E Range
ACHSELECT	IQUANT	1	Ach Select
ACHRANGE	IQUANT	2	Ach Range
ACHOFFSETENABLE	TOGGLE	F	Ach Offset Enable
ACHOFFSET	QUANT	0	Ach Offset (V)
ACHFILTER	IQUANT	1	Ach Filter
CABLEID	IQUANT	14	Cable ID
DCCALDATE	LABEL	5-7-2017	DC Calibration Date
ACCALDATE	LABEL	12/3/2015	AC Calibration Date
FRAMEWORKVERSION	QUANT	7.01	Framework Version
INSTRUMENTVERSION	LABEL	4.00	Instrument Version
CURVE	TABLE	77
	Pt	T	Vf	Im	Vu	Pwr	Sig	Ach	Temp	IERange	Over
	#	s	V	A	V	W	V	V	deg C	#	bits
	0	0.013333	2.59945E-001	1.00467E-004	0.00000E+000	2.61158E-005	5.99601E-002	2.60031E-001	3.57820E+000	9	...........
	1	0.026667	2.82784E-001	1.00981E-004	0.00000E+000	2.85559E-005	5.99601E-002	2.82852E-001	3.57820E+000	9	...........
	2	0.04	3.04253E-001	1.00258E-004	0.00000E+000	3.05039E-005	5.99601E-002	3.04320E-001	3.57820E+000	9	...........
	3	0.053333	3.24727E-001	1.00987E-004	0.00000E+000	3.27931E-005	5.99601E-002	3.24792E-001	3.57820E+000	9	...........
	4	0.066667	3.44402E-001	1.00940E-004	0.00000E+000	3.47638E-005	5.99601E-002	3.44480E-001	3.57820E+000	9	...........
	5	0.08	3.63433E-001	1.00508E-004	0.00000E+000	3.65281E-005	5.99601E-002	3.63506E-001	3.57820E+000	9	...........
	6	0.093333	3.81888E-001	1.00679E-004	0.00000E+000	3.84482E-005	5.99601E-002	3.81969E-001	3.57820E+000	9	...........
	7	0.106667	3.99843E-001	9.94488E-005	0.00000E+000	3.97639E-005	5.99601E-002	3.99931E-001	3.57820E+000	9	...........
	8	0.12	4.17341E-001	9.97770E-005	0.00000E+000	4.16411E-005	5.99601E-002	4.17430E-001	3.57820E+000	9	...........
	9	0.133333	4.34415E-001	1.02813E-004	0.00000E+000	4.46635E-005	5.99601E-002	4.34510E-001	3.57820E+000	9	...........
	10	0.146667	4.51096E-001	1.01216E-004	0.00000E+000	4.56580E-005	5.99601E-002	4.51192E-001	3.57820E+000	9	...........
	11	0.16	4.67400E-001	1.01211E-004	0.00000E+000	4.73059E-005	5.99601E-002	4.67501E-001	3.57820E+000	9	...........
	12	0.173333	4.83347E-001	1.00199E-004	0.00000E+000	4.84308E-005	5.99601E-002	4.83447E-001	3.57820E+000	9	...........
	13	0.186667	4.98945E-001	1.00109E-004	0.00000E+000	4.99491E-005	5.99601E-002	4.99051E-001	3.57820E+000	9	...........
	14	0.2	5.14216E-001	1.01608E-004	0.00000E+000	5.22482E-005	5.99601E-002	5.14334E-001	3.57820E+000	9	...........
	15	0.213333	5.29134E-001	1.01415E-004	0.00000E+000	5.36621E-005	5.99601E-002	5.29261E-001	3.57820E+000	9	...........
	16	0.226667	5.43522E-001	1.01605E-004	0.00000E+000	5.52248E-005	5.99601E-002	5.43759E-001	3.57820E+000	9	...........
	17	0.24	5.57864E-001	1.00704E-004	0.00000E+000	5.61793E-005	5.99601E-002	5.58107E-001	3.57820E+000	9	...........
	18	0.253333	5.71929E-001	1.01773E-004	0.00000E+000	5.82071E-005	5.99601E-002	5.72186E-001	3.57820E+000	9	...........
	19	0.266667	5.85680E-001	1.00137E-004	0.00000E+000	5.86485E-005	5.99601E-002	5.85950E-001	3.57820E+000	9	...........
	20	0.28	5.99138E-001	1.00109E-004	0.00000E+000	5.99793E-005	5.99601E-002	5.99413E-001	3.57820E+000	9	...........
	21	0.293333	6.12335E-001	1.00752E-004	0.00000E+000	6.16941E-005	5.99601E-002	6.12618E-001	3.57820E+000	9	...........
	22	0.306667	6.25274E-001	1.01091E-004	0.00000E+000	6.32094E-005	5.99601E-002	6.25523E-001	3.57820E+000	9	...........
	23	0.32	6.37888E-001	1.00422E-004	0.00000E+000	6.40580E-005	5.99601E-002	6.38148E-001	3.57820E+000	9	...........
	24	0.333333	6.50288E-001	1.00122E-004	0.00000E+000	6.51080E-005	5.99601E-002	6.50544E-001	3.57820E+000	9	...........
	25	0.346667	6.62359E-001	1.00709E-004	0.00000E+000	6.67058E-005	5.99601E-002	6.62630E-001	3.57820E+000	9	...........
	26	0.36	6.74198E-001	1.02057E-004	0.00000E+000	6.88064E-005	5.99601E-002	6.74479E-001	3.57820E+000	9	...........
	27	0.373333	6.85745E-001	1.02186E-004	0.00000E+000	7.00734E-005	5.99601E-002	6.86013E-001	3.57820E+000	9	...........
	28	0.386667	6.97055E-001	1.01671E-004	0.00000E+000	7.08704E-005	5.99601E-002	6.97310E-001	3.57820E+000	9	...........
	29	0.4	7.08067E-001	1.01144E-004	0.00000E+000	7.16167E-005	5.99601E-002	7.08323E-001	3.57820E+000	9	...........
	30	0.413333	7.18855E-001	1.00536E-004	0.00000E+000	7.22711E-005	5.99601E-002	7.19113E-001	3.57820E+000	9	...........
	31	0.426667	7.29372E-001	1.00881E-004	0.00000E+000	7.35801E-005	5.99601E-002	7.29636E-001	3.57820E+000	9	...........
	32	0.44	7.39617E-001	1.01073E-004	0.00000E+000	7.47554E-005	5.99601E-002	7.39913E-001	3.57820E+000	9	...........
	33	0.453333	7.49626E-001	1.02167E-004	0.00000E+000	7.65871E-005	5.99601E-002	7.49904E-001	3.57820E+000	9	...........
	34	0.466667	7.59397E-001	1.01193E-004	0.00000E+000	7.68456E-005	5.99601E-002	7.59669E-001	3.57820E+000	9	...........
	35	0.48	7.68888E-001	1.01491E-004	0.00000E+000	7.80351E-005	5.99601E-002	7.69174E-001	3.57806E+000	9	...........
	36	0.493333	7.78140E-001	1.00559E-004	0.00000E+000	7.82493E-005	5.99601E-002	7.78432E-001	3.57710E+000	9	...........
	37	0.506667	7.87172E-001	1.02026E-004	0.00000E+000	8.03124E-005	5.99601E-002	7.87429E-001	3.57710E+000	9	...........
	38	0.52	7.95952E-001	1.01833E-004	0.00000E+000	8.10538E-005	5.99601E-002	7.96236E-001	3.57710E+000	9	...........
	39	0.533333	8.04471E-001	1.00842E-004	0.00000E+000	8.11243E-005	5.99601E-002	8.04765E-001	3.57710E+000	9	...........
	40	0.546667	8.12764E-001	1.00027E-004	0.00000E+000	8.12984E-005	5.99601E-002	8.13043E-001	3.57710E+000	9	...........
	41	0.56	8.20845E-001	9.95373E-005	0.00000E+000	8.17047E-005	5.99601E-002	8.21137E-001	3.57710E+000	9	...........
	42	0.573333	8.28656E-001	1.01319E-004	0.00000E+000	8.39586E-005	5.99601E-002	8.28953E-001	3.57710E+000	9	...........
	43	0.586667	8.36221E-001	1.01945E-004	0.00000E+000	8.52486E-005	5.99601E-002	8.36540E-001	3.57710E+000	9	...........
	44	0.6	8.43612E-001	1.01983E-004	0.00000E+000	8.60338E-005	5.99601E-002	8.43916E-001	3.57710E+000	9	...........
	45	0.613333	8.50751E-001	1.01292E-004	0.00000E+000	8.61741E-005	5.99601E-002	8.51063E-001	3.57710E+000	9	...........
	46	0.626667	8.57650E-001	1.00729E-004	0.00000E+000	8.63904E-005	5.99601E-002	8.58006E-001	3.57710E+000	9	...........
	47	0.64	8.64357E-001	1.00902E-004	0.00000E+000	8.72155E-005	5.99601E-002	8.64707E-001	3.57710E+000	9	...........
	48	0.653333	8.70901E-001	1.02347E-004	0.00000E+000	8.91343E-005	5.99601E-002	8.71241E-001	3.57710E+000	9	...........
	49	0.666667	8.77194E-001	1.02381E-004	0.00000E+000	8.98077E-005	5.99601E-002	8.77523E-001	3.57710E+000	9	...........
	50	0.68	8.83317E-001	1.01793E-004	0.00000E+000	8.99155E-005	5.99601E-002	8.83629E-001	3.57710E+000	9	...........
	51	0.693333	8.89239E-001	1.00495E-004	0.00000E+000	8.93639E-005	5.99601E-002	8.89569E-001	3.57710E+000	9	...........
	52	0.706667	8.95003E-001	9.98770E-005	0.00000E+000	8.93902E-005	5.99601E-002	8.95343E-001	3.57710E+000	9	...........
	53	0.72	9.00584E-001	1.00842E-004	0.00000E+000	9.08165E-005	5.99601E-002	9.00935E-001	3.57710E+000	9	...........
	54	0.733333	9.06045E-001	1.00569E-004	0.00000E+000	9.11199E-005	5.99601E-002	9.06375E-001	3.57710E+000	9	...........
	55	0.746667	9.11351E-001	1.00372E-004	0.00000E+000	9.14740E-005	5.99601E-002	9.11690E-001	3.57710E+000	9	...........
	56	0.76	9.16529E-001	1.00405E-004	0.00000E+000	9.20243E-005	5.99601E-002	9.16879E-001	3.57710E+000	9	...........
	57	0.773333	9.21633E-001	1.00665E-004	0.00000E+000	9.27759E-005	5.99601E-002	9.21920E-001	3.57710E+000	9	...........
	58	0.786667	9.26565E-001	1.01230E-004	0.00000E+000	9.37966E-005	5.99601E-002	9.26873E-001	3.57710E+000	9	...........
	59	0.8	9.31394E-001	1.00221E-004	0.00000E+000	9.33451E-005	5.99601E-002	9.31697E-001	3.57710E+000	9	...........
	60	0.813333	9.36117E-001	1.00674E-004	0.00000E+000	9.42427E-005	5.99601E-002	9.36437E-001	3.57710E+000	9	...........
	61	0.826667	9.40753E-001	1.00839E-004	0.00000E+000	9.48642E-005	5.99601E-002	9.41083E-001	3.57710E+000	9	...........
	62	0.84	9.45293E-001	1.01429E-004	0.00000E+000	9.58805E-005	5.99601E-002	9.45633E-001	3.57710E+000	9	...........
	63	0.853333	9.49776E-001	1.01180E-004	0.00000E+000	9.60987E-005	5.99601E-002	9.50118E-001	3.57710E+000	9	...........
	64	0.866667	9.54143E-001	1.00320E-004	0.00000E+000	9.57194E-005	5.99601E-002	9.54485E-001	3.57710E+000	9	...........
	65	0.88	9.58439E-001	1.00273E-004	0.00000E+000	9.61055E-005	5.99601E-002	9.58816E-001	3.57710E+000	9	...........
	66	0.893333	9.62655E-001	1.00539E-004	0.00000E+000	9.67839E-005	5.99601E-002	9.63050E-001	3.57710E+000	9	...........
	67	0.906667	9.66814E-001	1.00754E-004	0.00000E+000	9.74106E-005	5.99601E-002	9.67161E-001	3.57710E+000	9	...........
	68	0.92	9.70875E-001	1.00397E-004	0.00000E+000	9.74729E-005	5.99601E-002	9.71250E-001	3.57710E+000	9	...........
	69	0.933333	9.74922E-001	1.00959E-004	0.00000E+000	9.84276E-005	5.99601E-002	9.75281E-001	3.57710E+000	9	...........
	70	0.946667	9.78821E-001	1.01100E-004	0.00000E+000	9.89589E-005	5.99601E-002	9.79190E-001	3.57710E+000	9	...........
	71	0.96	9.82643E-001	1.01787E-004	0.00000E+000	1.00020E-004	5.99601E-002	9.83001E-001	3.57710E+000	9	...........
	72	0.97333	9.86383E-001	9.96030E-005	0.00000E+000	9.82467E-005	5.99601E-002	9.86770E-001	3.57710E+000	9	...........
	73	0.98667	9.90100E-001	1.01412E-004	0.00000E+000	1.00408E-004	5.99601E-002	9.90454E-001	3.57710E+000	9	...........
	74	1	9.93671E-001	1.02786E-004	0.00000E+000	1.02135E-004	5.99601E-002	9.94035E-001	3.57710E+000	9	...........
	75	1.01333	9.97200E-001	1.01865E-004	0.00000E+000	1.01580E-004	5.99601E-002	9.97557E-001	3.57710E+000	9	...........
	76	1.02	9.99779E-001	1.01709E-004	0.00000E+000	1.01686E-004	5.99601E-002	1.00016E+000	3.57710E+000	9	...........
STARTTIMEOFFSET	QUANT	748.2166	Start Time Offset (s)
