EXPLAIN
TAG	PWR800_CHARGE
TITLE	LABEL	PWR Cyclic Charge Discharge (Cell) - Charge Step	Test &Identifier
DATE	LABEL	12-7-2017	Date
TIME	LABEL	16:20:27	Time
NOTES	NOTES	2	&Notes...
	supercap test cell
	6M KOH
PSTAT	PSTAT	IFC5000-01520	Potentiostat
CAPACITY	QUANT	1.00000E-003	Capacity (A-hr)
CELLTYPE	SELECTOR	1	&Cell Type
WORKINGCONNECTION	SELECTOR	0	&Working Lead
MAXCHARGETIME	VARIABLEANDUNITS	1.00000E+002	s	1.00000E+002	second(s)	Max &Charge Time
CHARGECURRENT	QUANT	1.00000E-004	&Charge Current (A) 
VOLTAGEFINISH	TWOPARAM	F	1.00000E-003	3.60000E+003	&Voltage Finish	 I (A) < 	Max Time(s)
SAMPLETIME	QUANT	1.00000E-002	Sa&mple Period (s)
CHARGESTOPAT1	MULTIPARAM	4	1.00000E+000	Charge Stop At &1	Voltage > Limit	V
CHARGESTOPAT2	MULTIPARAM	0	0.00000E+000	Charge Stop At &2	None	N/A
AESBHCSELECTOR	TOGGLE	F	Save Both Half Cells
IRCOMP	TOGGLE	F	IR &Measure
EOC	QUANT	0	Open Circuit (V)
SEQUENCER	TOGGLE	TRUE	Run as Sequence
PSTATMODEL	IQUANT	53	Pstat Model
PSTATSECTION	LABEL	IFC5000-01520	Pstat Section
PSTATSERIALNO	LABEL	01520	Pstat Serial Number
CTRLMODE	IQUANT	0	Control Mode
ELECTROMETER	IQUANT	1	RE=0 or CS=1
IESTAB	IQUANT	0	I/E Stability
CASPEED	IQUANT	4	Control Amp Speed
CONVENTION	IQUANT	1	Current Convention
ICHRANGE	IQUANT	2	Ich Range
ICHRANGEMODE	TOGGLE	T	Ich Auto Range
ICHOFFSETENABLE	TOGGLE	F	Ich Offset Enable
ICHOFFSET	QUANT	0	Ich Offset (V)
ICHFILTER	IQUANT	1	Ich Filter
VCHRANGE	IQUANT	2	Vch Range
VCHRANGEMODE	TOGGLE	T	Vch Auto Range
VCHOFFSETENABLE	TOGGLE	F	Vch Offset Enable
VCHOFFSET	QUANT	0	Vch Offset (V)
VCHFILTER	IQUANT	1	Vch Filter
IERANGELOWERLIMIT	IQUANT	9	I/E Range Lower Limit
IERANGEMODE	TOGGLE	F	I/E AutoRange
IERANGE	IQUANT	9	I/E Range
ACHSELECT	IQUANT	1	Ach Select
ACHRANGE	IQUANT	2	Ach Range
ACHOFFSETENABLE	TOGGLE	F	Ach Offset Enable
ACHOFFSET	QUANT	0	Ach Offset (V)
ACHFILTER	IQUANT	1	Ach Filter
CABLEID	IQUANT	14	Cable ID
DCCALDATE	LABEL	5-7-2017	DC Calibration Date
ACCALDATE	LABEL	12/3/2015	AC Calibration Date
FRAMEWORKVERSION	QUANT	7.01	Framework Version
INSTRUMENTVERSION	LABEL	4.00	Instrument Version
CURVE	TABLE	78
	Pt	T	Vf	Im	Vu	Pwr	Sig	Ach	Temp	IERange	Over
	#	s	V	A	V	W	V	V	deg C	#	bits
	0	0.013333	2.61077E-001	1.00598E-004	0.00000E+000	2.62638E-005	5.99601E-002	2.61158E-001	3.57700E+000	9	...........
	1	0.026667	2.83837E-001	1.01225E-004	0.00000E+000	2.87315E-005	5.99601E-002	2.83901E-001	3.57700E+000	9	...........
	2	0.04	3.05114E-001	1.00500E-004	0.00000E+000	3.06640E-005	5.99601E-002	3.05177E-001	3.57700E+000	9	...........
	3	0.053333	3.25290E-001	1.00963E-004	0.00000E+000	3.28421E-005	5.99601E-002	3.25360E-001	3.57700E+000	9	...........
	4	0.066667	3.44599E-001	1.01262E-004	0.00000E+000	3.48947E-005	5.99601E-002	3.44669E-001	3.57700E+000	9	...........
	5	0.08	3.63175E-001	1.01543E-004	0.00000E+000	3.68779E-005	5.99601E-002	3.63254E-001	3.57700E+000	9	...........
	6	0.093333	3.81145E-001	1.00847E-004	0.00000E+000	3.84373E-005	5.99601E-002	3.81222E-001	3.57700E+000	9	...........
	7	0.106667	3.98578E-001	1.01047E-004	0.00000E+000	4.02751E-005	5.99601E-002	3.98660E-001	3.57700E+000	9	...........
	8	0.12	4.15519E-001	1.00919E-004	0.00000E+000	4.19337E-005	5.99601E-002	4.15607E-001	3.57700E+000	9	...........
	9	0.133333	4.32026E-001	1.00481E-004	0.00000E+000	4.34105E-005	5.99601E-002	4.32119E-001	3.57700E+000	9	...........
	10	0.146667	4.48133E-001	1.01476E-004	0.00000E+000	4.54749E-005	5.99601E-002	4.48229E-001	3.57700E+000	9	...........
	11	0.16	4.63866E-001	1.00750E-004	0.00000E+000	4.67346E-005	5.99601E-002	4.63966E-001	3.57700E+000	9	...........
	12	0.173333	4.79246E-001	1.00749E-004	0.00000E+000	4.82836E-005	5.99601E-002	4.79347E-001	3.57700E+000	9	...........
	13	0.186667	4.94293E-001	1.01450E-004	0.00000E+000	5.01462E-005	5.99601E-002	4.94400E-001	3.57700E+000	9	...........
	14	0.2	5.09019E-001	1.00679E-004	0.00000E+000	5.12476E-005	5.99601E-002	5.09128E-001	3.57700E+000	9	...........
	15	0.213333	5.23448E-001	1.00531E-004	0.00000E+000	5.26229E-005	5.99601E-002	5.23563E-001	3.57700E+000	9	...........
	16	0.226667	5.37356E-001	1.01860E-004	0.00000E+000	5.47349E-005	5.99601E-002	5.37534E-001	3.57700E+000	9	...........
	17	0.24	5.51151E-001	1.01951E-004	0.00000E+000	5.61906E-005	5.99601E-002	5.51340E-001	3.57700E+000	9	...........
	18	0.253333	5.64746E-001	1.01477E-004	0.00000E+000	5.73089E-005	5.99601E-002	5.64946E-001	3.57700E+000	9	...........
	19	0.266667	5.78094E-001	1.02194E-004	0.00000E+000	5.90778E-005	5.99601E-002	5.78305E-001	3.57700E+000	9	...........
	20	0.28	5.91170E-001	1.01178E-004	0.00000E+000	5.98136E-005	5.99601E-002	5.91381E-001	3.57700E+000	9	...........
	21	0.293333	6.04007E-001	1.00764E-004	0.00000E+000	6.08620E-005	5.99601E-002	6.04243E-001	3.57700E+000	9	...........
	22	0.306667	6.16639E-001	1.01146E-004	0.00000E+000	6.23706E-005	5.99601E-002	6.16843E-001	3.57700E+000	9	...........
	23	0.32	6.28968E-001	1.01491E-004	0.00000E+000	6.38345E-005	5.99601E-002	6.29199E-001	3.57700E+000	9	...........
	24	0.333333	6.41091E-001	1.01401E-004	0.00000E+000	6.50074E-005	5.99601E-002	6.41332E-001	3.57700E+000	9	...........
	25	0.346667	6.52977E-001	1.01465E-004	0.00000E+000	6.62541E-005	5.99601E-002	6.53222E-001	3.57700E+000	9	...........
	26	0.36	6.64627E-001	1.01996E-004	0.00000E+000	6.77894E-005	5.99601E-002	6.64878E-001	3.57700E+000	9	...........
	27	0.373333	6.76058E-001	1.02266E-004	0.00000E+000	6.91377E-005	5.99601E-002	6.76314E-001	3.57700E+000	9	...........
	28	0.386667	6.87219E-001	1.01344E-004	0.00000E+000	6.96455E-005	5.99601E-002	6.87504E-001	3.57700E+000	9	...........
	29	0.4	6.98188E-001	1.00455E-004	0.00000E+000	7.01367E-005	5.99601E-002	6.98442E-001	3.57700E+000	9	...........
	30	0.413333	7.08893E-001	1.01033E-004	0.00000E+000	7.16220E-005	5.99601E-002	7.09174E-001	3.57700E+000	9	...........
	31	0.426667	7.19427E-001	9.99478E-005	0.00000E+000	7.19052E-005	5.99601E-002	7.19701E-001	3.57700E+000	9	...........
	32	0.44	7.29682E-001	1.02096E-004	0.00000E+000	7.44978E-005	5.99601E-002	7.29991E-001	3.57700E+000	9	...........
	33	0.453333	7.39729E-001	1.01123E-004	0.00000E+000	7.48036E-005	5.99601E-002	7.40028E-001	3.57700E+000	9	...........
	34	0.466667	7.49560E-001	1.00966E-004	0.00000E+000	7.56799E-005	5.99601E-002	7.49857E-001	3.57700E+000	9	...........
	35	0.48	7.59172E-001	1.01120E-004	0.00000E+000	7.67674E-005	5.99601E-002	7.59479E-001	3.57700E+000	9	...........
	36	0.493333	7.68543E-001	9.96051E-005	0.00000E+000	7.65508E-005	5.99601E-002	7.68855E-001	3.57700E+000	9	...........
	37	0.506667	7.77705E-001	1.02252E-004	0.00000E+000	7.95223E-005	5.99601E-002	7.78007E-001	3.57700E+000	9	...........
	38	0.52	7.86632E-001	1.00285E-004	0.00000E+000	7.88877E-005	5.99601E-002	7.86926E-001	3.57700E+000	9	...........
	39	0.533333	7.95359E-001	1.01693E-004	0.00000E+000	8.08824E-005	5.99601E-002	7.95654E-001	3.57700E+000	9	...........
	40	0.546667	8.03866E-001	1.00339E-004	0.00000E+000	8.06587E-005	5.99601E-002	8.04155E-001	3.57700E+000	9	...........
	41	0.56	8.12113E-001	1.00877E-004	0.00000E+000	8.19237E-005	5.99601E-002	8.12401E-001	3.57700E+000	9	...........
	42	0.573333	8.20183E-001	1.01486E-004	0.00000E+000	8.32368E-005	5.99601E-002	8.20461E-001	3.57700E+000	9	...........
	43	0.586667	8.28021E-001	9.99280E-005	0.00000E+000	8.27425E-005	5.99601E-002	8.28308E-001	3.57700E+000	9	...........
	44	0.6	8.35630E-001	1.00166E-004	0.00000E+000	8.37014E-005	5.99601E-002	8.35958E-001	3.57700E+000	9	...........
	45	0.613333	8.43074E-001	1.01169E-004	0.00000E+000	8.52929E-005	5.99601E-002	8.43371E-001	3.57700E+000	9	...........
	46	0.626667	8.50302E-001	1.00970E-004	0.00000E+000	8.58549E-005	5.99601E-002	8.50617E-001	3.57700E+000	9	...........
	47	0.64	8.57301E-001	1.01473E-004	0.00000E+000	8.69930E-005	5.99601E-002	8.57611E-001	3.57700E+000	9	...........
	48	0.653333	8.64080E-001	1.00235E-004	0.00000E+000	8.66113E-005	5.99601E-002	8.64431E-001	3.57857E+000	9	...........
	49	0.666667	8.70739E-001	1.01484E-004	0.00000E+000	8.83657E-005	5.99601E-002	8.71051E-001	3.57910E+000	9	...........
	50	0.68	8.77119E-001	1.01137E-004	0.00000E+000	8.87089E-005	5.99601E-002	8.77469E-001	3.57910E+000	9	...........
	51	0.693333	8.83338E-001	1.01684E-004	0.00000E+000	8.98210E-005	5.99601E-002	8.83676E-001	3.57910E+000	9	...........
	52	0.706667	8.89389E-001	1.01639E-004	0.00000E+000	9.03964E-005	5.99601E-002	8.89723E-001	3.57910E+000	9	...........
	53	0.72	8.95236E-001	1.00467E-004	0.00000E+000	8.99414E-005	5.99601E-002	8.95575E-001	3.57910E+000	9	...........
	54	0.733333	9.00914E-001	1.00013E-004	0.00000E+000	9.01036E-005	5.99601E-002	9.01255E-001	3.57910E+000	9	...........
	55	0.746667	9.06445E-001	1.01410E-004	0.00000E+000	9.19222E-005	5.99601E-002	9.06783E-001	3.57910E+000	9	...........
	56	0.76	9.11806E-001	1.01112E-004	0.00000E+000	9.21942E-005	5.99601E-002	9.12155E-001	3.57910E+000	9	...........
	57	0.773333	9.17015E-001	1.00386E-004	0.00000E+000	9.20559E-005	5.99601E-002	9.17367E-001	3.57910E+000	9	...........
	58	0.786667	9.22149E-001	1.01560E-004	0.00000E+000	9.36531E-005	5.99601E-002	9.22440E-001	3.57910E+000	9	...........
	59	0.8	9.27080E-001	1.01863E-004	0.00000E+000	9.44350E-005	5.99601E-002	9.27375E-001	3.57910E+000	9	...........
	60	0.813333	9.31880E-001	1.01703E-004	0.00000E+000	9.47753E-005	5.99601E-002	9.32195E-001	3.57910E+000	9	...........
	61	0.826667	9.36570E-001	1.01759E-004	0.00000E+000	9.53041E-005	5.99601E-002	9.36897E-001	3.57910E+000	9	...........
	62	0.84	9.41147E-001	1.01420E-004	0.00000E+000	9.54511E-005	5.99601E-002	9.41501E-001	3.57910E+000	9	...........
	63	0.853333	9.45671E-001	1.01215E-004	0.00000E+000	9.57159E-005	5.99601E-002	9.46004E-001	3.57910E+000	9	...........
	64	0.866667	9.50061E-001	1.01789E-004	0.00000E+000	9.67056E-005	5.99601E-002	9.50403E-001	3.57910E+000	9	...........
	65	0.88	9.54370E-001	1.00924E-004	0.00000E+000	9.63190E-005	5.99601E-002	9.54709E-001	3.57910E+000	9	...........
	66	0.893333	9.58597E-001	1.01086E-004	0.00000E+000	9.69003E-005	5.99601E-002	9.58923E-001	3.57910E+000	9	...........
	67	0.906667	9.62707E-001	1.01883E-004	0.00000E+000	9.80831E-005	5.99601E-002	9.63076E-001	3.57910E+000	9	...........
	68	0.92	9.66755E-001	1.01463E-004	0.00000E+000	9.80896E-005	5.99601E-002	9.67104E-001	3.57910E+000	9	...........
	69	0.933333	9.70704E-001	1.01644E-004	0.00000E+000	9.86662E-005	5.99601E-002	9.71099E-001	3.57910E+000	9	...........
	70	0.946667	9.74639E-001	1.01620E-004	0.00000E+000	9.90429E-005	5.99601E-002	9.75004E-001	3.57910E+000	9	...........
	71	0.96	9.78474E-001	1.01167E-004	0.00000E+000	9.89891E-005	5.99601E-002	9.78809E-001	3.57910E+000	9	...........
	72	0.97333	9.82212E-001	1.02441E-004	0.00000E+000	1.00619E-004	5.99601E-002	9.82546E-001	3.57910E+000	9	...........
	73	0.98667	9.85821E-001	1.01734E-004	0.00000E+000	1.00291E-004	5.99601E-002	9.86204E-001	3.57910E+000	9	...........
	74	1	9.89405E-001	1.01816E-004	0.00000E+000	1.00737E-004	5.99601E-002	9.89764E-001	3.57910E+000	9	...........
	75	1.01333	9.92871E-001	1.02231E-004	0.00000E+000	1.01502E-004	5.99601E-002	9.93241E-001	3.57910E+000	9	...........
	76	1.02667	9.96292E-001	1.01891E-004	0.00000E+000	1.01513E-004	5.99601E-002	9.96639E-001	3.57910E+000	9	...........
	77	1.03667	9.99209E-001	1.00704E-004	0.00000E+000	1.00624E-004	5.99601E-002	9.99562E-001	3.57910E+000	9	...........
STARTTIMEOFFSET	QUANT	444.3968	Start Time Offset (s)
