EXPLAIN
TAG	PWR800_CHARGE
TITLE	LABEL	PWR Cyclic Charge Discharge (Cell) - Charge Step	Test &Identifier
DATE	LABEL	12-7-2017	Date
TIME	LABEL	16:45:01	Time
NOTES	NOTES	2	&Notes...
	supercap test cell
	6M KOH
PSTAT	PSTAT	IFC5000-01520	Potentiostat
CAPACITY	QUANT	1.00000E-003	Capacity (A-hr)
CELLTYPE	SELECTOR	1	&Cell Type
WORKINGCONNECTION	SELECTOR	0	&Working Lead
MAXCHARGETIME	VARIABLEANDUNITS	1.00000E+002	s	1.00000E+002	second(s)	Max &Charge Time
CHARGECURRENT	QUANT	1.00000E-004	&Charge Current (A) 
VOLTAGEFINISH	TWOPARAM	F	1.00000E-003	3.60000E+003	&Voltage Finish	 I (A) < 	Max Time(s)
SAMPLETIME	QUANT	1.00000E-002	Sa&mple Period (s)
CHARGESTOPAT1	MULTIPARAM	4	1.00000E+000	Charge Stop At &1	Voltage > Limit	V
CHARGESTOPAT2	MULTIPARAM	0	0.00000E+000	Charge Stop At &2	None	N/A
AESBHCSELECTOR	TOGGLE	F	Save Both Half Cells
IRCOMP	TOGGLE	F	IR &Measure
EOC	QUANT	0	Open Circuit (V)
SEQUENCER	TOGGLE	TRUE	Run as Sequence
PSTATMODEL	IQUANT	53	Pstat Model
PSTATSECTION	LABEL	IFC5000-01520	Pstat Section
PSTATSERIALNO	LABEL	01520	Pstat Serial Number
CTRLMODE	IQUANT	0	Control Mode
ELECTROMETER	IQUANT	1	RE=0 or CS=1
IESTAB	IQUANT	0	I/E Stability
CASPEED	IQUANT	4	Control Amp Speed
CONVENTION	IQUANT	1	Current Convention
ICHRANGE	IQUANT	2	Ich Range
ICHRANGEMODE	TOGGLE	T	Ich Auto Range
ICHOFFSETENABLE	TOGGLE	F	Ich Offset Enable
ICHOFFSET	QUANT	0	Ich Offset (V)
ICHFILTER	IQUANT	1	Ich Filter
VCHRANGE	IQUANT	2	Vch Range
VCHRANGEMODE	TOGGLE	T	Vch Auto Range
VCHOFFSETENABLE	TOGGLE	F	Vch Offset Enable
VCHOFFSET	QUANT	0	Vch Offset (V)
VCHFILTER	IQUANT	1	Vch Filter
IERANGELOWERLIMIT	IQUANT	9	I/E Range Lower Limit
IERANGEMODE	TOGGLE	F	I/E AutoRange
IERANGE	IQUANT	9	I/E Range
ACHSELECT	IQUANT	1	Ach Select
ACHRANGE	IQUANT	2	Ach Range
ACHOFFSETENABLE	TOGGLE	F	Ach Offset Enable
ACHOFFSET	QUANT	0	Ach Offset (V)
ACHFILTER	IQUANT	1	Ach Filter
CABLEID	IQUANT	14	Cable ID
DCCALDATE	LABEL	5-7-2017	DC Calibration Date
ACCALDATE	LABEL	12/3/2015	AC Calibration Date
FRAMEWORKVERSION	QUANT	7.01	Framework Version
INSTRUMENTVERSION	LABEL	4.00	Instrument Version
CURVE	TABLE	75
	Pt	T	Vf	Im	Vu	Pwr	Sig	Ach	Temp	IERange	Over
	#	s	V	A	V	W	V	V	deg C	#	bits
	0	0.013333	2.59666E-001	9.93019E-005	0.00000E+000	2.57853E-005	5.99601E-002	2.59749E-001	3.57790E+000	9	...........
	1	0.026667	2.82695E-001	1.00540E-004	0.00000E+000	2.84220E-005	5.99601E-002	2.82760E-001	3.57790E+000	9	...........
	2	0.04	3.04478E-001	1.02066E-004	0.00000E+000	3.10769E-005	5.99601E-002	3.04539E-001	3.57790E+000	9	...........
	3	0.053333	3.25337E-001	1.01966E-004	0.00000E+000	3.31733E-005	5.99601E-002	3.25409E-001	3.57790E+000	9	...........
	4	0.066667	3.45484E-001	1.01502E-004	0.00000E+000	3.50675E-005	5.99601E-002	3.45554E-001	3.57790E+000	9	...........
	5	0.08	3.65026E-001	1.01673E-004	0.00000E+000	3.71134E-005	5.99601E-002	3.65103E-001	3.57790E+000	9	...........
	6	0.093333	3.84038E-001	1.01195E-004	0.00000E+000	3.88628E-005	5.99601E-002	3.84114E-001	3.57790E+000	9	...........
	7	0.106667	4.02574E-001	1.00621E-004	0.00000E+000	4.05073E-005	5.99601E-002	4.02655E-001	3.57790E+000	9	...........
	8	0.12	4.20666E-001	1.02247E-004	0.00000E+000	4.30120E-005	5.99601E-002	4.20754E-001	3.57790E+000	9	...........
	9	0.133333	4.38345E-001	1.01444E-004	0.00000E+000	4.44675E-005	5.99601E-002	4.38435E-001	3.57790E+000	9	...........
	10	0.146667	4.55636E-001	1.02219E-004	0.00000E+000	4.65747E-005	5.99601E-002	4.55730E-001	3.57790E+000	9	...........
	11	0.16	4.72539E-001	1.00832E-004	0.00000E+000	4.76472E-005	5.99601E-002	4.72634E-001	3.57790E+000	9	...........
	12	0.173333	4.89072E-001	1.01352E-004	0.00000E+000	4.95686E-005	5.99601E-002	4.89173E-001	3.57790E+000	9	...........
	13	0.186667	5.05249E-001	1.01621E-004	0.00000E+000	5.13440E-005	5.99601E-002	5.05350E-001	3.57790E+000	9	...........
	14	0.2	5.21073E-001	1.01444E-004	0.00000E+000	5.28597E-005	5.99601E-002	5.21182E-001	3.57790E+000	9	...........
	15	0.213333	5.36362E-001	1.01924E-004	0.00000E+000	5.46683E-005	5.99601E-002	5.36528E-001	3.57790E+000	9	...........
	16	0.226667	5.51389E-001	1.00800E-004	0.00000E+000	5.55801E-005	5.99601E-002	5.51596E-001	3.57790E+000	9	...........
	17	0.24	5.66213E-001	1.00601E-004	0.00000E+000	5.69617E-005	5.99601E-002	5.66432E-001	3.57790E+000	9	...........
	18	0.253333	5.80662E-001	1.01899E-004	0.00000E+000	5.91691E-005	5.99601E-002	5.80912E-001	3.57790E+000	9	...........
	19	0.266667	5.94820E-001	1.00739E-004	0.00000E+000	5.99213E-005	5.99601E-002	5.95071E-001	3.57790E+000	9	...........
	20	0.28	6.08613E-001	1.00348E-004	0.00000E+000	6.10730E-005	5.99601E-002	6.08876E-001	3.57790E+000	9	...........
	21	0.293333	6.22175E-001	1.01965E-004	0.00000E+000	6.34400E-005	5.99601E-002	6.22396E-001	3.57790E+000	9	...........
	22	0.306667	6.35330E-001	1.00414E-004	0.00000E+000	6.37957E-005	5.99601E-002	6.35568E-001	3.57790E+000	9	...........
	23	0.32	6.48196E-001	1.00592E-004	0.00000E+000	6.52031E-005	5.99601E-002	6.48431E-001	3.57790E+000	9	...........
	24	0.333333	6.60736E-001	1.01107E-004	0.00000E+000	6.68053E-005	5.99601E-002	6.60977E-001	3.57790E+000	9	...........
	25	0.346667	6.72994E-001	1.01339E-004	0.00000E+000	6.82004E-005	5.99601E-002	6.73199E-001	3.57790E+000	9	...........
	26	0.36	6.84915E-001	1.00997E-004	0.00000E+000	6.91743E-005	5.99601E-002	6.85140E-001	3.57749E+000	9	...........
	27	0.373333	6.96543E-001	1.01380E-004	0.00000E+000	7.06158E-005	5.99601E-002	6.96779E-001	3.57680E+000	9	...........
	28	0.386667	7.07874E-001	1.01679E-004	0.00000E+000	7.19763E-005	5.99601E-002	7.08091E-001	3.57680E+000	9	...........
	29	0.4	7.18892E-001	1.01591E-004	0.00000E+000	7.30329E-005	5.99601E-002	7.19129E-001	3.57680E+000	9	...........
	30	0.413333	7.29631E-001	1.01294E-004	0.00000E+000	7.39072E-005	5.99601E-002	7.29863E-001	3.57680E+000	9	...........
	31	0.426667	7.40079E-001	1.00595E-004	0.00000E+000	7.44481E-005	5.99601E-002	7.40335E-001	3.57680E+000	9	...........
	32	0.44	7.50235E-001	1.00722E-004	0.00000E+000	7.55651E-005	5.99601E-002	7.50496E-001	3.57680E+000	9	...........
	33	0.453333	7.60109E-001	1.01254E-004	0.00000E+000	7.69643E-005	5.99601E-002	7.60361E-001	3.57680E+000	9	...........
	34	0.466667	7.69733E-001	1.01293E-004	0.00000E+000	7.79685E-005	5.99601E-002	7.69977E-001	3.57680E+000	9	...........
	35	0.48	7.79052E-001	1.01886E-004	0.00000E+000	7.93743E-005	5.99601E-002	7.79305E-001	3.57680E+000	9	...........
	36	0.493333	7.88104E-001	1.00465E-004	0.00000E+000	7.91766E-005	5.99601E-002	7.88352E-001	3.57680E+000	9	...........
	37	0.506667	7.96931E-001	1.00212E-004	0.00000E+000	7.98624E-005	5.99601E-002	7.97162E-001	3.57680E+000	9	...........
	38	0.52	8.05439E-001	1.01172E-004	0.00000E+000	8.14879E-005	5.99601E-002	8.05681E-001	3.57680E+000	9	...........
	39	0.533333	8.13678E-001	1.01380E-004	0.00000E+000	8.24911E-005	5.99601E-002	8.13945E-001	3.57680E+000	9	...........
	40	0.546667	8.21711E-001	1.02363E-004	0.00000E+000	8.41128E-005	5.99601E-002	8.21998E-001	3.57680E+000	9	...........
	41	0.56	8.29462E-001	1.00324E-004	0.00000E+000	8.32149E-005	5.99601E-002	8.29718E-001	3.57680E+000	9	...........
	42	0.573333	8.36953E-001	1.00609E-004	0.00000E+000	8.42054E-005	5.99601E-002	8.37260E-001	3.57680E+000	9	...........
	43	0.586667	8.44260E-001	9.96696E-005	0.00000E+000	8.41471E-005	5.99601E-002	8.44567E-001	3.57680E+000	9	...........
	44	0.6	8.51311E-001	1.01353E-004	0.00000E+000	8.62832E-005	5.99601E-002	8.51603E-001	3.57680E+000	9	...........
	45	0.613333	8.58130E-001	1.00627E-004	0.00000E+000	8.63512E-005	5.99601E-002	8.58452E-001	3.57680E+000	9	...........
	46	0.626667	8.64756E-001	1.01049E-004	0.00000E+000	8.73828E-005	5.99601E-002	8.65072E-001	3.57680E+000	9	...........
	47	0.64	8.71206E-001	1.00090E-004	0.00000E+000	8.71986E-005	5.99601E-002	8.71512E-001	3.57680E+000	9	...........
	48	0.653333	8.77446E-001	1.01504E-004	0.00000E+000	8.90646E-005	5.99601E-002	8.77732E-001	3.57680E+000	9	...........
	49	0.666667	8.83499E-001	1.00823E-004	0.00000E+000	8.90771E-005	5.99601E-002	8.83784E-001	3.57680E+000	9	...........
	50	0.68	8.89401E-001	1.00941E-004	0.00000E+000	8.97768E-005	5.99601E-002	8.89654E-001	3.57680E+000	9	...........
	51	0.693333	8.95140E-001	1.00156E-004	0.00000E+000	8.96538E-005	5.99601E-002	8.95434E-001	3.57680E+000	9	...........
	52	0.706667	9.00724E-001	1.01733E-004	0.00000E+000	9.16330E-005	5.99601E-002	9.01014E-001	3.57680E+000	9	...........
	53	0.72	9.06196E-001	1.01950E-004	0.00000E+000	9.23870E-005	5.99601E-002	9.06514E-001	3.57680E+000	9	...........
	54	0.733333	9.11550E-001	1.00304E-004	0.00000E+000	9.14322E-005	5.99601E-002	9.11874E-001	3.57680E+000	9	...........
	55	0.746667	9.16790E-001	1.00474E-004	0.00000E+000	9.21136E-005	5.99601E-002	9.17113E-001	3.57680E+000	9	...........
	56	0.76	9.21950E-001	1.00304E-004	0.00000E+000	9.24754E-005	5.99601E-002	9.22262E-001	3.57680E+000	9	...........
	57	0.773333	9.26999E-001	1.01165E-004	0.00000E+000	9.37796E-005	5.99601E-002	9.27281E-001	3.57680E+000	9	...........
	58	0.786667	9.31926E-001	1.01500E-004	0.00000E+000	9.45907E-005	5.99601E-002	9.32224E-001	3.57680E+000	9	...........
	59	0.8	9.36765E-001	1.01073E-004	0.00000E+000	9.46817E-005	5.99601E-002	9.37093E-001	3.57680E+000	9	...........
	60	0.813333	9.41553E-001	1.00845E-004	0.00000E+000	9.49508E-005	5.99601E-002	9.41851E-001	3.57680E+000	9	...........
	61	0.826667	9.46265E-001	9.95550E-005	0.00000E+000	9.42054E-005	5.99601E-002	9.46593E-001	3.57680E+000	9	...........
	62	0.84	9.50927E-001	1.00689E-004	0.00000E+000	9.57475E-005	5.99601E-002	9.51229E-001	3.57680E+000	9	...........
	63	0.853333	9.55438E-001	1.00424E-004	0.00000E+000	9.59489E-005	5.99601E-002	9.55755E-001	3.57680E+000	9	...........
	64	0.866667	9.59916E-001	1.00986E-004	0.00000E+000	9.69377E-005	5.99601E-002	9.60236E-001	3.57680E+000	9	...........
	65	0.88	9.64295E-001	1.01463E-004	0.00000E+000	9.78400E-005	5.99601E-002	9.64628E-001	3.57680E+000	9	...........
	66	0.893333	9.68607E-001	1.00142E-004	0.00000E+000	9.69979E-005	5.99601E-002	9.68968E-001	3.57680E+000	9	...........
	67	0.906667	9.72891E-001	1.01296E-004	0.00000E+000	9.85500E-005	5.99601E-002	9.73236E-001	3.57680E+000	9	...........
	68	0.92	9.77073E-001	1.01292E-004	0.00000E+000	9.89695E-005	5.99601E-002	9.77385E-001	3.57680E+000	9	...........
	69	0.933333	9.81174E-001	1.00066E-004	0.00000E+000	9.81817E-005	5.99601E-002	9.81459E-001	3.57680E+000	9	...........
	70	0.946667	9.85174E-001	1.01030E-004	0.00000E+000	9.95325E-005	5.99601E-002	9.85475E-001	3.57680E+000	9	...........
	71	0.96	9.89100E-001	1.01103E-004	0.00000E+000	1.00001E-004	5.99601E-002	9.89430E-001	3.57680E+000	9	...........
	72	0.97333	9.92935E-001	1.01534E-004	0.00000E+000	1.00816E-004	5.99601E-002	9.93276E-001	3.57680E+000	9	...........
	73	0.98667	9.96722E-001	1.02416E-004	0.00000E+000	1.02080E-004	5.99601E-002	9.97057E-001	3.57680E+000	9	...........
	74	0.99333	9.99498E-001	1.01194E-004	0.00000E+000	1.01143E-004	5.99601E-002	9.99860E-001	3.57680E+000	9	...........
STARTTIMEOFFSET	QUANT	1490.92	Start Time Offset (s)
