EXPLAIN
TAG	PWR800_CHARGE
TITLE	LABEL	PWR Cyclic Charge Discharge (Cell) - Charge Step	Test &Identifier
DATE	LABEL	12-7-2017	Date
TIME	LABEL	16:32:32	Time
NOTES	NOTES	2	&Notes...
	supercap test cell
	6M KOH
PSTAT	PSTAT	IFC5000-01520	Potentiostat
CAPACITY	QUANT	1.00000E-003	Capacity (A-hr)
CELLTYPE	SELECTOR	1	&Cell Type
WORKINGCONNECTION	SELECTOR	0	&Working Lead
MAXCHARGETIME	VARIABLEANDUNITS	1.00000E+002	s	1.00000E+002	second(s)	Max &Charge Time
CHARGECURRENT	QUANT	1.00000E-004	&Charge Current (A) 
VOLTAGEFINISH	TWOPARAM	F	1.00000E-003	3.60000E+003	&Voltage Finish	 I (A) < 	Max Time(s)
SAMPLETIME	QUANT	1.00000E-002	Sa&mple Period (s)
CHARGESTOPAT1	MULTIPARAM	4	1.00000E+000	Charge Stop At &1	Voltage > Limit	V
CHARGESTOPAT2	MULTIPARAM	0	0.00000E+000	Charge Stop At &2	None	N/A
AESBHCSELECTOR	TOGGLE	F	Save Both Half Cells
IRCOMP	TOGGLE	F	IR &Measure
EOC	QUANT	0	Open Circuit (V)
SEQUENCER	TOGGLE	TRUE	Run as Sequence
PSTATMODEL	IQUANT	53	Pstat Model
PSTATSECTION	LABEL	IFC5000-01520	Pstat Section
PSTATSERIALNO	LABEL	01520	Pstat Serial Number
CTRLMODE	IQUANT	0	Control Mode
ELECTROMETER	IQUANT	1	RE=0 or CS=1
IESTAB	IQUANT	0	I/E Stability
CASPEED	IQUANT	4	Control Amp Speed
CONVENTION	IQUANT	1	Current Convention
ICHRANGE	IQUANT	2	Ich Range
ICHRANGEMODE	TOGGLE	T	Ich Auto Range
ICHOFFSETENABLE	TOGGLE	F	Ich Offset Enable
ICHOFFSET	QUANT	0	Ich Offset (V)
ICHFILTER	IQUANT	1	Ich Filter
VCHRANGE	IQUANT	2	Vch Range
VCHRANGEMODE	TOGGLE	T	Vch Auto Range
VCHOFFSETENABLE	TOGGLE	F	Vch Offset Enable
VCHOFFSET	QUANT	0	Vch Offset (V)
VCHFILTER	IQUANT	1	Vch Filter
IERANGELOWERLIMIT	IQUANT	9	I/E Range Lower Limit
IERANGEMODE	TOGGLE	F	I/E AutoRange
IERANGE	IQUANT	9	I/E Range
ACHSELECT	IQUANT	1	Ach Select
ACHRANGE	IQUANT	2	Ach Range
ACHOFFSETENABLE	TOGGLE	F	Ach Offset Enable
ACHOFFSET	QUANT	0	Ach Offset (V)
ACHFILTER	IQUANT	1	Ach Filter
CABLEID	IQUANT	14	Cable ID
DCCALDATE	LABEL	5-7-2017	DC Calibration Date
ACCALDATE	LABEL	12/3/2015	AC Calibration Date
FRAMEWORKVERSION	QUANT	7.01	Framework Version
INSTRUMENTVERSION	LABEL	4.00	Instrument Version
CURVE	TABLE	76
	Pt	T	Vf	Im	Vu	Pwr	Sig	Ach	Temp	IERange	Over
	#	s	V	A	V	W	V	V	deg C	#	bits
	0	0.013333	2.61946E-001	1.01149E-004	0.00000E+000	2.64956E-005	5.99601E-002	2.62017E-001	3.57680E+000	9	...........
	1	0.026667	2.84769E-001	1.01347E-004	0.00000E+000	2.88605E-005	5.99601E-002	2.84826E-001	3.57680E+000	9	...........
	2	0.04	3.06284E-001	1.01638E-004	0.00000E+000	3.11300E-005	5.99601E-002	3.06347E-001	3.57680E+000	9	...........
	3	0.053333	3.26859E-001	1.01574E-004	0.00000E+000	3.32004E-005	5.99601E-002	3.26926E-001	3.57680E+000	9	...........
	4	0.066667	3.46671E-001	1.00021E-004	0.00000E+000	3.46743E-005	5.99601E-002	3.46742E-001	3.57680E+000	9	...........
	5	0.08	3.65859E-001	1.01010E-004	0.00000E+000	3.69553E-005	5.99601E-002	3.65932E-001	3.57680E+000	9	...........
	6	0.093333	3.84498E-001	1.01402E-004	0.00000E+000	3.89890E-005	5.99601E-002	3.84569E-001	3.57680E+000	9	...........
	7	0.106667	4.02646E-001	1.00343E-004	0.00000E+000	4.04025E-005	5.99601E-002	4.02722E-001	3.57680E+000	9	...........
	8	0.12	4.20332E-001	1.01495E-004	0.00000E+000	4.26616E-005	5.99601E-002	4.20426E-001	3.57680E+000	9	...........
	9	0.133333	4.37620E-001	1.00678E-004	0.00000E+000	4.40588E-005	5.99601E-002	4.37707E-001	3.57680E+000	9	...........
	10	0.146667	4.54507E-001	1.01041E-004	0.00000E+000	4.59237E-005	5.99601E-002	4.54605E-001	3.57680E+000	9	...........
	11	0.16	4.71018E-001	1.00602E-004	0.00000E+000	4.73854E-005	5.99601E-002	4.71115E-001	3.57680E+000	9	...........
	12	0.173333	4.87166E-001	1.02387E-004	0.00000E+000	4.98794E-005	5.99601E-002	4.87268E-001	3.57680E+000	9	...........
	13	0.186667	5.02958E-001	1.00358E-004	0.00000E+000	5.04760E-005	5.99601E-002	5.03066E-001	3.57680E+000	9	...........
	14	0.2	5.18427E-001	1.01143E-004	0.00000E+000	5.24352E-005	5.99601E-002	5.18540E-001	3.57680E+000	9	...........
	15	0.213333	5.33435E-001	1.01204E-004	0.00000E+000	5.39860E-005	5.99601E-002	5.33583E-001	3.57680E+000	9	...........
	16	0.226667	5.48068E-001	1.01352E-004	0.00000E+000	5.55479E-005	5.99601E-002	5.48304E-001	3.57680E+000	9	...........
	17	0.24	5.62578E-001	1.00880E-004	0.00000E+000	5.67531E-005	5.99601E-002	5.62825E-001	3.57680E+000	9	...........
	18	0.253333	5.76777E-001	1.01187E-004	0.00000E+000	5.83621E-005	5.99601E-002	5.77028E-001	3.57680E+000	9	...........
	19	0.266667	5.90641E-001	1.01401E-004	0.00000E+000	5.98917E-005	5.99601E-002	5.90915E-001	3.57680E+000	9	...........
	20	0.28	6.04218E-001	1.00423E-004	0.00000E+000	6.06774E-005	5.99601E-002	6.04518E-001	3.57680E+000	9	...........
	21	0.293333	6.17528E-001	1.02183E-004	0.00000E+000	6.31007E-005	5.99601E-002	6.17808E-001	3.57680E+000	9	...........
	22	0.306667	6.30474E-001	1.00211E-004	0.00000E+000	6.31807E-005	5.99601E-002	6.30764E-001	3.57680E+000	9	...........
	23	0.32	6.43208E-001	1.01032E-004	0.00000E+000	6.49849E-005	5.99601E-002	6.43478E-001	3.57680E+000	9	...........
	24	0.333333	6.55624E-001	1.01740E-004	0.00000E+000	6.67031E-005	5.99601E-002	6.55893E-001	3.57680E+000	9	...........
	25	0.346667	6.67748E-001	9.99103E-005	0.00000E+000	6.67149E-005	5.99601E-002	6.68025E-001	3.57680E+000	9	...........
	26	0.36	6.79583E-001	1.01250E-004	0.00000E+000	6.88079E-005	5.99601E-002	6.79895E-001	3.57680E+000	9	...........
	27	0.373333	6.91158E-001	1.01521E-004	0.00000E+000	7.01671E-005	5.99601E-002	6.91440E-001	3.57680E+000	9	...........
	28	0.386667	7.02447E-001	1.00757E-004	0.00000E+000	7.07767E-005	5.99601E-002	7.02734E-001	3.57680E+000	9	...........
	29	0.4	7.13444E-001	1.01695E-004	0.00000E+000	7.25537E-005	5.99601E-002	7.13728E-001	3.57680E+000	9	...........
	30	0.413333	7.24224E-001	1.00491E-004	0.00000E+000	7.27778E-005	5.99601E-002	7.24479E-001	3.57680E+000	9	...........
	31	0.426667	7.34667E-001	1.00476E-004	0.00000E+000	7.38164E-005	5.99601E-002	7.34924E-001	3.57680E+000	9	...........
	32	0.44	7.44875E-001	1.00682E-004	0.00000E+000	7.49958E-005	5.99601E-002	7.45127E-001	3.57680E+000	9	...........
	33	0.453333	7.54814E-001	1.00519E-004	0.00000E+000	7.58730E-005	5.99601E-002	7.55070E-001	3.57680E+000	9	...........
	34	0.466667	7.64458E-001	9.99895E-005	0.00000E+000	7.64377E-005	5.99601E-002	7.64735E-001	3.57680E+000	9	...........
	35	0.48	7.73875E-001	1.02554E-004	0.00000E+000	7.93637E-005	5.99601E-002	7.74151E-001	3.57680E+000	9	...........
	36	0.493333	7.83018E-001	1.00551E-004	0.00000E+000	7.87333E-005	5.99601E-002	7.83302E-001	3.57680E+000	9	...........
	37	0.506667	7.91905E-001	1.01384E-004	0.00000E+000	8.02862E-005	5.99601E-002	7.92212E-001	3.57680E+000	9	...........
	38	0.52	8.00555E-001	1.00932E-004	0.00000E+000	8.08019E-005	5.99601E-002	8.00848E-001	3.57680E+000	9	...........
	39	0.533333	8.08939E-001	1.01216E-004	0.00000E+000	8.18774E-005	5.99601E-002	8.09247E-001	3.57680E+000	9	...........
	40	0.546667	8.17077E-001	1.00702E-004	0.00000E+000	8.22814E-005	5.99601E-002	8.17410E-001	3.57680E+000	9	...........
	41	0.56	8.25018E-001	1.01447E-004	0.00000E+000	8.36956E-005	5.99601E-002	8.25316E-001	3.57680E+000	9	...........
	42	0.573333	8.32664E-001	1.00758E-004	0.00000E+000	8.38979E-005	5.99601E-002	8.32982E-001	3.57680E+000	9	...........
	43	0.586667	8.40119E-001	1.01646E-004	0.00000E+000	8.53949E-005	5.99601E-002	8.40410E-001	3.57680E+000	9	...........
	44	0.6	8.47343E-001	1.00681E-004	0.00000E+000	8.53117E-005	5.99601E-002	8.47638E-001	3.57680E+000	9	...........
	45	0.613333	8.54311E-001	1.01329E-004	0.00000E+000	8.65668E-005	5.99601E-002	8.54617E-001	3.57680E+000	9	...........
	46	0.626667	8.61087E-001	1.01689E-004	0.00000E+000	8.75629E-005	5.99601E-002	8.61389E-001	3.57680E+000	9	...........
	47	0.64	8.67651E-001	1.01247E-004	0.00000E+000	8.78471E-005	5.99601E-002	8.67943E-001	3.57680E+000	9	...........
	48	0.653333	8.74007E-001	1.00912E-004	0.00000E+000	8.81974E-005	5.99601E-002	8.74299E-001	3.57680E+000	9	...........
	49	0.666667	8.80158E-001	1.00143E-004	0.00000E+000	8.81414E-005	5.99601E-002	8.80458E-001	3.57680E+000	9	...........
	50	0.68	8.86145E-001	1.00155E-004	0.00000E+000	8.87520E-005	5.99601E-002	8.86465E-001	3.57680E+000	9	...........
	51	0.693333	8.91924E-001	1.01243E-004	0.00000E+000	9.03009E-005	5.99601E-002	8.92272E-001	3.57680E+000	9	...........
	52	0.706667	8.97607E-001	1.00856E-004	0.00000E+000	9.05294E-005	5.99601E-002	8.97945E-001	3.57680E+000	9	...........
	53	0.72	9.03108E-001	1.00929E-004	0.00000E+000	9.11500E-005	5.99601E-002	9.03453E-001	3.57680E+000	9	...........
	54	0.733333	9.08476E-001	1.01126E-004	0.00000E+000	9.18707E-005	5.99601E-002	9.08810E-001	3.57680E+000	9	...........
	55	0.746667	9.13707E-001	1.00841E-004	0.00000E+000	9.21388E-005	5.99601E-002	9.14047E-001	3.57680E+000	9	...........
	56	0.76	9.18829E-001	1.01380E-004	0.00000E+000	9.31512E-005	5.99601E-002	9.19169E-001	3.57680E+000	9	...........
	57	0.773333	9.23887E-001	1.01526E-004	0.00000E+000	9.37988E-005	5.99601E-002	9.24195E-001	3.57680E+000	9	...........
	58	0.786667	9.28793E-001	1.01964E-004	0.00000E+000	9.47034E-005	5.99601E-002	9.29114E-001	3.57745E+000	9	...........
	59	0.8	9.33612E-001	1.01949E-004	0.00000E+000	9.51810E-005	5.99601E-002	9.33910E-001	3.57810E+000	9	...........
	60	0.813333	9.38322E-001	1.00672E-004	0.00000E+000	9.44627E-005	5.99601E-002	9.38645E-001	3.57810E+000	9	...........
	61	0.826667	9.42964E-001	1.01718E-004	0.00000E+000	9.59164E-005	5.99601E-002	9.43280E-001	3.57810E+000	9	...........
	62	0.84	9.47525E-001	1.01778E-004	0.00000E+000	9.64376E-005	5.99601E-002	9.47851E-001	3.57810E+000	9	...........
	63	0.853333	9.51996E-001	1.01074E-004	0.00000E+000	9.62221E-005	5.99601E-002	9.52348E-001	3.57810E+000	9	...........
	64	0.866667	9.56391E-001	1.01924E-004	0.00000E+000	9.74795E-005	5.99601E-002	9.56716E-001	3.57810E+000	9	...........
	65	0.88	9.60700E-001	1.00169E-004	0.00000E+000	9.62321E-005	5.99601E-002	9.61069E-001	3.57810E+000	9	...........
	66	0.893333	9.64938E-001	1.01169E-004	0.00000E+000	9.76217E-005	5.99601E-002	9.65294E-001	3.57810E+000	9	...........
	67	0.906667	9.69088E-001	1.00925E-004	0.00000E+000	9.78054E-005	5.99601E-002	9.69475E-001	3.57810E+000	9	...........
	68	0.92	9.73225E-001	1.01791E-004	0.00000E+000	9.90655E-005	5.99601E-002	9.73594E-001	3.57810E+000	9	...........
	69	0.933333	9.77271E-001	1.00703E-004	0.00000E+000	9.84144E-005	5.99601E-002	9.77602E-001	3.57810E+000	9	...........
	70	0.946667	9.81173E-001	1.01080E-004	0.00000E+000	9.91773E-005	5.99601E-002	9.81531E-001	3.57810E+000	9	...........
	71	0.96	9.85053E-001	1.00548E-004	0.00000E+000	9.90451E-005	5.99601E-002	9.85400E-001	3.57810E+000	9	...........
	72	0.97333	9.88829E-001	1.00862E-004	0.00000E+000	9.97349E-005	5.99601E-002	9.89154E-001	3.57810E+000	9	...........
	73	0.98667	9.92498E-001	1.01373E-004	0.00000E+000	1.00613E-004	5.99601E-002	9.92849E-001	3.57810E+000	9	...........
	74	1	9.96121E-001	1.01213E-004	0.00000E+000	1.00820E-004	5.99601E-002	9.96460E-001	3.57810E+000	9	...........
	75	1.01	9.99226E-001	1.01001E-004	0.00000E+000	1.00923E-004	5.99601E-002	9.99574E-001	3.57810E+000	9	...........
STARTTIMEOFFSET	QUANT	961.584	Start Time Offset (s)
