EXPLAIN
TAG	PWR800_CHARGE
TITLE	LABEL	PWR Cyclic Charge Discharge (Cell) - Charge Step	Test &Identifier
DATE	LABEL	12-7-2017	Date
TIME	LABEL	16:21:22	Time
NOTES	NOTES	2	&Notes...
	supercap test cell
	6M KOH
PSTAT	PSTAT	IFC5000-01520	Potentiostat
CAPACITY	QUANT	1.00000E-003	Capacity (A-hr)
CELLTYPE	SELECTOR	1	&Cell Type
WORKINGCONNECTION	SELECTOR	0	&Working Lead
MAXCHARGETIME	VARIABLEANDUNITS	1.00000E+002	s	1.00000E+002	second(s)	Max &Charge Time
CHARGECURRENT	QUANT	1.00000E-004	&Charge Current (A) 
VOLTAGEFINISH	TWOPARAM	F	1.00000E-003	3.60000E+003	&Voltage Finish	 I (A) < 	Max Time(s)
SAMPLETIME	QUANT	1.00000E-002	Sa&mple Period (s)
CHARGESTOPAT1	MULTIPARAM	4	1.00000E+000	Charge Stop At &1	Voltage > Limit	V
CHARGESTOPAT2	MULTIPARAM	0	0.00000E+000	Charge Stop At &2	None	N/A
AESBHCSELECTOR	TOGGLE	F	Save Both Half Cells
IRCOMP	TOGGLE	F	IR &Measure
EOC	QUANT	0	Open Circuit (V)
SEQUENCER	TOGGLE	TRUE	Run as Sequence
PSTATMODEL	IQUANT	53	Pstat Model
PSTATSECTION	LABEL	IFC5000-01520	Pstat Section
PSTATSERIALNO	LABEL	01520	Pstat Serial Number
CTRLMODE	IQUANT	0	Control Mode
ELECTROMETER	IQUANT	1	RE=0 or CS=1
IESTAB	IQUANT	0	I/E Stability
CASPEED	IQUANT	4	Control Amp Speed
CONVENTION	IQUANT	1	Current Convention
ICHRANGE	IQUANT	2	Ich Range
ICHRANGEMODE	TOGGLE	T	Ich Auto Range
ICHOFFSETENABLE	TOGGLE	F	Ich Offset Enable
ICHOFFSET	QUANT	0	Ich Offset (V)
ICHFILTER	IQUANT	1	Ich Filter
VCHRANGE	IQUANT	2	Vch Range
VCHRANGEMODE	TOGGLE	T	Vch Auto Range
VCHOFFSETENABLE	TOGGLE	F	Vch Offset Enable
VCHOFFSET	QUANT	0	Vch Offset (V)
VCHFILTER	IQUANT	1	Vch Filter
IERANGELOWERLIMIT	IQUANT	9	I/E Range Lower Limit
IERANGEMODE	TOGGLE	F	I/E AutoRange
IERANGE	IQUANT	9	I/E Range
ACHSELECT	IQUANT	1	Ach Select
ACHRANGE	IQUANT	2	Ach Range
ACHOFFSETENABLE	TOGGLE	F	Ach Offset Enable
ACHOFFSET	QUANT	0	Ach Offset (V)
ACHFILTER	IQUANT	1	Ach Filter
CABLEID	IQUANT	14	Cable ID
DCCALDATE	LABEL	5-7-2017	DC Calibration Date
ACCALDATE	LABEL	12/3/2015	AC Calibration Date
FRAMEWORKVERSION	QUANT	7.01	Framework Version
INSTRUMENTVERSION	LABEL	4.00	Instrument Version
CURVE	TABLE	78
	Pt	T	Vf	Im	Vu	Pwr	Sig	Ach	Temp	IERange	Over
	#	s	V	A	V	W	V	V	deg C	#	bits
	0	0.013333	2.60719E-001	1.00542E-004	0.00000E+000	2.62132E-005	5.99601E-002	2.60801E-001	3.57690E+000	9	...........
	1	0.026667	2.83508E-001	1.00556E-004	0.00000E+000	2.85085E-005	5.99601E-002	2.83567E-001	3.57690E+000	9	...........
	2	0.04	3.04805E-001	1.00693E-004	0.00000E+000	3.06917E-005	5.99601E-002	3.04874E-001	3.57690E+000	9	...........
	3	0.053333	3.25041E-001	1.00681E-004	0.00000E+000	3.27256E-005	5.99601E-002	3.25108E-001	3.57690E+000	9	...........
	4	0.066667	3.44406E-001	1.00853E-004	0.00000E+000	3.47344E-005	5.99601E-002	3.44481E-001	3.57700E+000	9	...........
	5	0.08	3.63078E-001	1.01187E-004	0.00000E+000	3.67387E-005	5.99601E-002	3.63149E-001	3.57730E+000	9	...........
	6	0.093333	3.81130E-001	1.01155E-004	0.00000E+000	3.85533E-005	5.99601E-002	3.81205E-001	3.57730E+000	9	...........
	7	0.106667	3.98640E-001	1.01755E-004	0.00000E+000	4.05638E-005	5.99601E-002	3.98724E-001	3.57730E+000	9	...........
	8	0.12	4.15681E-001	1.00831E-004	0.00000E+000	4.19137E-005	5.99601E-002	4.15768E-001	3.57730E+000	9	...........
	9	0.133333	4.32279E-001	1.00618E-004	0.00000E+000	4.34950E-005	5.99601E-002	4.32378E-001	3.57730E+000	9	...........
	10	0.146667	4.48484E-001	1.01588E-004	0.00000E+000	4.55605E-005	5.99601E-002	4.48572E-001	3.57730E+000	9	...........
	11	0.16	4.64303E-001	1.01604E-004	0.00000E+000	4.71753E-005	5.99601E-002	4.64400E-001	3.57730E+000	9	...........
	12	0.173333	4.79773E-001	1.01017E-004	0.00000E+000	4.84651E-005	5.99601E-002	4.79873E-001	3.57730E+000	9	...........
	13	0.186667	4.94907E-001	1.00747E-004	0.00000E+000	4.98603E-005	5.99601E-002	4.95007E-001	3.57730E+000	9	...........
	14	0.2	5.09731E-001	1.01015E-004	0.00000E+000	5.14903E-005	5.99601E-002	5.09831E-001	3.57730E+000	9	...........
	15	0.213333	5.24251E-001	1.01204E-004	0.00000E+000	5.30565E-005	5.99601E-002	5.24357E-001	3.57730E+000	9	...........
	16	0.226667	5.38241E-001	1.01018E-004	0.00000E+000	5.43719E-005	5.99601E-002	5.38414E-001	3.57730E+000	9	...........
	17	0.24	5.52113E-001	1.00095E-004	0.00000E+000	5.52636E-005	5.99601E-002	5.52301E-001	3.57730E+000	9	...........
	18	0.253333	5.65812E-001	1.01260E-004	0.00000E+000	5.72939E-005	5.99601E-002	5.66026E-001	3.57730E+000	9	...........
	19	0.266667	5.79207E-001	1.01116E-004	0.00000E+000	5.85669E-005	5.99601E-002	5.79425E-001	3.57730E+000	9	...........
	20	0.28	5.92372E-001	1.00943E-004	0.00000E+000	5.97957E-005	5.99601E-002	5.92601E-001	3.57730E+000	9	...........
	21	0.293333	6.05250E-001	1.01633E-004	0.00000E+000	6.15131E-005	5.99601E-002	6.05518E-001	3.57730E+000	9	...........
	22	0.306667	6.17922E-001	1.00514E-004	0.00000E+000	6.21096E-005	5.99601E-002	6.18174E-001	3.57730E+000	9	...........
	23	0.32	6.30319E-001	1.00945E-004	0.00000E+000	6.36275E-005	5.99601E-002	6.30592E-001	3.57730E+000	9	...........
	24	0.333333	6.42493E-001	1.00593E-004	0.00000E+000	6.46301E-005	5.99601E-002	6.42773E-001	3.57730E+000	9	...........
	25	0.346667	6.54433E-001	1.02063E-004	0.00000E+000	6.67933E-005	5.99601E-002	6.54699E-001	3.57730E+000	9	...........
	26	0.36	6.66115E-001	1.00751E-004	0.00000E+000	6.71118E-005	5.99601E-002	6.66393E-001	3.57730E+000	9	...........
	27	0.373333	6.77561E-001	1.01391E-004	0.00000E+000	6.86984E-005	5.99601E-002	6.77849E-001	3.57730E+000	9	...........
	28	0.386667	6.88756E-001	1.02752E-004	0.00000E+000	7.07707E-005	5.99601E-002	6.89065E-001	3.57730E+000	9	...........
	29	0.4	6.99756E-001	1.00056E-004	0.00000E+000	7.00149E-005	5.99601E-002	7.00016E-001	3.57730E+000	9	...........
	30	0.413333	7.10480E-001	9.99978E-005	0.00000E+000	7.10465E-005	5.99601E-002	7.10794E-001	3.57730E+000	9	...........
	31	0.426667	7.21025E-001	1.01508E-004	0.00000E+000	7.31895E-005	5.99601E-002	7.21311E-001	3.57730E+000	9	...........
	32	0.44	7.31277E-001	1.01771E-004	0.00000E+000	7.44229E-005	5.99601E-002	7.31588E-001	3.57730E+000	9	...........
	33	0.453333	7.41347E-001	1.01193E-004	0.00000E+000	7.50190E-005	5.99601E-002	7.41626E-001	3.57730E+000	9	...........
	34	0.466667	7.51187E-001	1.01916E-004	0.00000E+000	7.65579E-005	5.99601E-002	7.51441E-001	3.57730E+000	9	...........
	35	0.48	7.60790E-001	1.01024E-004	0.00000E+000	7.68581E-005	5.99601E-002	7.61034E-001	3.57730E+000	9	...........
	36	0.493333	7.70136E-001	1.00229E-004	0.00000E+000	7.71901E-005	5.99601E-002	7.70407E-001	3.57730E+000	9	...........
	37	0.506667	7.79281E-001	1.01021E-004	0.00000E+000	7.87237E-005	5.99601E-002	7.79535E-001	3.57730E+000	9	...........
	38	0.52	7.88183E-001	1.01579E-004	0.00000E+000	8.00632E-005	5.99601E-002	7.88429E-001	3.57730E+000	9	...........
	39	0.533333	7.96897E-001	1.01142E-004	0.00000E+000	8.05996E-005	5.99601E-002	7.97147E-001	3.57730E+000	9	...........
	40	0.546667	8.05340E-001	1.01275E-004	0.00000E+000	8.15610E-005	5.99601E-002	8.05622E-001	3.57730E+000	9	...........
	41	0.56	8.13576E-001	1.01165E-004	0.00000E+000	8.23052E-005	5.99601E-002	8.13857E-001	3.57730E+000	9	...........
	42	0.573333	8.21624E-001	1.00070E-004	0.00000E+000	8.22197E-005	5.99601E-002	8.21910E-001	3.57730E+000	9	...........
	43	0.586667	8.29400E-001	1.00704E-004	0.00000E+000	8.35242E-005	5.99601E-002	8.29695E-001	3.57730E+000	9	...........
	44	0.6	8.36991E-001	1.00880E-004	0.00000E+000	8.44359E-005	5.99601E-002	8.37288E-001	3.57730E+000	9	...........
	45	0.613333	8.44380E-001	1.00489E-004	0.00000E+000	8.48505E-005	5.99601E-002	8.44681E-001	3.57730E+000	9	...........
	46	0.626667	8.51564E-001	1.00773E-004	0.00000E+000	8.58146E-005	5.99601E-002	8.51876E-001	3.57730E+000	9	...........
	47	0.64	8.58540E-001	1.01417E-004	0.00000E+000	8.70704E-005	5.99601E-002	8.58856E-001	3.57730E+000	9	...........
	48	0.653333	8.65267E-001	1.00366E-004	0.00000E+000	8.68431E-005	5.99601E-002	8.65604E-001	3.57730E+000	9	...........
	49	0.666667	8.71874E-001	1.00541E-004	0.00000E+000	8.76588E-005	5.99601E-002	8.72197E-001	3.57730E+000	9	...........
	50	0.68	8.78217E-001	1.00888E-004	0.00000E+000	8.86012E-005	5.99601E-002	8.78549E-001	3.57730E+000	9	...........
	51	0.693333	8.84385E-001	1.01479E-004	0.00000E+000	8.97468E-005	5.99601E-002	8.84707E-001	3.57730E+000	9	...........
	52	0.706667	8.90381E-001	1.00479E-004	0.00000E+000	8.94647E-005	5.99601E-002	8.90706E-001	3.57730E+000	9	...........
	53	0.72	8.96160E-001	1.01294E-004	0.00000E+000	9.07756E-005	5.99601E-002	8.96519E-001	3.57730E+000	9	...........
	54	0.733333	9.01795E-001	1.02424E-004	0.00000E+000	9.23658E-005	5.99601E-002	9.02150E-001	3.57730E+000	9	...........
	55	0.746667	9.07275E-001	1.00868E-004	0.00000E+000	9.15149E-005	5.99601E-002	9.07622E-001	3.57730E+000	9	...........
	56	0.76	9.12590E-001	1.00900E-004	0.00000E+000	9.20804E-005	5.99601E-002	9.12960E-001	3.57730E+000	9	...........
	57	0.773333	9.17773E-001	1.01333E-004	0.00000E+000	9.30002E-005	5.99601E-002	9.18117E-001	3.57730E+000	9	...........
	58	0.786667	9.22865E-001	1.01265E-004	0.00000E+000	9.34537E-005	5.99601E-002	9.23187E-001	3.57730E+000	9	...........
	59	0.8	9.27758E-001	1.00674E-004	0.00000E+000	9.34011E-005	5.99601E-002	9.28108E-001	3.57730E+000	9	...........
	60	0.813333	9.32542E-001	1.01157E-004	0.00000E+000	9.43336E-005	5.99601E-002	9.32889E-001	3.57730E+000	9	...........
	61	0.826667	9.37239E-001	1.00222E-004	0.00000E+000	9.39318E-005	5.99601E-002	9.37580E-001	3.57730E+000	9	...........
	62	0.84	9.41805E-001	1.01226E-004	0.00000E+000	9.53353E-005	5.99601E-002	9.42143E-001	3.57730E+000	9	...........
	63	0.853333	9.46295E-001	1.00646E-004	0.00000E+000	9.52407E-005	5.99601E-002	9.46660E-001	3.57730E+000	9	...........
	64	0.866667	9.50702E-001	1.01433E-004	0.00000E+000	9.64320E-005	5.99601E-002	9.51060E-001	3.57730E+000	9	...........
	65	0.88	9.55022E-001	9.98249E-005	0.00000E+000	9.53350E-005	5.99601E-002	9.55340E-001	3.57730E+000	9	...........
	66	0.893333	9.59206E-001	1.01229E-004	0.00000E+000	9.70998E-005	5.99601E-002	9.59565E-001	3.57730E+000	9	...........
	67	0.906667	9.63327E-001	1.00144E-004	0.00000E+000	9.64712E-005	5.99601E-002	9.63713E-001	3.57730E+000	9	...........
	68	0.92	9.67369E-001	1.01319E-004	0.00000E+000	9.80128E-005	5.99601E-002	9.67744E-001	3.57730E+000	9	...........
	69	0.933333	9.71357E-001	1.00858E-004	0.00000E+000	9.79695E-005	5.99601E-002	9.71730E-001	3.57730E+000	9	...........
	70	0.946667	9.75282E-001	1.00847E-004	0.00000E+000	9.83542E-005	5.99601E-002	9.75625E-001	3.57730E+000	9	...........
	71	0.96	9.79105E-001	1.01572E-004	0.00000E+000	9.94497E-005	5.99601E-002	9.79441E-001	3.57730E+000	9	...........
	72	0.97333	9.82821E-001	1.00795E-004	0.00000E+000	9.90633E-005	5.99601E-002	9.83186E-001	3.57730E+000	9	...........
	73	0.98667	9.86462E-001	1.00673E-004	0.00000E+000	9.93101E-005	5.99601E-002	9.86836E-001	3.57730E+000	9	...........
	74	1	9.90060E-001	1.00893E-004	0.00000E+000	9.98899E-005	5.99601E-002	9.90419E-001	3.57730E+000	9	...........
	75	1.01333	9.93520E-001	1.00231E-004	0.00000E+000	9.95817E-005	5.99601E-002	9.93884E-001	3.57730E+000	9	...........
	76	1.02667	9.96941E-001	1.00155E-004	0.00000E+000	9.98488E-005	5.99601E-002	9.97331E-001	3.57730E+000	9	...........
	77	1.03333	9.99476E-001	1.02271E-004	0.00000E+000	1.02218E-004	5.99601E-002	9.99830E-001	3.57730E+000	9	...........
STARTTIMEOFFSET	QUANT	484.0501	Start Time Offset (s)
