EXPLAIN
TAG	PWR800_CHARGE
TITLE	LABEL	PWR Cyclic Charge Discharge (Cell) - Charge Step	Test &Identifier
DATE	LABEL	12-7-2017	Date
TIME	LABEL	16:44:20	Time
NOTES	NOTES	2	&Notes...
	supercap test cell
	6M KOH
PSTAT	PSTAT	IFC5000-01520	Potentiostat
CAPACITY	QUANT	1.00000E-003	Capacity (A-hr)
CELLTYPE	SELECTOR	1	&Cell Type
WORKINGCONNECTION	SELECTOR	0	&Working Lead
MAXCHARGETIME	VARIABLEANDUNITS	1.00000E+002	s	1.00000E+002	second(s)	Max &Charge Time
CHARGECURRENT	QUANT	1.00000E-004	&Charge Current (A) 
VOLTAGEFINISH	TWOPARAM	F	1.00000E-003	3.60000E+003	&Voltage Finish	 I (A) < 	Max Time(s)
SAMPLETIME	QUANT	1.00000E-002	Sa&mple Period (s)
CHARGESTOPAT1	MULTIPARAM	4	1.00000E+000	Charge Stop At &1	Voltage > Limit	V
CHARGESTOPAT2	MULTIPARAM	0	0.00000E+000	Charge Stop At &2	None	N/A
AESBHCSELECTOR	TOGGLE	F	Save Both Half Cells
IRCOMP	TOGGLE	F	IR &Measure
EOC	QUANT	0	Open Circuit (V)
SEQUENCER	TOGGLE	TRUE	Run as Sequence
PSTATMODEL	IQUANT	53	Pstat Model
PSTATSECTION	LABEL	IFC5000-01520	Pstat Section
PSTATSERIALNO	LABEL	01520	Pstat Serial Number
CTRLMODE	IQUANT	0	Control Mode
ELECTROMETER	IQUANT	1	RE=0 or CS=1
IESTAB	IQUANT	0	I/E Stability
CASPEED	IQUANT	4	Control Amp Speed
CONVENTION	IQUANT	1	Current Convention
ICHRANGE	IQUANT	2	Ich Range
ICHRANGEMODE	TOGGLE	T	Ich Auto Range
ICHOFFSETENABLE	TOGGLE	F	Ich Offset Enable
ICHOFFSET	QUANT	0	Ich Offset (V)
ICHFILTER	IQUANT	1	Ich Filter
VCHRANGE	IQUANT	2	Vch Range
VCHRANGEMODE	TOGGLE	T	Vch Auto Range
VCHOFFSETENABLE	TOGGLE	F	Vch Offset Enable
VCHOFFSET	QUANT	0	Vch Offset (V)
VCHFILTER	IQUANT	1	Vch Filter
IERANGELOWERLIMIT	IQUANT	9	I/E Range Lower Limit
IERANGEMODE	TOGGLE	F	I/E AutoRange
IERANGE	IQUANT	9	I/E Range
ACHSELECT	IQUANT	1	Ach Select
ACHRANGE	IQUANT	2	Ach Range
ACHOFFSETENABLE	TOGGLE	F	Ach Offset Enable
ACHOFFSET	QUANT	0	Ach Offset (V)
ACHFILTER	IQUANT	1	Ach Filter
CABLEID	IQUANT	14	Cable ID
DCCALDATE	LABEL	5-7-2017	DC Calibration Date
ACCALDATE	LABEL	12/3/2015	AC Calibration Date
FRAMEWORKVERSION	QUANT	7.01	Framework Version
INSTRUMENTVERSION	LABEL	4.00	Instrument Version
CURVE	TABLE	75
	Pt	T	Vf	Im	Vu	Pwr	Sig	Ach	Temp	IERange	Over
	#	s	V	A	V	W	V	V	deg C	#	bits
	0	0.013333	2.60241E-001	1.01326E-004	0.00000E+000	2.63692E-005	5.99601E-002	2.60316E-001	3.57660E+000	9	...........
	1	0.026667	2.83248E-001	1.00330E-004	0.00000E+000	2.84183E-005	5.99601E-002	2.83310E-001	3.57660E+000	9	...........
	2	0.04	3.05001E-001	9.93269E-005	0.00000E+000	3.02948E-005	5.99601E-002	3.05061E-001	3.57660E+000	9	...........
	3	0.053333	3.25849E-001	1.00842E-004	0.00000E+000	3.28592E-005	5.99601E-002	3.25911E-001	3.57660E+000	9	...........
	4	0.066667	3.45968E-001	1.01985E-004	0.00000E+000	3.52835E-005	5.99601E-002	3.46034E-001	3.57660E+000	9	...........
	5	0.08	3.65484E-001	1.00473E-004	0.00000E+000	3.67212E-005	5.99601E-002	3.65548E-001	3.57660E+000	9	...........
	6	0.093333	3.84461E-001	1.00964E-004	0.00000E+000	3.88166E-005	5.99601E-002	3.84540E-001	3.57660E+000	9	...........
	7	0.106667	4.02970E-001	1.01840E-004	0.00000E+000	4.10384E-005	5.99601E-002	4.03055E-001	3.57660E+000	9	...........
	8	0.12	4.21038E-001	1.01381E-004	0.00000E+000	4.26855E-005	5.99601E-002	4.21127E-001	3.57660E+000	9	...........
	9	0.133333	4.38694E-001	1.01095E-004	0.00000E+000	4.43497E-005	5.99601E-002	4.38786E-001	3.57660E+000	9	...........
	10	0.146667	4.55963E-001	1.01546E-004	0.00000E+000	4.63013E-005	5.99601E-002	4.56058E-001	3.57667E+000	9	...........
	11	0.16	4.72846E-001	1.01341E-004	0.00000E+000	4.79186E-005	5.99601E-002	4.72943E-001	3.57720E+000	9	...........
	12	0.173333	4.89365E-001	1.01688E-004	0.00000E+000	4.97624E-005	5.99601E-002	4.89465E-001	3.57720E+000	9	...........
	13	0.186667	5.05521E-001	1.00828E-004	0.00000E+000	5.09708E-005	5.99601E-002	5.05626E-001	3.57720E+000	9	...........
	14	0.2	5.21331E-001	1.01029E-004	0.00000E+000	5.26697E-005	5.99601E-002	5.21444E-001	3.57720E+000	9	...........
	15	0.213333	5.36605E-001	1.01304E-004	0.00000E+000	5.43604E-005	5.99601E-002	5.36799E-001	3.57720E+000	9	...........
	16	0.226667	5.51607E-001	1.01603E-004	0.00000E+000	5.60451E-005	5.99601E-002	5.51856E-001	3.57720E+000	9	...........
	17	0.24	5.66410E-001	1.00752E-004	0.00000E+000	5.70670E-005	5.99601E-002	5.66647E-001	3.57720E+000	9	...........
	18	0.253333	5.80854E-001	1.02390E-004	0.00000E+000	5.94736E-005	5.99601E-002	5.81100E-001	3.57720E+000	9	...........
	19	0.266667	5.94998E-001	1.00962E-004	0.00000E+000	6.00719E-005	5.99601E-002	5.95226E-001	3.57720E+000	9	...........
	20	0.28	6.08773E-001	1.00919E-004	0.00000E+000	6.14367E-005	5.99601E-002	6.09031E-001	3.57720E+000	9	...........
	21	0.293333	6.22296E-001	9.98364E-005	0.00000E+000	6.21278E-005	5.99601E-002	6.22523E-001	3.57720E+000	9	...........
	22	0.306667	6.35458E-001	1.01169E-004	0.00000E+000	6.42885E-005	5.99601E-002	6.35682E-001	3.57720E+000	9	...........
	23	0.32	6.48316E-001	1.01578E-004	0.00000E+000	6.58549E-005	5.99601E-002	6.48556E-001	3.57720E+000	9	...........
	24	0.333333	6.60842E-001	1.00884E-004	0.00000E+000	6.66687E-005	5.99601E-002	6.61077E-001	3.57720E+000	9	...........
	25	0.346667	6.73086E-001	1.01620E-004	0.00000E+000	6.83991E-005	5.99601E-002	6.73313E-001	3.57720E+000	9	...........
	26	0.36	6.84966E-001	1.01604E-004	0.00000E+000	6.95956E-005	5.99601E-002	6.85232E-001	3.57720E+000	9	...........
	27	0.373333	6.96590E-001	1.00769E-004	0.00000E+000	7.01946E-005	5.99601E-002	6.96847E-001	3.57720E+000	9	...........
	28	0.386667	7.07887E-001	1.01693E-004	0.00000E+000	7.19871E-005	5.99601E-002	7.08150E-001	3.57720E+000	9	...........
	29	0.4	7.18930E-001	1.00638E-004	0.00000E+000	7.23513E-005	5.99601E-002	7.19209E-001	3.57720E+000	9	...........
	30	0.413333	7.29662E-001	1.01287E-004	0.00000E+000	7.39051E-005	5.99601E-002	7.29918E-001	3.57720E+000	9	...........
	31	0.426667	7.40075E-001	1.01420E-004	0.00000E+000	7.50584E-005	5.99601E-002	7.40341E-001	3.57720E+000	9	...........
	32	0.44	7.50240E-001	1.01677E-004	0.00000E+000	7.62824E-005	5.99601E-002	7.50511E-001	3.57720E+000	9	...........
	33	0.453333	7.60125E-001	1.00590E-004	0.00000E+000	7.64607E-005	5.99601E-002	7.60379E-001	3.57720E+000	9	...........
	34	0.466667	7.69700E-001	1.01625E-004	0.00000E+000	7.82209E-005	5.99601E-002	7.69996E-001	3.57720E+000	9	...........
	35	0.48	7.79037E-001	1.01862E-004	0.00000E+000	7.93541E-005	5.99601E-002	7.79325E-001	3.57720E+000	9	...........
	36	0.493333	7.88073E-001	1.01618E-004	0.00000E+000	8.00824E-005	5.99601E-002	7.88370E-001	3.57720E+000	9	...........
	37	0.506667	7.96892E-001	1.00871E-004	0.00000E+000	8.03833E-005	5.99601E-002	7.97189E-001	3.57720E+000	9	...........
	38	0.52	8.05394E-001	1.00623E-004	0.00000E+000	8.10411E-005	5.99601E-002	8.05701E-001	3.57720E+000	9	...........
	39	0.533333	8.13645E-001	1.00197E-004	0.00000E+000	8.15246E-005	5.99601E-002	8.13961E-001	3.57720E+000	9	...........
	40	0.546667	8.21691E-001	1.00982E-004	0.00000E+000	8.29764E-005	5.99601E-002	8.21985E-001	3.57720E+000	9	...........
	41	0.56	8.29423E-001	1.00710E-004	0.00000E+000	8.35316E-005	5.99601E-002	8.29720E-001	3.57720E+000	9	...........
	42	0.573333	8.36937E-001	1.02044E-004	0.00000E+000	8.54045E-005	5.99601E-002	8.37236E-001	3.57720E+000	9	...........
	43	0.586667	8.44235E-001	1.01180E-004	0.00000E+000	8.54200E-005	5.99601E-002	8.44558E-001	3.57720E+000	9	...........
	44	0.6	8.51290E-001	1.00883E-004	0.00000E+000	8.58810E-005	5.99601E-002	8.51598E-001	3.57720E+000	9	...........
	45	0.613333	8.58125E-001	1.00751E-004	0.00000E+000	8.64570E-005	5.99601E-002	8.58438E-001	3.57720E+000	9	...........
	46	0.626667	8.64715E-001	1.01270E-004	0.00000E+000	8.75696E-005	5.99601E-002	8.65058E-001	3.57720E+000	9	...........
	47	0.64	8.71195E-001	1.01389E-004	0.00000E+000	8.83293E-005	5.99601E-002	8.71494E-001	3.57720E+000	9	...........
	48	0.653333	8.77403E-001	1.00880E-004	0.00000E+000	8.85127E-005	5.99601E-002	8.77748E-001	3.57720E+000	9	...........
	49	0.666667	8.83467E-001	1.00116E-004	0.00000E+000	8.84488E-005	5.99601E-002	8.83788E-001	3.57720E+000	9	...........
	50	0.68	8.89365E-001	1.01422E-004	0.00000E+000	9.02013E-005	5.99601E-002	8.89686E-001	3.57720E+000	9	...........
	51	0.693333	8.95099E-001	1.00922E-004	0.00000E+000	9.03351E-005	5.99601E-002	8.95453E-001	3.57720E+000	9	...........
	52	0.706667	9.00683E-001	1.00886E-004	0.00000E+000	9.08659E-005	5.99601E-002	9.01030E-001	3.57720E+000	9	...........
	53	0.72	9.06151E-001	1.00479E-004	0.00000E+000	9.10494E-005	5.99601E-002	9.06498E-001	3.57720E+000	9	...........
	54	0.733333	9.11517E-001	1.00795E-004	0.00000E+000	9.18763E-005	5.99601E-002	9.11823E-001	3.57720E+000	9	...........
	55	0.746667	9.16748E-001	1.00965E-004	0.00000E+000	9.25592E-005	5.99601E-002	9.17085E-001	3.57720E+000	9	...........
	56	0.76	9.21918E-001	1.01668E-004	0.00000E+000	9.37296E-005	5.99601E-002	9.22225E-001	3.57720E+000	9	...........
	57	0.773333	9.26949E-001	1.00649E-004	0.00000E+000	9.32965E-005	5.99601E-002	9.27254E-001	3.57720E+000	9	...........
	58	0.786667	9.31895E-001	1.01363E-004	0.00000E+000	9.44594E-005	5.99601E-002	9.32168E-001	3.57720E+000	9	...........
	59	0.8	9.36744E-001	1.01894E-004	0.00000E+000	9.54487E-005	5.99601E-002	9.37061E-001	3.57720E+000	9	...........
	60	0.813333	9.41508E-001	1.00494E-004	0.00000E+000	9.46157E-005	5.99601E-002	9.41804E-001	3.57720E+000	9	...........
	61	0.826667	9.46192E-001	1.00170E-004	0.00000E+000	9.47799E-005	5.99601E-002	9.46528E-001	3.57720E+000	9	...........
	62	0.84	9.50842E-001	1.00647E-004	0.00000E+000	9.56993E-005	5.99601E-002	9.51166E-001	3.57720E+000	9	...........
	63	0.853333	9.55388E-001	1.00725E-004	0.00000E+000	9.62316E-005	5.99601E-002	9.55704E-001	3.57720E+000	9	...........
	64	0.866667	9.59841E-001	1.01960E-004	0.00000E+000	9.78651E-005	5.99601E-002	9.60180E-001	3.57720E+000	9	...........
	65	0.88	9.64228E-001	1.00971E-004	0.00000E+000	9.73590E-005	5.99601E-002	9.64573E-001	3.57720E+000	9	...........
	66	0.893333	9.68548E-001	1.00336E-004	0.00000E+000	9.71807E-005	5.99601E-002	9.68883E-001	3.57720E+000	9	...........
	67	0.906667	9.72822E-001	1.01010E-004	0.00000E+000	9.82643E-005	5.99601E-002	9.73150E-001	3.57720E+000	9	...........
	68	0.92	9.76996E-001	1.02261E-004	0.00000E+000	9.99084E-005	5.99601E-002	9.77308E-001	3.57720E+000	9	...........
	69	0.933333	9.81063E-001	1.00556E-004	0.00000E+000	9.86520E-005	5.99601E-002	9.81390E-001	3.57720E+000	9	...........
	70	0.946667	9.85073E-001	1.01130E-004	0.00000E+000	9.96208E-005	5.99601E-002	9.85404E-001	3.57720E+000	9	...........
	71	0.96	9.89007E-001	1.01239E-004	0.00000E+000	1.00126E-004	5.99601E-002	9.89339E-001	3.57720E+000	9	...........
	72	0.97333	9.92846E-001	1.00819E-004	0.00000E+000	1.00098E-004	5.99601E-002	9.93182E-001	3.57720E+000	9	...........
	73	0.98667	9.96604E-001	1.01276E-004	0.00000E+000	1.00932E-004	5.99601E-002	9.96945E-001	3.57720E+000	9	...........
	74	0.99333	9.99396E-001	1.01759E-004	0.00000E+000	1.01697E-004	5.99601E-002	9.99735E-001	3.57720E+000	9	...........
STARTTIMEOFFSET	QUANT	1461.98	Start Time Offset (s)
