EXPLAIN
TAG	PWR800_CHARGE
TITLE	LABEL	PWR Cyclic Charge Discharge (Cell) - Charge Step	Test &Identifier
DATE	LABEL	12-7-2017	Date
TIME	LABEL	16:24:33	Time
NOTES	NOTES	2	&Notes...
	supercap test cell
	6M KOH
PSTAT	PSTAT	IFC5000-01520	Potentiostat
CAPACITY	QUANT	1.00000E-003	Capacity (A-hr)
CELLTYPE	SELECTOR	1	&Cell Type
WORKINGCONNECTION	SELECTOR	0	&Working Lead
MAXCHARGETIME	VARIABLEANDUNITS	1.00000E+002	s	1.00000E+002	second(s)	Max &Charge Time
CHARGECURRENT	QUANT	1.00000E-004	&Charge Current (A) 
VOLTAGEFINISH	TWOPARAM	F	1.00000E-003	3.60000E+003	&Voltage Finish	 I (A) < 	Max Time(s)
SAMPLETIME	QUANT	1.00000E-002	Sa&mple Period (s)
CHARGESTOPAT1	MULTIPARAM	4	1.00000E+000	Charge Stop At &1	Voltage > Limit	V
CHARGESTOPAT2	MULTIPARAM	0	0.00000E+000	Charge Stop At &2	None	N/A
AESBHCSELECTOR	TOGGLE	F	Save Both Half Cells
IRCOMP	TOGGLE	F	IR &Measure
EOC	QUANT	0	Open Circuit (V)
SEQUENCER	TOGGLE	TRUE	Run as Sequence
PSTATMODEL	IQUANT	53	Pstat Model
PSTATSECTION	LABEL	IFC5000-01520	Pstat Section
PSTATSERIALNO	LABEL	01520	Pstat Serial Number
CTRLMODE	IQUANT	0	Control Mode
ELECTROMETER	IQUANT	1	RE=0 or CS=1
IESTAB	IQUANT	0	I/E Stability
CASPEED	IQUANT	4	Control Amp Speed
CONVENTION	IQUANT	1	Current Convention
ICHRANGE	IQUANT	2	Ich Range
ICHRANGEMODE	TOGGLE	T	Ich Auto Range
ICHOFFSETENABLE	TOGGLE	F	Ich Offset Enable
ICHOFFSET	QUANT	0	Ich Offset (V)
ICHFILTER	IQUANT	1	Ich Filter
VCHRANGE	IQUANT	2	Vch Range
VCHRANGEMODE	TOGGLE	T	Vch Auto Range
VCHOFFSETENABLE	TOGGLE	F	Vch Offset Enable
VCHOFFSET	QUANT	0	Vch Offset (V)
VCHFILTER	IQUANT	1	Vch Filter
IERANGELOWERLIMIT	IQUANT	9	I/E Range Lower Limit
IERANGEMODE	TOGGLE	F	I/E AutoRange
IERANGE	IQUANT	9	I/E Range
ACHSELECT	IQUANT	1	Ach Select
ACHRANGE	IQUANT	2	Ach Range
ACHOFFSETENABLE	TOGGLE	F	Ach Offset Enable
ACHOFFSET	QUANT	0	Ach Offset (V)
ACHFILTER	IQUANT	1	Ach Filter
CABLEID	IQUANT	14	Cable ID
DCCALDATE	LABEL	5-7-2017	DC Calibration Date
ACCALDATE	LABEL	12/3/2015	AC Calibration Date
FRAMEWORKVERSION	QUANT	7.01	Framework Version
INSTRUMENTVERSION	LABEL	4.00	Instrument Version
CURVE	TABLE	77
	Pt	T	Vf	Im	Vu	Pwr	Sig	Ach	Temp	IERange	Over
	#	s	V	A	V	W	V	V	deg C	#	bits
	0	0.013333	2.62305E-001	1.02273E-004	0.00000E+000	2.68268E-005	5.99601E-002	2.62380E-001	3.57690E+000	9	...........
	1	0.026667	2.85042E-001	1.00798E-004	0.00000E+000	2.87317E-005	5.99601E-002	2.85104E-001	3.57690E+000	9	...........
	2	0.04	3.06386E-001	1.01574E-004	0.00000E+000	3.11209E-005	5.99601E-002	3.06452E-001	3.57690E+000	9	...........
	3	0.053333	3.26704E-001	1.01541E-004	0.00000E+000	3.31738E-005	5.99601E-002	3.26775E-001	3.57690E+000	9	...........
	4	0.066667	3.46205E-001	1.00799E-004	0.00000E+000	3.48971E-005	5.99601E-002	3.46278E-001	3.57690E+000	9	...........
	5	0.08	3.65030E-001	1.00079E-004	0.00000E+000	3.65318E-005	5.99601E-002	3.65106E-001	3.57690E+000	9	...........
	6	0.093333	3.83263E-001	1.00847E-004	0.00000E+000	3.86510E-005	5.99601E-002	3.83346E-001	3.57690E+000	9	...........
	7	0.106667	4.00991E-001	1.00906E-004	0.00000E+000	4.04626E-005	5.99601E-002	4.01073E-001	3.57690E+000	9	...........
	8	0.12	4.18251E-001	1.02422E-004	0.00000E+000	4.28382E-005	5.99601E-002	4.18342E-001	3.57690E+000	9	...........
	9	0.133333	4.35074E-001	1.00718E-004	0.00000E+000	4.38197E-005	5.99601E-002	4.35173E-001	3.57690E+000	9	...........
	10	0.146667	4.51512E-001	1.01811E-004	0.00000E+000	4.59687E-005	5.99601E-002	4.51612E-001	3.57690E+000	9	...........
	11	0.16	4.67572E-001	1.00464E-004	0.00000E+000	4.69739E-005	5.99601E-002	4.67670E-001	3.57690E+000	9	...........
	12	0.173333	4.83283E-001	1.00231E-004	0.00000E+000	4.84400E-005	5.99601E-002	4.83389E-001	3.57690E+000	9	...........
	13	0.186667	4.98653E-001	1.01072E-004	0.00000E+000	5.03999E-005	5.99601E-002	4.98768E-001	3.57690E+000	9	...........
	14	0.2	5.13705E-001	1.01632E-004	0.00000E+000	5.22086E-005	5.99601E-002	5.13817E-001	3.57690E+000	9	...........
	15	0.213333	5.28443E-001	1.02185E-004	0.00000E+000	5.39989E-005	5.99601E-002	5.28533E-001	3.57690E+000	9	...........
	16	0.226667	5.42558E-001	1.01416E-004	0.00000E+000	5.50240E-005	5.99601E-002	5.42769E-001	3.57690E+000	9	...........
	17	0.24	5.56715E-001	1.00648E-004	0.00000E+000	5.60322E-005	5.99601E-002	5.56934E-001	3.57690E+000	9	...........
	18	0.253333	5.70591E-001	1.01203E-004	0.00000E+000	5.77457E-005	5.99601E-002	5.70801E-001	3.57690E+000	9	...........
	19	0.266667	5.84147E-001	1.01736E-004	0.00000E+000	5.94286E-005	5.99601E-002	5.84390E-001	3.57690E+000	9	...........
	20	0.28	5.97465E-001	1.00783E-004	0.00000E+000	6.02145E-005	5.99601E-002	5.97735E-001	3.57690E+000	9	...........
	21	0.293333	6.10495E-001	9.98405E-005	0.00000E+000	6.09521E-005	5.99601E-002	6.10758E-001	3.57690E+000	9	...........
	22	0.306667	6.23309E-001	1.01193E-004	0.00000E+000	6.30745E-005	5.99601E-002	6.23527E-001	3.57690E+000	9	...........
	23	0.32	6.35823E-001	1.01217E-004	0.00000E+000	6.43560E-005	5.99601E-002	6.36044E-001	3.57690E+000	9	...........
	24	0.333333	6.48066E-001	1.01557E-004	0.00000E+000	6.58153E-005	5.99601E-002	6.48324E-001	3.57690E+000	9	...........
	25	0.346667	6.60079E-001	1.00012E-004	0.00000E+000	6.60161E-005	5.99601E-002	6.60322E-001	3.57690E+000	9	...........
	26	0.36	6.71845E-001	1.01000E-004	0.00000E+000	6.78564E-005	5.99601E-002	6.72067E-001	3.57690E+000	9	...........
	27	0.373333	6.83315E-001	1.00601E-004	0.00000E+000	6.87423E-005	5.99601E-002	6.83567E-001	3.57690E+000	9	...........
	28	0.386667	6.94563E-001	1.00943E-004	0.00000E+000	7.01112E-005	5.99601E-002	6.94819E-001	3.57690E+000	9	...........
	29	0.4	7.05527E-001	1.01161E-004	0.00000E+000	7.13715E-005	5.99601E-002	7.05809E-001	3.57690E+000	9	...........
	30	0.413333	7.16272E-001	1.00060E-004	0.00000E+000	7.16705E-005	5.99601E-002	7.16541E-001	3.57690E+000	9	...........
	31	0.426667	7.26784E-001	1.00707E-004	0.00000E+000	7.31925E-005	5.99601E-002	7.27064E-001	3.57690E+000	9	...........
	32	0.44	7.37001E-001	1.00147E-004	0.00000E+000	7.38083E-005	5.99601E-002	7.37285E-001	3.57690E+000	9	...........
	33	0.453333	7.47051E-001	1.00915E-004	0.00000E+000	7.53885E-005	5.99601E-002	7.47301E-001	3.57690E+000	9	...........
	34	0.466667	7.56829E-001	1.01259E-004	0.00000E+000	7.66353E-005	5.99601E-002	7.57101E-001	3.57690E+000	9	...........
	35	0.48	7.66313E-001	1.02094E-004	0.00000E+000	7.82361E-005	5.99601E-002	7.66626E-001	3.57690E+000	9	...........
	36	0.493333	7.75603E-001	9.96676E-005	0.00000E+000	7.73025E-005	5.99601E-002	7.75892E-001	3.57690E+000	9	...........
	37	0.506667	7.84648E-001	1.01619E-004	0.00000E+000	7.97351E-005	5.99601E-002	7.84936E-001	3.57690E+000	9	...........
	38	0.52	7.93473E-001	9.98916E-005	0.00000E+000	7.92613E-005	5.99601E-002	7.93755E-001	3.57690E+000	9	...........
	39	0.533333	8.02049E-001	1.00978E-004	0.00000E+000	8.09895E-005	5.99601E-002	8.02317E-001	3.57690E+000	9	...........
	40	0.546667	8.10373E-001	1.01072E-004	0.00000E+000	8.19061E-005	5.99601E-002	8.10661E-001	3.57690E+000	9	...........
	41	0.56	8.18484E-001	1.01004E-004	0.00000E+000	8.26704E-005	5.99601E-002	8.18796E-001	3.57690E+000	9	...........
	42	0.573333	8.26374E-001	1.01151E-004	0.00000E+000	8.35888E-005	5.99601E-002	8.26667E-001	3.57690E+000	9	...........
	43	0.586667	8.34027E-001	1.01287E-004	0.00000E+000	8.44758E-005	5.99601E-002	8.34357E-001	3.57690E+000	9	...........
	44	0.6	8.41454E-001	1.00137E-004	0.00000E+000	8.42610E-005	5.99601E-002	8.41789E-001	3.57690E+000	9	...........
	45	0.613333	8.48720E-001	1.00178E-004	0.00000E+000	8.50232E-005	5.99601E-002	8.49029E-001	3.57690E+000	9	...........
	46	0.626667	8.55700E-001	1.00493E-004	0.00000E+000	8.59917E-005	5.99601E-002	8.56027E-001	3.57690E+000	9	...........
	47	0.64	8.62508E-001	1.01216E-004	0.00000E+000	8.72994E-005	5.99601E-002	8.62819E-001	3.57690E+000	9	...........
	48	0.653333	8.69114E-001	1.00290E-004	0.00000E+000	8.71631E-005	5.99601E-002	8.69422E-001	3.57690E+000	9	...........
	49	0.666667	8.75493E-001	1.01733E-004	0.00000E+000	8.90661E-005	5.99601E-002	8.75827E-001	3.57781E+000	9	...........
	50	0.68	8.81702E-001	1.02669E-004	0.00000E+000	9.05237E-005	5.99601E-002	8.82027E-001	3.57830E+000	9	...........
	51	0.693333	8.87726E-001	1.00862E-004	0.00000E+000	8.95374E-005	5.99601E-002	8.88042E-001	3.57830E+000	9	...........
	52	0.706667	8.93528E-001	1.01307E-004	0.00000E+000	9.05211E-005	5.99601E-002	8.93889E-001	3.57830E+000	9	...........
	53	0.72	8.99204E-001	1.01356E-004	0.00000E+000	9.11401E-005	5.99601E-002	8.99552E-001	3.57830E+000	9	...........
	54	0.733333	9.04685E-001	1.00381E-004	0.00000E+000	9.08134E-005	5.99601E-002	9.05053E-001	3.57830E+000	9	...........
	55	0.746667	9.10058E-001	1.01313E-004	0.00000E+000	9.22004E-005	5.99601E-002	9.10383E-001	3.57830E+000	9	...........
	56	0.76	9.15286E-001	1.01216E-004	0.00000E+000	9.26414E-005	5.99601E-002	9.15602E-001	3.57830E+000	9	...........
	57	0.773333	9.20373E-001	1.00917E-004	0.00000E+000	9.28811E-005	5.99601E-002	9.20688E-001	3.57830E+000	9	...........
	58	0.786667	9.25366E-001	1.01046E-004	0.00000E+000	9.35045E-005	5.99601E-002	9.25663E-001	3.57830E+000	9	...........
	59	0.8	9.30199E-001	1.00469E-004	0.00000E+000	9.34560E-005	5.99601E-002	9.30492E-001	3.57830E+000	9	...........
	60	0.813333	9.34917E-001	9.98239E-005	0.00000E+000	9.33270E-005	5.99601E-002	9.35237E-001	3.57830E+000	9	...........
	61	0.826667	9.39555E-001	1.00940E-004	0.00000E+000	9.48384E-005	5.99601E-002	9.39859E-001	3.57830E+000	9	...........
	62	0.84	9.44075E-001	1.00602E-004	0.00000E+000	9.49760E-005	5.99601E-002	9.44410E-001	3.57830E+000	9	...........
	63	0.853333	9.48577E-001	1.01337E-004	0.00000E+000	9.61256E-005	5.99601E-002	9.48885E-001	3.57830E+000	9	...........
	64	0.866667	9.52936E-001	1.01091E-004	0.00000E+000	9.63331E-005	5.99601E-002	9.53236E-001	3.57830E+000	9	...........
	65	0.88	9.57218E-001	1.00766E-004	0.00000E+000	9.64547E-005	5.99601E-002	9.57494E-001	3.57830E+000	9	...........
	66	0.893333	9.61416E-001	1.02182E-004	0.00000E+000	9.82390E-005	5.99601E-002	9.61730E-001	3.57830E+000	9	...........
	67	0.906667	9.65512E-001	1.00112E-004	0.00000E+000	9.66598E-005	5.99601E-002	9.65856E-001	3.57830E+000	9	...........
	68	0.92	9.69551E-001	1.01263E-004	0.00000E+000	9.81793E-005	5.99601E-002	9.69929E-001	3.57830E+000	9	...........
	69	0.933333	9.73574E-001	1.00633E-004	0.00000E+000	9.79740E-005	5.99601E-002	9.73915E-001	3.57830E+000	9	...........
	70	0.946667	9.77468E-001	1.02543E-004	0.00000E+000	1.00233E-004	5.99601E-002	9.77808E-001	3.57830E+000	9	...........
	71	0.96	9.81287E-001	1.00727E-004	0.00000E+000	9.88422E-005	5.99601E-002	9.81619E-001	3.57830E+000	9	...........
	72	0.97333	9.85008E-001	1.02131E-004	0.00000E+000	1.00599E-004	5.99601E-002	9.85366E-001	3.57830E+000	9	...........
	73	0.98667	9.88669E-001	1.01802E-004	0.00000E+000	1.00649E-004	5.99601E-002	9.89040E-001	3.57830E+000	9	...........
	74	1	9.92228E-001	1.00784E-004	0.00000E+000	1.00001E-004	5.99601E-002	9.92577E-001	3.57830E+000	9	...........
	75	1.01333	9.95721E-001	1.01394E-004	0.00000E+000	1.00960E-004	5.99601E-002	9.96074E-001	3.57830E+000	9	...........
	76	1.025	9.98944E-001	1.02669E-004	0.00000E+000	1.02560E-004	5.99601E-002	9.99305E-001	3.57830E+000	9	...........
STARTTIMEOFFSET	QUANT	620.3583	Start Time Offset (s)
