EXPLAIN
TAG	PWR800_CHARGE
TITLE	LABEL	PWR Cyclic Charge Discharge (Cell) - Charge Step	Test &Identifier
DATE	LABEL	12-7-2017	Date
TIME	LABEL	16:23:47	Time
NOTES	NOTES	2	&Notes...
	supercap test cell
	6M KOH
PSTAT	PSTAT	IFC5000-01520	Potentiostat
CAPACITY	QUANT	1.00000E-003	Capacity (A-hr)
CELLTYPE	SELECTOR	1	&Cell Type
WORKINGCONNECTION	SELECTOR	0	&Working Lead
MAXCHARGETIME	VARIABLEANDUNITS	1.00000E+002	s	1.00000E+002	second(s)	Max &Charge Time
CHARGECURRENT	QUANT	1.00000E-004	&Charge Current (A) 
VOLTAGEFINISH	TWOPARAM	F	1.00000E-003	3.60000E+003	&Voltage Finish	 I (A) < 	Max Time(s)
SAMPLETIME	QUANT	1.00000E-002	Sa&mple Period (s)
CHARGESTOPAT1	MULTIPARAM	4	1.00000E+000	Charge Stop At &1	Voltage > Limit	V
CHARGESTOPAT2	MULTIPARAM	0	0.00000E+000	Charge Stop At &2	None	N/A
AESBHCSELECTOR	TOGGLE	F	Save Both Half Cells
IRCOMP	TOGGLE	F	IR &Measure
EOC	QUANT	0	Open Circuit (V)
SEQUENCER	TOGGLE	TRUE	Run as Sequence
PSTATMODEL	IQUANT	53	Pstat Model
PSTATSECTION	LABEL	IFC5000-01520	Pstat Section
PSTATSERIALNO	LABEL	01520	Pstat Serial Number
CTRLMODE	IQUANT	0	Control Mode
ELECTROMETER	IQUANT	1	RE=0 or CS=1
IESTAB	IQUANT	0	I/E Stability
CASPEED	IQUANT	4	Control Amp Speed
CONVENTION	IQUANT	1	Current Convention
ICHRANGE	IQUANT	2	Ich Range
ICHRANGEMODE	TOGGLE	T	Ich Auto Range
ICHOFFSETENABLE	TOGGLE	F	Ich Offset Enable
ICHOFFSET	QUANT	0	Ich Offset (V)
ICHFILTER	IQUANT	1	Ich Filter
VCHRANGE	IQUANT	2	Vch Range
VCHRANGEMODE	TOGGLE	T	Vch Auto Range
VCHOFFSETENABLE	TOGGLE	F	Vch Offset Enable
VCHOFFSET	QUANT	0	Vch Offset (V)
VCHFILTER	IQUANT	1	Vch Filter
IERANGELOWERLIMIT	IQUANT	9	I/E Range Lower Limit
IERANGEMODE	TOGGLE	F	I/E AutoRange
IERANGE	IQUANT	9	I/E Range
ACHSELECT	IQUANT	1	Ach Select
ACHRANGE	IQUANT	2	Ach Range
ACHOFFSETENABLE	TOGGLE	F	Ach Offset Enable
ACHOFFSET	QUANT	0	Ach Offset (V)
ACHFILTER	IQUANT	1	Ach Filter
CABLEID	IQUANT	14	Cable ID
DCCALDATE	LABEL	5-7-2017	DC Calibration Date
ACCALDATE	LABEL	12/3/2015	AC Calibration Date
FRAMEWORKVERSION	QUANT	7.01	Framework Version
INSTRUMENTVERSION	LABEL	4.00	Instrument Version
CURVE	TABLE	78
	Pt	T	Vf	Im	Vu	Pwr	Sig	Ach	Temp	IERange	Over
	#	s	V	A	V	W	V	V	deg C	#	bits
	0	0.013333	2.58220E-001	1.00962E-004	0.00000E+000	2.60703E-005	5.99601E-002	2.58280E-001	3.57830E+000	9	...........
	1	0.026667	2.81103E-001	1.00151E-004	0.00000E+000	2.81528E-005	5.99601E-002	2.81159E-001	3.57830E+000	9	...........
	2	0.04	3.02552E-001	1.00942E-004	0.00000E+000	3.05401E-005	5.99601E-002	3.02609E-001	3.57830E+000	9	...........
	3	0.053333	3.22963E-001	1.00646E-004	0.00000E+000	3.25049E-005	5.99601E-002	3.23027E-001	3.57830E+000	9	...........
	4	0.066667	3.42539E-001	1.01329E-004	0.00000E+000	3.47093E-005	5.99601E-002	3.42606E-001	3.57830E+000	9	...........
	5	0.08	3.61422E-001	1.00723E-004	0.00000E+000	3.64035E-005	5.99601E-002	3.61502E-001	3.57830E+000	9	...........
	6	0.093333	3.79718E-001	1.01223E-004	0.00000E+000	3.84363E-005	5.99601E-002	3.79793E-001	3.57830E+000	9	...........
	7	0.106667	3.97496E-001	1.01343E-004	0.00000E+000	4.02834E-005	5.99601E-002	3.97577E-001	3.57830E+000	9	...........
	8	0.12	4.14796E-001	1.01274E-004	0.00000E+000	4.20081E-005	5.99601E-002	4.14887E-001	3.57830E+000	9	...........
	9	0.133333	4.31663E-001	1.01104E-004	0.00000E+000	4.36430E-005	5.99601E-002	4.31762E-001	3.57830E+000	9	...........
	10	0.146667	4.48135E-001	1.02380E-004	0.00000E+000	4.58799E-005	5.99601E-002	4.48234E-001	3.57830E+000	9	...........
	11	0.16	4.64237E-001	1.02476E-004	0.00000E+000	4.75734E-005	5.99601E-002	4.64334E-001	3.57830E+000	9	...........
	12	0.173333	4.79977E-001	1.00172E-004	0.00000E+000	4.80802E-005	5.99601E-002	4.80082E-001	3.57830E+000	9	...........
	13	0.186667	4.95379E-001	1.00510E-004	0.00000E+000	4.97908E-005	5.99601E-002	4.95491E-001	3.57830E+000	9	...........
	14	0.2	5.10453E-001	1.01250E-004	0.00000E+000	5.16835E-005	5.99601E-002	5.10572E-001	3.57830E+000	9	...........
	15	0.213333	5.25227E-001	1.00791E-004	0.00000E+000	5.29380E-005	5.99601E-002	5.25343E-001	3.57830E+000	9	...........
	16	0.226667	5.39428E-001	1.00936E-004	0.00000E+000	5.44475E-005	5.99601E-002	5.39644E-001	3.57830E+000	9	...........
	17	0.24	5.53561E-001	1.00914E-004	0.00000E+000	5.58619E-005	5.99601E-002	5.53820E-001	3.57830E+000	9	...........
	18	0.253333	5.67486E-001	1.00938E-004	0.00000E+000	5.72807E-005	5.99601E-002	5.67735E-001	3.57830E+000	9	...........
	19	0.266667	5.81080E-001	1.00768E-004	0.00000E+000	5.85541E-005	5.99601E-002	5.81347E-001	3.57830E+000	9	...........
	20	0.28	5.94442E-001	1.02350E-004	0.00000E+000	6.08414E-005	5.99601E-002	5.94703E-001	3.57830E+000	9	...........
	21	0.293333	6.07485E-001	1.00641E-004	0.00000E+000	6.11377E-005	5.99601E-002	6.07750E-001	3.57830E+000	9	...........
	22	0.306667	6.20367E-001	1.00177E-004	0.00000E+000	6.21465E-005	5.99601E-002	6.20576E-001	3.57830E+000	9	...........
	23	0.32	6.32897E-001	1.00898E-004	0.00000E+000	6.38580E-005	5.99601E-002	6.33131E-001	3.57830E+000	9	...........
	24	0.333333	6.45229E-001	9.96717E-005	0.00000E+000	6.43111E-005	5.99601E-002	6.45461E-001	3.57830E+000	9	...........
	25	0.346667	6.57249E-001	1.01446E-004	0.00000E+000	6.66754E-005	5.99601E-002	6.57492E-001	3.57830E+000	9	...........
	26	0.36	6.69057E-001	1.01868E-004	0.00000E+000	6.81556E-005	5.99601E-002	6.69299E-001	3.57830E+000	9	...........
	27	0.373333	6.80579E-001	1.00468E-004	0.00000E+000	6.83762E-005	5.99601E-002	6.80839E-001	3.57830E+000	9	...........
	28	0.386667	6.91878E-001	1.01279E-004	0.00000E+000	7.00730E-005	5.99601E-002	6.92137E-001	3.57830E+000	9	...........
	29	0.4	7.02914E-001	1.01070E-004	0.00000E+000	7.10434E-005	5.99601E-002	7.03163E-001	3.57830E+000	9	...........
	30	0.413333	7.13710E-001	1.01155E-004	0.00000E+000	7.21956E-005	5.99601E-002	7.13975E-001	3.57830E+000	9	...........
	31	0.426667	7.24288E-001	1.00707E-004	0.00000E+000	7.29411E-005	5.99601E-002	7.24541E-001	3.57830E+000	9	...........
	32	0.44	7.34573E-001	1.01278E-004	0.00000E+000	7.43963E-005	5.99601E-002	7.34830E-001	3.57830E+000	9	...........
	33	0.453333	7.44623E-001	1.01865E-004	0.00000E+000	7.58509E-005	5.99601E-002	7.44898E-001	3.57830E+000	9	...........
	34	0.466667	7.54450E-001	1.01330E-004	0.00000E+000	7.64488E-005	5.99601E-002	7.54725E-001	3.57830E+000	9	...........
	35	0.48	7.64045E-001	1.01767E-004	0.00000E+000	7.77545E-005	5.99601E-002	7.64300E-001	3.57830E+000	9	...........
	36	0.493333	7.73392E-001	1.00539E-004	0.00000E+000	7.77558E-005	5.99601E-002	7.73644E-001	3.57730E+000	9	...........
	37	0.506667	7.82499E-001	1.00420E-004	0.00000E+000	7.85784E-005	5.99601E-002	7.82741E-001	3.57730E+000	9	...........
	38	0.52	7.91388E-001	1.01350E-004	0.00000E+000	8.02073E-005	5.99601E-002	7.91656E-001	3.57730E+000	9	...........
	39	0.533333	8.00032E-001	1.00746E-004	0.00000E+000	8.06000E-005	5.99601E-002	8.00295E-001	3.57730E+000	9	...........
	40	0.546667	8.08421E-001	1.00994E-004	0.00000E+000	8.16456E-005	5.99601E-002	8.08697E-001	3.57730E+000	9	...........
	41	0.56	8.16598E-001	9.94175E-005	0.00000E+000	8.11842E-005	5.99601E-002	8.16905E-001	3.57730E+000	9	...........
	42	0.573333	8.24569E-001	1.02355E-004	0.00000E+000	8.43984E-005	5.99601E-002	8.24877E-001	3.57730E+000	9	...........
	43	0.586667	8.32308E-001	1.01609E-004	0.00000E+000	8.45696E-005	5.99601E-002	8.32593E-001	3.57730E+000	9	...........
	44	0.6	8.39771E-001	1.00945E-004	0.00000E+000	8.47706E-005	5.99601E-002	8.40115E-001	3.57730E+000	9	...........
	45	0.613333	8.47099E-001	1.00380E-004	0.00000E+000	8.50320E-005	5.99601E-002	8.47418E-001	3.57730E+000	9	...........
	46	0.626667	8.54168E-001	1.00728E-004	0.00000E+000	8.60389E-005	5.99601E-002	8.54484E-001	3.57730E+000	9	...........
	47	0.64	8.61042E-001	1.00901E-004	0.00000E+000	8.68801E-005	5.99601E-002	8.61381E-001	3.57730E+000	9	...........
	48	0.653333	8.67710E-001	1.01185E-004	0.00000E+000	8.77988E-005	5.99601E-002	8.68033E-001	3.57730E+000	9	...........
	49	0.666667	8.74157E-001	1.00816E-004	0.00000E+000	8.81288E-005	5.99601E-002	8.74513E-001	3.57730E+000	9	...........
	50	0.68	8.80413E-001	9.99666E-005	0.00000E+000	8.80119E-005	5.99601E-002	8.80756E-001	3.57730E+000	9	...........
	51	0.693333	8.86487E-001	1.00841E-004	0.00000E+000	8.93939E-005	5.99601E-002	8.86813E-001	3.57730E+000	9	...........
	52	0.706667	8.92365E-001	1.00689E-004	0.00000E+000	8.98510E-005	5.99601E-002	8.92672E-001	3.57730E+000	9	...........
	53	0.72	8.98100E-001	1.00712E-004	0.00000E+000	9.04490E-005	5.99601E-002	8.98420E-001	3.57730E+000	9	...........
	54	0.733333	9.03625E-001	1.02140E-004	0.00000E+000	9.22963E-005	5.99601E-002	9.03978E-001	3.57730E+000	9	...........
	55	0.746667	9.09031E-001	1.00663E-004	0.00000E+000	9.15054E-005	5.99601E-002	9.09364E-001	3.57730E+000	9	...........
	56	0.76	9.14276E-001	1.00484E-004	0.00000E+000	9.18704E-005	5.99601E-002	9.14619E-001	3.57730E+000	9	...........
	57	0.773333	9.19411E-001	9.97947E-005	0.00000E+000	9.17524E-005	5.99601E-002	9.19754E-001	3.57730E+000	9	...........
	58	0.786667	9.24437E-001	1.00568E-004	0.00000E+000	9.29685E-005	5.99601E-002	9.24747E-001	3.57730E+000	9	...........
	59	0.8	9.29292E-001	1.01144E-004	0.00000E+000	9.39923E-005	5.99601E-002	9.29620E-001	3.57730E+000	9	...........
	60	0.813333	9.34042E-001	1.01506E-004	0.00000E+000	9.48113E-005	5.99601E-002	9.34407E-001	3.57730E+000	9	...........
	61	0.826667	9.38707E-001	1.01400E-004	0.00000E+000	9.51851E-005	5.99601E-002	9.39073E-001	3.57730E+000	9	...........
	62	0.84	9.43264E-001	1.00816E-004	0.00000E+000	9.50958E-005	5.99601E-002	9.43603E-001	3.57730E+000	9	...........
	63	0.853333	9.47740E-001	1.01502E-004	0.00000E+000	9.61979E-005	5.99601E-002	9.48089E-001	3.57730E+000	9	...........
	64	0.866667	9.52128E-001	1.01126E-004	0.00000E+000	9.62851E-005	5.99601E-002	9.52458E-001	3.57730E+000	9	...........
	65	0.88	9.56430E-001	1.01863E-004	0.00000E+000	9.74247E-005	5.99601E-002	9.56760E-001	3.57730E+000	9	...........
	66	0.893333	9.60649E-001	1.01161E-004	0.00000E+000	9.71798E-005	5.99601E-002	9.60995E-001	3.57730E+000	9	...........
	67	0.906667	9.64783E-001	1.01267E-004	0.00000E+000	9.77006E-005	5.99601E-002	9.65144E-001	3.57730E+000	9	...........
	68	0.92	9.68833E-001	9.96947E-005	0.00000E+000	9.65875E-005	5.99601E-002	9.69205E-001	3.57730E+000	9	...........
	69	0.933333	9.72863E-001	1.01886E-004	0.00000E+000	9.91209E-005	5.99601E-002	9.73217E-001	3.57730E+000	9	...........
	70	0.946667	9.76774E-001	1.00232E-004	0.00000E+000	9.79042E-005	5.99601E-002	9.77111E-001	3.57730E+000	9	...........
	71	0.96	9.80590E-001	1.01014E-004	0.00000E+000	9.90530E-005	5.99601E-002	9.80940E-001	3.57730E+000	9	...........
	72	0.97333	9.84320E-001	1.00881E-004	0.00000E+000	9.92996E-005	5.99601E-002	9.84704E-001	3.57730E+000	9	...........
	73	0.98667	9.87985E-001	1.01300E-004	0.00000E+000	1.00083E-004	5.99601E-002	9.88355E-001	3.57730E+000	9	...........
	74	1	9.91549E-001	1.00597E-004	0.00000E+000	9.97468E-005	5.99601E-002	9.91936E-001	3.57730E+000	9	...........
	75	1.01333	9.95048E-001	1.00588E-004	0.00000E+000	1.00089E-004	5.99601E-002	9.95425E-001	3.57730E+000	9	...........
	76	1.02667	9.98480E-001	1.01256E-004	0.00000E+000	1.01103E-004	5.99601E-002	9.98857E-001	3.57730E+000	9	...........
	77	1.02833	1.00038E+000	1.02723E-004	0.00000E+000	1.02762E-004	5.99601E-002	1.00073E+000	3.57730E+000	9	...........
STARTTIMEOFFSET	QUANT	586.8216	Start Time Offset (s)
