EXPLAIN
TAG	PWR800_CHARGE
TITLE	LABEL	PWR Cyclic Charge Discharge (Cell) - Charge Step	Test &Identifier
DATE	LABEL	12-7-2017	Date
TIME	LABEL	16:48:27	Time
NOTES	NOTES	2	&Notes...
	supercap test cell
	6M KOH
PSTAT	PSTAT	IFC5000-01520	Potentiostat
CAPACITY	QUANT	1.00000E-003	Capacity (A-hr)
CELLTYPE	SELECTOR	1	&Cell Type
WORKINGCONNECTION	SELECTOR	0	&Working Lead
MAXCHARGETIME	VARIABLEANDUNITS	1.00000E+002	s	1.00000E+002	second(s)	Max &Charge Time
CHARGECURRENT	QUANT	1.00000E-004	&Charge Current (A) 
VOLTAGEFINISH	TWOPARAM	F	1.00000E-003	3.60000E+003	&Voltage Finish	 I (A) < 	Max Time(s)
SAMPLETIME	QUANT	1.00000E-002	Sa&mple Period (s)
CHARGESTOPAT1	MULTIPARAM	4	1.00000E+000	Charge Stop At &1	Voltage > Limit	V
CHARGESTOPAT2	MULTIPARAM	0	0.00000E+000	Charge Stop At &2	None	N/A
AESBHCSELECTOR	TOGGLE	F	Save Both Half Cells
IRCOMP	TOGGLE	F	IR &Measure
EOC	QUANT	0	Open Circuit (V)
SEQUENCER	TOGGLE	TRUE	Run as Sequence
PSTATMODEL	IQUANT	53	Pstat Model
PSTATSECTION	LABEL	IFC5000-01520	Pstat Section
PSTATSERIALNO	LABEL	01520	Pstat Serial Number
CTRLMODE	IQUANT	0	Control Mode
ELECTROMETER	IQUANT	1	RE=0 or CS=1
IESTAB	IQUANT	0	I/E Stability
CASPEED	IQUANT	4	Control Amp Speed
CONVENTION	IQUANT	1	Current Convention
ICHRANGE	IQUANT	2	Ich Range
ICHRANGEMODE	TOGGLE	T	Ich Auto Range
ICHOFFSETENABLE	TOGGLE	F	Ich Offset Enable
ICHOFFSET	QUANT	0	Ich Offset (V)
ICHFILTER	IQUANT	1	Ich Filter
VCHRANGE	IQUANT	2	Vch Range
VCHRANGEMODE	TOGGLE	T	Vch Auto Range
VCHOFFSETENABLE	TOGGLE	F	Vch Offset Enable
VCHOFFSET	QUANT	0	Vch Offset (V)
VCHFILTER	IQUANT	1	Vch Filter
IERANGELOWERLIMIT	IQUANT	9	I/E Range Lower Limit
IERANGEMODE	TOGGLE	F	I/E AutoRange
IERANGE	IQUANT	9	I/E Range
ACHSELECT	IQUANT	1	Ach Select
ACHRANGE	IQUANT	2	Ach Range
ACHOFFSETENABLE	TOGGLE	F	Ach Offset Enable
ACHOFFSET	QUANT	0	Ach Offset (V)
ACHFILTER	IQUANT	1	Ach Filter
CABLEID	IQUANT	14	Cable ID
DCCALDATE	LABEL	5-7-2017	DC Calibration Date
ACCALDATE	LABEL	12/3/2015	AC Calibration Date
FRAMEWORKVERSION	QUANT	7.01	Framework Version
INSTRUMENTVERSION	LABEL	4.00	Instrument Version
CURVE	TABLE	75
	Pt	T	Vf	Im	Vu	Pwr	Sig	Ach	Temp	IERange	Over
	#	s	V	A	V	W	V	V	deg C	#	bits
	0	0.013333	2.59834E-001	1.01638E-004	0.00000E+000	2.64090E-005	5.99601E-002	2.59913E-001	3.57790E+000	9	...........
	1	0.026667	2.82904E-001	1.01584E-004	0.00000E+000	2.87384E-005	5.99601E-002	2.82966E-001	3.57790E+000	9	...........
	2	0.04	3.04722E-001	1.01447E-004	0.00000E+000	3.09131E-005	5.99601E-002	3.04789E-001	3.57790E+000	9	...........
	3	0.053333	3.25647E-001	1.01341E-004	0.00000E+000	3.30013E-005	5.99601E-002	3.25711E-001	3.57790E+000	9	...........
	4	0.066667	3.45833E-001	1.00054E-004	0.00000E+000	3.46020E-005	5.99601E-002	3.45904E-001	3.57790E+000	9	...........
	5	0.08	3.65431E-001	1.00099E-004	0.00000E+000	3.65792E-005	5.99601E-002	3.65503E-001	3.57790E+000	9	...........
	6	0.093333	3.84505E-001	1.01543E-004	0.00000E+000	3.90438E-005	5.99601E-002	3.84580E-001	3.57790E+000	9	...........
	7	0.106667	4.03099E-001	1.01355E-004	0.00000E+000	4.08562E-005	5.99601E-002	4.03183E-001	3.57790E+000	9	...........
	8	0.12	4.21257E-001	1.01714E-004	0.00000E+000	4.28477E-005	5.99601E-002	4.21346E-001	3.57790E+000	9	...........
	9	0.133333	4.39006E-001	1.00549E-004	0.00000E+000	4.41417E-005	5.99601E-002	4.39099E-001	3.57790E+000	9	...........
	10	0.146667	4.56366E-001	1.00071E-004	0.00000E+000	4.56689E-005	5.99601E-002	4.56458E-001	3.57790E+000	9	...........
	11	0.16	4.73342E-001	1.00710E-004	0.00000E+000	4.76705E-005	5.99601E-002	4.73441E-001	3.57790E+000	9	...........
	12	0.173333	4.89944E-001	1.00978E-004	0.00000E+000	4.94737E-005	5.99601E-002	4.90046E-001	3.57790E+000	9	...........
	13	0.186667	5.06190E-001	1.01274E-004	0.00000E+000	5.12640E-005	5.99601E-002	5.06295E-001	3.57790E+000	9	...........
	14	0.2	5.22080E-001	1.01790E-004	0.00000E+000	5.31425E-005	5.99601E-002	5.22186E-001	3.57790E+000	9	...........
	15	0.213333	5.37418E-001	1.02007E-004	0.00000E+000	5.48202E-005	5.99601E-002	5.37602E-001	3.57790E+000	9	...........
	16	0.226667	5.52523E-001	1.02526E-004	0.00000E+000	5.66483E-005	5.99601E-002	5.52749E-001	3.57790E+000	9	...........
	17	0.24	5.67396E-001	1.00738E-004	0.00000E+000	5.71581E-005	5.99601E-002	5.67591E-001	3.57790E+000	9	...........
	18	0.253333	5.81899E-001	1.00080E-004	0.00000E+000	5.82365E-005	5.99601E-002	5.82112E-001	3.57790E+000	9	...........
	19	0.266667	5.96087E-001	1.00770E-004	0.00000E+000	6.00676E-005	5.99601E-002	5.96317E-001	3.57790E+000	9	...........
	20	0.28	6.09942E-001	1.01033E-004	0.00000E+000	6.16245E-005	5.99601E-002	6.10167E-001	3.57790E+000	9	...........
	21	0.293333	6.23492E-001	1.00029E-004	0.00000E+000	6.23673E-005	5.99601E-002	6.23721E-001	3.57790E+000	9	...........
	22	0.306667	6.36679E-001	1.01068E-004	0.00000E+000	6.43478E-005	5.99601E-002	6.36917E-001	3.57790E+000	9	...........
	23	0.32	6.49567E-001	1.01736E-004	0.00000E+000	6.60841E-005	5.99601E-002	6.49804E-001	3.57790E+000	9	...........
	24	0.333333	6.62135E-001	1.00411E-004	0.00000E+000	6.64859E-005	5.99601E-002	6.62383E-001	3.57790E+000	9	...........
	25	0.346667	6.74391E-001	1.01268E-004	0.00000E+000	6.82941E-005	5.99601E-002	6.74623E-001	3.57711E+000	9	...........
	26	0.36	6.86306E-001	1.00816E-004	0.00000E+000	6.91905E-005	5.99601E-002	6.86573E-001	3.57710E+000	9	...........
	27	0.373333	6.97953E-001	1.00568E-004	0.00000E+000	7.01916E-005	5.99601E-002	6.98194E-001	3.57710E+000	9	...........
	28	0.386667	7.09259E-001	1.00986E-004	0.00000E+000	7.16249E-005	5.99601E-002	7.09528E-001	3.57710E+000	9	...........
	29	0.4	7.20308E-001	1.00021E-004	0.00000E+000	7.20457E-005	5.99601E-002	7.20573E-001	3.57710E+000	9	...........
	30	0.413333	7.31040E-001	1.01222E-004	0.00000E+000	7.39974E-005	5.99601E-002	7.31308E-001	3.57710E+000	9	...........
	31	0.426667	7.41480E-001	1.01197E-004	0.00000E+000	7.50356E-005	5.99601E-002	7.41748E-001	3.57710E+000	9	...........
	32	0.44	7.51654E-001	1.01254E-004	0.00000E+000	7.61083E-005	5.99601E-002	7.51904E-001	3.57710E+000	9	...........
	33	0.453333	7.61499E-001	1.02556E-004	0.00000E+000	7.80961E-005	5.99601E-002	7.61765E-001	3.57710E+000	9	...........
	34	0.466667	7.71101E-001	1.02475E-004	0.00000E+000	7.90190E-005	5.99601E-002	7.71351E-001	3.57710E+000	9	...........
	35	0.48	7.80406E-001	1.01463E-004	0.00000E+000	7.91821E-005	5.99601E-002	7.80660E-001	3.57710E+000	9	...........
	36	0.493333	7.89467E-001	1.02176E-004	0.00000E+000	8.06649E-005	5.99601E-002	7.89664E-001	3.57710E+000	9	...........
	37	0.506667	7.98230E-001	1.01373E-004	0.00000E+000	8.09191E-005	5.99601E-002	7.98446E-001	3.57710E+000	9	...........
	38	0.52	8.06702E-001	1.00396E-004	0.00000E+000	8.09895E-005	5.99601E-002	8.06941E-001	3.57710E+000	9	...........
	39	0.533333	8.14946E-001	1.01826E-004	0.00000E+000	8.29830E-005	5.99601E-002	8.15207E-001	3.57710E+000	9	...........
	40	0.546667	8.22937E-001	1.01095E-004	0.00000E+000	8.31948E-005	5.99601E-002	8.23228E-001	3.57710E+000	9	...........
	41	0.56	8.30656E-001	1.02142E-004	0.00000E+000	8.48449E-005	5.99601E-002	8.30945E-001	3.57710E+000	9	...........
	42	0.573333	8.38124E-001	1.01367E-004	0.00000E+000	8.49580E-005	5.99601E-002	8.38442E-001	3.57710E+000	9	...........
	43	0.586667	8.45429E-001	1.00915E-004	0.00000E+000	8.53162E-005	5.99601E-002	8.45737E-001	3.57710E+000	9	...........
	44	0.6	8.52455E-001	1.02290E-004	0.00000E+000	8.71976E-005	5.99601E-002	8.52746E-001	3.57710E+000	9	...........
	45	0.613333	8.59268E-001	1.01401E-004	0.00000E+000	8.71308E-005	5.99601E-002	8.59587E-001	3.57710E+000	9	...........
	46	0.626667	8.65839E-001	1.00045E-004	0.00000E+000	8.66226E-005	5.99601E-002	8.66171E-001	3.57710E+000	9	...........
	47	0.64	8.72296E-001	1.00798E-004	0.00000E+000	8.79257E-005	5.99601E-002	8.72611E-001	3.57710E+000	9	...........
	48	0.653333	8.78511E-001	1.00634E-004	0.00000E+000	8.84085E-005	5.99601E-002	8.78816E-001	3.57710E+000	9	...........
	49	0.666667	8.84567E-001	1.00767E-004	0.00000E+000	8.91350E-005	5.99601E-002	8.84908E-001	3.57710E+000	9	...........
	50	0.68	8.90449E-001	1.00115E-004	0.00000E+000	8.91469E-005	5.99601E-002	8.90754E-001	3.57710E+000	9	...........
	51	0.693333	8.96194E-001	1.00223E-004	0.00000E+000	8.98192E-005	5.99601E-002	8.96508E-001	3.57710E+000	9	...........
	52	0.706667	9.01783E-001	1.00646E-004	0.00000E+000	9.07608E-005	5.99601E-002	9.02092E-001	3.57710E+000	9	...........
	53	0.72	9.07253E-001	1.01371E-004	0.00000E+000	9.19692E-005	5.99601E-002	9.07593E-001	3.57710E+000	9	...........
	54	0.733333	9.12599E-001	1.01480E-004	0.00000E+000	9.26109E-005	5.99601E-002	9.12947E-001	3.57710E+000	9	...........
	55	0.746667	9.17859E-001	1.01048E-004	0.00000E+000	9.27479E-005	5.99601E-002	9.18175E-001	3.57710E+000	9	...........
	56	0.76	9.23060E-001	1.00671E-004	0.00000E+000	9.29253E-005	5.99601E-002	9.23323E-001	3.57710E+000	9	...........
	57	0.773333	9.28081E-001	1.01441E-004	0.00000E+000	9.41453E-005	5.99601E-002	9.28373E-001	3.57710E+000	9	...........
	58	0.786667	9.33046E-001	1.00248E-004	0.00000E+000	9.35359E-005	5.99601E-002	9.33322E-001	3.57710E+000	9	...........
	59	0.8	9.37887E-001	1.00922E-004	0.00000E+000	9.46534E-005	5.99601E-002	9.38194E-001	3.57710E+000	9	...........
	60	0.813333	9.42686E-001	1.00456E-004	0.00000E+000	9.46987E-005	5.99601E-002	9.42950E-001	3.57710E+000	9	...........
	61	0.826667	9.47425E-001	1.01174E-004	0.00000E+000	9.58549E-005	5.99601E-002	9.47710E-001	3.57710E+000	9	...........
	62	0.84	9.52063E-001	1.01262E-004	0.00000E+000	9.64075E-005	5.99601E-002	9.52335E-001	3.57710E+000	9	...........
	63	0.853333	9.56617E-001	1.02821E-004	0.00000E+000	9.83607E-005	5.99601E-002	9.56918E-001	3.57710E+000	9	...........
	64	0.866667	9.61099E-001	1.01931E-004	0.00000E+000	9.79654E-005	5.99601E-002	9.61430E-001	3.57710E+000	9	...........
	65	0.88	9.65510E-001	1.00298E-004	0.00000E+000	9.68386E-005	5.99601E-002	9.65831E-001	3.57710E+000	9	...........
	66	0.893333	9.69837E-001	1.02649E-004	0.00000E+000	9.95533E-005	5.99601E-002	9.70183E-001	3.57710E+000	9	...........
	67	0.906667	9.74140E-001	1.02125E-004	0.00000E+000	9.94844E-005	5.99601E-002	9.74469E-001	3.57710E+000	9	...........
	68	0.92	9.78320E-001	1.01326E-004	0.00000E+000	9.91295E-005	5.99601E-002	9.78649E-001	3.57710E+000	9	...........
	69	0.933333	9.82431E-001	1.02081E-004	0.00000E+000	1.00287E-004	5.99601E-002	9.82759E-001	3.57710E+000	9	...........
	70	0.946667	9.86451E-001	1.00544E-004	0.00000E+000	9.91815E-005	5.99601E-002	9.86789E-001	3.57710E+000	9	...........
	71	0.96	9.90391E-001	1.01011E-004	0.00000E+000	1.00040E-004	5.99601E-002	9.90732E-001	3.57710E+000	9	...........
	72	0.97333	9.94225E-001	1.00621E-004	0.00000E+000	1.00040E-004	5.99601E-002	9.94571E-001	3.57710E+000	9	...........
	73	0.98667	9.98035E-001	1.01045E-004	0.00000E+000	1.00846E-004	5.99601E-002	9.98385E-001	3.57710E+000	9	...........
	74	0.98833	1.00008E+000	1.02857E-004	0.00000E+000	1.02865E-004	5.99601E-002	1.00047E+000	3.57710E+000	9	...........
STARTTIMEOFFSET	QUANT	1637.218	Start Time Offset (s)
