EXPLAIN
TAG	PWR800_CHARGE
TITLE	LABEL	PWR Cyclic Charge Discharge (Cell) - Charge Step	Test &Identifier
DATE	LABEL	12-7-2017	Date
TIME	LABEL	16:35:56	Time
NOTES	NOTES	2	&Notes...
	supercap test cell
	6M KOH
PSTAT	PSTAT	IFC5000-01520	Potentiostat
CAPACITY	QUANT	1.00000E-003	Capacity (A-hr)
CELLTYPE	SELECTOR	1	&Cell Type
WORKINGCONNECTION	SELECTOR	0	&Working Lead
MAXCHARGETIME	VARIABLEANDUNITS	1.00000E+002	s	1.00000E+002	second(s)	Max &Charge Time
CHARGECURRENT	QUANT	1.00000E-004	&Charge Current (A) 
VOLTAGEFINISH	TWOPARAM	F	1.00000E-003	3.60000E+003	&Voltage Finish	 I (A) < 	Max Time(s)
SAMPLETIME	QUANT	1.00000E-002	Sa&mple Period (s)
CHARGESTOPAT1	MULTIPARAM	4	1.00000E+000	Charge Stop At &1	Voltage > Limit	V
CHARGESTOPAT2	MULTIPARAM	0	0.00000E+000	Charge Stop At &2	None	N/A
AESBHCSELECTOR	TOGGLE	F	Save Both Half Cells
IRCOMP	TOGGLE	F	IR &Measure
EOC	QUANT	0	Open Circuit (V)
SEQUENCER	TOGGLE	TRUE	Run as Sequence
PSTATMODEL	IQUANT	53	Pstat Model
PSTATSECTION	LABEL	IFC5000-01520	Pstat Section
PSTATSERIALNO	LABEL	01520	Pstat Serial Number
CTRLMODE	IQUANT	0	Control Mode
ELECTROMETER	IQUANT	1	RE=0 or CS=1
IESTAB	IQUANT	0	I/E Stability
CASPEED	IQUANT	4	Control Amp Speed
CONVENTION	IQUANT	1	Current Convention
ICHRANGE	IQUANT	2	Ich Range
ICHRANGEMODE	TOGGLE	T	Ich Auto Range
ICHOFFSETENABLE	TOGGLE	F	Ich Offset Enable
ICHOFFSET	QUANT	0	Ich Offset (V)
ICHFILTER	IQUANT	1	Ich Filter
VCHRANGE	IQUANT	2	Vch Range
VCHRANGEMODE	TOGGLE	T	Vch Auto Range
VCHOFFSETENABLE	TOGGLE	F	Vch Offset Enable
VCHOFFSET	QUANT	0	Vch Offset (V)
VCHFILTER	IQUANT	1	Vch Filter
IERANGELOWERLIMIT	IQUANT	9	I/E Range Lower Limit
IERANGEMODE	TOGGLE	F	I/E AutoRange
IERANGE	IQUANT	9	I/E Range
ACHSELECT	IQUANT	1	Ach Select
ACHRANGE	IQUANT	2	Ach Range
ACHOFFSETENABLE	TOGGLE	F	Ach Offset Enable
ACHOFFSET	QUANT	0	Ach Offset (V)
ACHFILTER	IQUANT	1	Ach Filter
CABLEID	IQUANT	14	Cable ID
DCCALDATE	LABEL	5-7-2017	DC Calibration Date
ACCALDATE	LABEL	12/3/2015	AC Calibration Date
FRAMEWORKVERSION	QUANT	7.01	Framework Version
INSTRUMENTVERSION	LABEL	4.00	Instrument Version
CURVE	TABLE	76
	Pt	T	Vf	Im	Vu	Pwr	Sig	Ach	Temp	IERange	Over
	#	s	V	A	V	W	V	V	deg C	#	bits
	0	0.013333	2.61308E-001	9.98395E-005	0.00000E+000	2.60888E-005	5.99601E-002	2.61382E-001	3.57810E+000	9	...........
	1	0.026667	2.84175E-001	1.00608E-004	0.00000E+000	2.85904E-005	5.99601E-002	2.84230E-001	3.57810E+000	9	...........
	2	0.04	3.05755E-001	1.01419E-004	0.00000E+000	3.10094E-005	5.99601E-002	3.05817E-001	3.57810E+000	9	...........
	3	0.053333	3.26412E-001	1.01502E-004	0.00000E+000	3.31316E-005	5.99601E-002	3.26477E-001	3.57810E+000	9	...........
	4	0.066667	3.46333E-001	1.01579E-004	0.00000E+000	3.51804E-005	5.99601E-002	3.46398E-001	3.57810E+000	9	...........
	5	0.08	3.65628E-001	1.01045E-004	0.00000E+000	3.69449E-005	5.99601E-002	3.65701E-001	3.57810E+000	9	...........
	6	0.093333	3.84381E-001	1.00769E-004	0.00000E+000	3.87336E-005	5.99601E-002	3.84456E-001	3.57810E+000	9	...........
	7	0.106667	4.02655E-001	1.01241E-004	0.00000E+000	4.07651E-005	5.99601E-002	4.02732E-001	3.57810E+000	9	...........
	8	0.12	4.20479E-001	1.00571E-004	0.00000E+000	4.22880E-005	5.99601E-002	4.20569E-001	3.57810E+000	9	...........
	9	0.133333	4.37893E-001	1.01251E-004	0.00000E+000	4.43372E-005	5.99601E-002	4.37983E-001	3.57810E+000	9	...........
	10	0.146667	4.54913E-001	1.00633E-004	0.00000E+000	4.57795E-005	5.99601E-002	4.55003E-001	3.57810E+000	9	...........
	11	0.16	4.71555E-001	1.00585E-004	0.00000E+000	4.74316E-005	5.99601E-002	4.71656E-001	3.57810E+000	9	...........
	12	0.173333	4.87841E-001	1.01692E-004	0.00000E+000	4.96095E-005	5.99601E-002	4.87937E-001	3.57810E+000	9	...........
	13	0.186667	5.03771E-001	1.03031E-004	0.00000E+000	5.19039E-005	5.99601E-002	5.03875E-001	3.57810E+000	9	...........
	14	0.2	5.19359E-001	1.00640E-004	0.00000E+000	5.22681E-005	5.99601E-002	5.19467E-001	3.57810E+000	9	...........
	15	0.213333	5.34485E-001	1.01225E-004	0.00000E+000	5.41034E-005	5.99601E-002	5.34636E-001	3.57810E+000	9	...........
	16	0.226667	5.49261E-001	1.00316E-004	0.00000E+000	5.50994E-005	5.99601E-002	5.49499E-001	3.57810E+000	9	...........
	17	0.24	5.63866E-001	1.01431E-004	0.00000E+000	5.71938E-005	5.99601E-002	5.64106E-001	3.57810E+000	9	...........
	18	0.253333	5.78139E-001	1.02671E-004	0.00000E+000	5.93583E-005	5.99601E-002	5.78408E-001	3.57810E+000	9	...........
	19	0.266667	5.92126E-001	1.01406E-004	0.00000E+000	6.00455E-005	5.99601E-002	5.92377E-001	3.57810E+000	9	...........
	20	0.28	6.05780E-001	1.00813E-004	0.00000E+000	6.10703E-005	5.99601E-002	6.06043E-001	3.57810E+000	9	...........
	21	0.293333	6.19170E-001	1.01388E-004	0.00000E+000	6.27763E-005	5.99601E-002	6.19421E-001	3.57810E+000	9	...........
	22	0.306667	6.32200E-001	1.01119E-004	0.00000E+000	6.39274E-005	5.99601E-002	6.32456E-001	3.57810E+000	9	...........
	23	0.32	6.44965E-001	1.01538E-004	0.00000E+000	6.54883E-005	5.99601E-002	6.45247E-001	3.57810E+000	9	...........
	24	0.333333	6.57396E-001	9.98541E-005	0.00000E+000	6.56436E-005	5.99601E-002	6.57663E-001	3.57810E+000	9	...........
	25	0.346667	6.69598E-001	1.02116E-004	0.00000E+000	6.83766E-005	5.99601E-002	6.69848E-001	3.57810E+000	9	...........
	26	0.36	6.81458E-001	1.00847E-004	0.00000E+000	6.87230E-005	5.99601E-002	6.81718E-001	3.57810E+000	9	...........
	27	0.373333	6.93054E-001	1.01822E-004	0.00000E+000	7.05682E-005	5.99601E-002	6.93303E-001	3.57810E+000	9	...........
	28	0.386667	7.04327E-001	9.96019E-005	0.00000E+000	7.01523E-005	5.99601E-002	7.04588E-001	3.57810E+000	9	...........
	29	0.4	7.15350E-001	1.00723E-004	0.00000E+000	7.20521E-005	5.99601E-002	7.15615E-001	3.57810E+000	9	...........
	30	0.413333	7.26089E-001	1.00334E-004	0.00000E+000	7.28516E-005	5.99601E-002	7.26339E-001	3.57810E+000	9	...........
	31	0.426667	7.36521E-001	1.01965E-004	0.00000E+000	7.50993E-005	5.99601E-002	7.36789E-001	3.57810E+000	9	...........
	32	0.44	7.46734E-001	9.96176E-005	0.00000E+000	7.43878E-005	5.99601E-002	7.46965E-001	3.57810E+000	9	...........
	33	0.453333	7.56612E-001	1.00967E-004	0.00000E+000	7.63927E-005	5.99601E-002	7.56862E-001	3.57810E+000	9	...........
	34	0.466667	7.66253E-001	1.01526E-004	0.00000E+000	7.77949E-005	5.99601E-002	7.66512E-001	3.57810E+000	9	...........
	35	0.48	7.75633E-001	1.01125E-004	0.00000E+000	7.84360E-005	5.99601E-002	7.75876E-001	3.57810E+000	9	...........
	36	0.493333	7.84738E-001	1.01088E-004	0.00000E+000	7.93273E-005	5.99601E-002	7.84979E-001	3.57810E+000	9	...........
	37	0.506667	7.93587E-001	1.01236E-004	0.00000E+000	8.03393E-005	5.99601E-002	7.93852E-001	3.57810E+000	9	...........
	38	0.52	8.02177E-001	1.00565E-004	0.00000E+000	8.06706E-005	5.99601E-002	8.02448E-001	3.57810E+000	9	...........
	39	0.533333	8.10524E-001	1.01253E-004	0.00000E+000	8.20682E-005	5.99601E-002	8.10796E-001	3.57810E+000	9	...........
	40	0.546667	8.18633E-001	1.02184E-004	0.00000E+000	8.36509E-005	5.99601E-002	8.18901E-001	3.57810E+000	9	...........
	41	0.56	8.26489E-001	1.00727E-004	0.00000E+000	8.32499E-005	5.99601E-002	8.26775E-001	3.57810E+000	9	...........
	42	0.573333	8.34055E-001	1.00281E-004	0.00000E+000	8.36400E-005	5.99601E-002	8.34387E-001	3.57765E+000	9	...........
	43	0.586667	8.41455E-001	1.00856E-004	0.00000E+000	8.48661E-005	5.99601E-002	8.41761E-001	3.57750E+000	9	...........
	44	0.6	8.48621E-001	1.00859E-004	0.00000E+000	8.55915E-005	5.99601E-002	8.48936E-001	3.57750E+000	9	...........
	45	0.613333	8.55501E-001	1.01163E-004	0.00000E+000	8.65448E-005	5.99601E-002	8.55834E-001	3.57750E+000	9	...........
	46	0.626667	8.62206E-001	1.01260E-004	0.00000E+000	8.73066E-005	5.99601E-002	8.62533E-001	3.57750E+000	9	...........
	47	0.64	8.68728E-001	1.00056E-004	0.00000E+000	8.69216E-005	5.99601E-002	8.69069E-001	3.57750E+000	9	...........
	48	0.653333	8.75047E-001	1.01956E-004	0.00000E+000	8.92159E-005	5.99601E-002	8.75361E-001	3.57750E+000	9	...........
	49	0.666667	8.81147E-001	1.01219E-004	0.00000E+000	8.91888E-005	5.99601E-002	8.81489E-001	3.57750E+000	9	...........
	50	0.68	8.87113E-001	1.00659E-004	0.00000E+000	8.92963E-005	5.99601E-002	8.87444E-001	3.57750E+000	9	...........
	51	0.693333	8.92890E-001	1.01395E-004	0.00000E+000	9.05346E-005	5.99601E-002	8.93207E-001	3.57750E+000	9	...........
	52	0.706667	8.98520E-001	1.01611E-004	0.00000E+000	9.12992E-005	5.99601E-002	8.98838E-001	3.57750E+000	9	...........
	53	0.72	9.03992E-001	1.02619E-004	0.00000E+000	9.27669E-005	5.99601E-002	9.04314E-001	3.57750E+000	9	...........
	54	0.733333	9.09354E-001	9.96603E-005	0.00000E+000	9.06264E-005	5.99601E-002	9.09655E-001	3.57750E+000	9	...........
	55	0.746667	9.14593E-001	1.01327E-004	0.00000E+000	9.26732E-005	5.99601E-002	9.14899E-001	3.57750E+000	9	...........
	56	0.76	9.19735E-001	1.01689E-004	0.00000E+000	9.35268E-005	5.99601E-002	9.20037E-001	3.57750E+000	9	...........
	57	0.773333	9.24781E-001	1.02024E-004	0.00000E+000	9.43501E-005	5.99601E-002	9.25055E-001	3.57750E+000	9	...........
	58	0.786667	9.29689E-001	1.00450E-004	0.00000E+000	9.33873E-005	5.99601E-002	9.29952E-001	3.57750E+000	9	...........
	59	0.8	9.34489E-001	1.00681E-004	0.00000E+000	9.40856E-005	5.99601E-002	9.34782E-001	3.57750E+000	9	...........
	60	0.813333	9.39224E-001	1.01342E-004	0.00000E+000	9.51827E-005	5.99601E-002	9.39501E-001	3.57750E+000	9	...........
	61	0.826667	9.43850E-001	1.01251E-004	0.00000E+000	9.55660E-005	5.99601E-002	9.44158E-001	3.57750E+000	9	...........
	62	0.84	9.48464E-001	1.01393E-004	0.00000E+000	9.61676E-005	5.99601E-002	9.48770E-001	3.57750E+000	9	...........
	63	0.853333	9.52954E-001	1.00875E-004	0.00000E+000	9.61293E-005	5.99601E-002	9.53270E-001	3.57750E+000	9	...........
	64	0.866667	9.57383E-001	1.01247E-004	0.00000E+000	9.69322E-005	5.99601E-002	9.57691E-001	3.57750E+000	9	...........
	65	0.88	9.61712E-001	1.00380E-004	0.00000E+000	9.65368E-005	5.99601E-002	9.62039E-001	3.57750E+000	9	...........
	66	0.893333	9.65956E-001	1.00692E-004	0.00000E+000	9.72638E-005	5.99601E-002	9.66313E-001	3.57750E+000	9	...........
	67	0.906667	9.70151E-001	1.01462E-004	0.00000E+000	9.84332E-005	5.99601E-002	9.70510E-001	3.57750E+000	9	...........
	68	0.92	9.74308E-001	1.01291E-004	0.00000E+000	9.86884E-005	5.99601E-002	9.74659E-001	3.57750E+000	9	...........
	69	0.933333	9.78322E-001	1.00867E-004	0.00000E+000	9.86802E-005	5.99601E-002	9.78694E-001	3.57750E+000	9	...........
	70	0.946667	9.82294E-001	1.02680E-004	0.00000E+000	1.00862E-004	5.99601E-002	9.82651E-001	3.57750E+000	9	...........
	71	0.96	9.86151E-001	1.01264E-004	0.00000E+000	9.98613E-005	5.99601E-002	9.86540E-001	3.57750E+000	9	...........
	72	0.97333	9.89974E-001	1.00243E-004	0.00000E+000	9.92376E-005	5.99601E-002	9.90316E-001	3.57750E+000	9	...........
	73	0.98667	9.93656E-001	1.00580E-004	0.00000E+000	9.99422E-005	5.99601E-002	9.94037E-001	3.57750E+000	9	...........
	74	1	9.97319E-001	1.01003E-004	0.00000E+000	1.00732E-004	5.99601E-002	9.97662E-001	3.57750E+000	9	...........
	75	1.005	9.99786E-001	1.00306E-004	0.00000E+000	1.00285E-004	5.99601E-002	1.00010E+000	3.57750E+000	9	...........
STARTTIMEOFFSET	QUANT	1105.767	Start Time Offset (s)
