EXPLAIN
TAG	PWR800_CHARGE
TITLE	LABEL	PWR Cyclic Charge Discharge (Cell) - Charge Step	Test &Identifier
DATE	LABEL	12-7-2017	Date
TIME	LABEL	16:25:09	Time
NOTES	NOTES	2	&Notes...
	supercap test cell
	6M KOH
PSTAT	PSTAT	IFC5000-01520	Potentiostat
CAPACITY	QUANT	1.00000E-003	Capacity (A-hr)
CELLTYPE	SELECTOR	1	&Cell Type
WORKINGCONNECTION	SELECTOR	0	&Working Lead
MAXCHARGETIME	VARIABLEANDUNITS	1.00000E+002	s	1.00000E+002	second(s)	Max &Charge Time
CHARGECURRENT	QUANT	1.00000E-004	&Charge Current (A) 
VOLTAGEFINISH	TWOPARAM	F	1.00000E-003	3.60000E+003	&Voltage Finish	 I (A) < 	Max Time(s)
SAMPLETIME	QUANT	1.00000E-002	Sa&mple Period (s)
CHARGESTOPAT1	MULTIPARAM	4	1.00000E+000	Charge Stop At &1	Voltage > Limit	V
CHARGESTOPAT2	MULTIPARAM	0	0.00000E+000	Charge Stop At &2	None	N/A
AESBHCSELECTOR	TOGGLE	F	Save Both Half Cells
IRCOMP	TOGGLE	F	IR &Measure
EOC	QUANT	0	Open Circuit (V)
SEQUENCER	TOGGLE	TRUE	Run as Sequence
PSTATMODEL	IQUANT	53	Pstat Model
PSTATSECTION	LABEL	IFC5000-01520	Pstat Section
PSTATSERIALNO	LABEL	01520	Pstat Serial Number
CTRLMODE	IQUANT	0	Control Mode
ELECTROMETER	IQUANT	1	RE=0 or CS=1
IESTAB	IQUANT	0	I/E Stability
CASPEED	IQUANT	4	Control Amp Speed
CONVENTION	IQUANT	1	Current Convention
ICHRANGE	IQUANT	2	Ich Range
ICHRANGEMODE	TOGGLE	T	Ich Auto Range
ICHOFFSETENABLE	TOGGLE	F	Ich Offset Enable
ICHOFFSET	QUANT	0	Ich Offset (V)
ICHFILTER	IQUANT	1	Ich Filter
VCHRANGE	IQUANT	2	Vch Range
VCHRANGEMODE	TOGGLE	T	Vch Auto Range
VCHOFFSETENABLE	TOGGLE	F	Vch Offset Enable
VCHOFFSET	QUANT	0	Vch Offset (V)
VCHFILTER	IQUANT	1	Vch Filter
IERANGELOWERLIMIT	IQUANT	9	I/E Range Lower Limit
IERANGEMODE	TOGGLE	F	I/E AutoRange
IERANGE	IQUANT	9	I/E Range
ACHSELECT	IQUANT	1	Ach Select
ACHRANGE	IQUANT	2	Ach Range
ACHOFFSETENABLE	TOGGLE	F	Ach Offset Enable
ACHOFFSET	QUANT	0	Ach Offset (V)
ACHFILTER	IQUANT	1	Ach Filter
CABLEID	IQUANT	14	Cable ID
DCCALDATE	LABEL	5-7-2017	DC Calibration Date
ACCALDATE	LABEL	12/3/2015	AC Calibration Date
FRAMEWORKVERSION	QUANT	7.01	Framework Version
INSTRUMENTVERSION	LABEL	4.00	Instrument Version
CURVE	TABLE	77
	Pt	T	Vf	Im	Vu	Pwr	Sig	Ach	Temp	IERange	Over
	#	s	V	A	V	W	V	V	deg C	#	bits
	0	0.013333	2.61966E-001	1.01585E-004	0.00000E+000	2.66117E-005	5.99601E-002	2.62050E-001	3.57720E+000	9	...........
	1	0.026667	2.84750E-001	1.00620E-004	0.00000E+000	2.86515E-005	5.99601E-002	2.84813E-001	3.57720E+000	9	...........
	2	0.04	3.06127E-001	1.00834E-004	0.00000E+000	3.08681E-005	5.99601E-002	3.06198E-001	3.57720E+000	9	...........
	3	0.053333	3.26489E-001	1.02110E-004	0.00000E+000	3.33377E-005	5.99601E-002	3.26559E-001	3.57720E+000	9	...........
	4	0.066667	3.46029E-001	1.01201E-004	0.00000E+000	3.50186E-005	5.99601E-002	3.46109E-001	3.57720E+000	9	...........
	5	0.08	3.64913E-001	1.00889E-004	0.00000E+000	3.68156E-005	5.99601E-002	3.64991E-001	3.57720E+000	9	...........
	6	0.093333	3.83200E-001	1.00395E-004	0.00000E+000	3.84712E-005	5.99601E-002	3.83287E-001	3.57720E+000	9	...........
	7	0.106667	4.00988E-001	1.00826E-004	0.00000E+000	4.04300E-005	5.99601E-002	4.01075E-001	3.57720E+000	9	...........
	8	0.12	4.18294E-001	1.00236E-004	0.00000E+000	4.19283E-005	5.99601E-002	4.18388E-001	3.57720E+000	9	...........
	9	0.133333	4.35178E-001	1.00504E-004	0.00000E+000	4.37372E-005	5.99601E-002	4.35277E-001	3.57720E+000	9	...........
	10	0.146667	4.51670E-001	1.00329E-004	0.00000E+000	4.53157E-005	5.99601E-002	4.51771E-001	3.57720E+000	9	...........
	11	0.16	4.67786E-001	1.01353E-004	0.00000E+000	4.74116E-005	5.99601E-002	4.67882E-001	3.57720E+000	9	...........
	12	0.173333	4.83547E-001	1.01343E-004	0.00000E+000	4.90041E-005	5.99601E-002	4.83650E-001	3.57720E+000	9	...........
	13	0.186667	4.98976E-001	1.01871E-004	0.00000E+000	5.08313E-005	5.99601E-002	4.99089E-001	3.57720E+000	9	...........
	14	0.2	5.14079E-001	1.02134E-004	0.00000E+000	5.25048E-005	5.99601E-002	5.14192E-001	3.57720E+000	9	...........
	15	0.213333	5.28821E-001	1.00912E-004	0.00000E+000	5.33641E-005	5.99601E-002	5.28944E-001	3.57720E+000	9	...........
	16	0.226667	5.43038E-001	1.00093E-004	0.00000E+000	5.43542E-005	5.99601E-002	5.43226E-001	3.57720E+000	9	...........
	17	0.24	5.57215E-001	9.95550E-005	0.00000E+000	5.54735E-005	5.99601E-002	5.57439E-001	3.57720E+000	9	...........
	18	0.253333	5.71114E-001	1.00485E-004	0.00000E+000	5.73886E-005	5.99601E-002	5.71350E-001	3.57720E+000	9	...........
	19	0.266667	5.84741E-001	1.01323E-004	0.00000E+000	5.92478E-005	5.99601E-002	5.84980E-001	3.57720E+000	9	...........
	20	0.28	5.98067E-001	1.02224E-004	0.00000E+000	6.11371E-005	5.99601E-002	5.98332E-001	3.57720E+000	9	...........
	21	0.293333	6.11151E-001	1.00653E-004	0.00000E+000	6.15143E-005	5.99601E-002	6.11398E-001	3.57720E+000	9	...........
	22	0.306667	6.23993E-001	1.01187E-004	0.00000E+000	6.31398E-005	5.99601E-002	6.24231E-001	3.57720E+000	9	...........
	23	0.32	6.36507E-001	1.00353E-004	0.00000E+000	6.38754E-005	5.99601E-002	6.36772E-001	3.57720E+000	9	...........
	24	0.333333	6.48797E-001	1.00175E-004	0.00000E+000	6.49933E-005	5.99601E-002	6.49076E-001	3.57720E+000	9	...........
	25	0.346667	6.60836E-001	1.01138E-004	0.00000E+000	6.68354E-005	5.99601E-002	6.61109E-001	3.57720E+000	9	...........
	26	0.36	6.72599E-001	1.00758E-004	0.00000E+000	6.77700E-005	5.99601E-002	6.72867E-001	3.57720E+000	9	...........
	27	0.373333	6.84104E-001	1.00694E-004	0.00000E+000	6.88851E-005	5.99601E-002	6.84365E-001	3.57720E+000	9	...........
	28	0.386667	6.95370E-001	1.01092E-004	0.00000E+000	7.02962E-005	5.99601E-002	6.95627E-001	3.57720E+000	9	...........
	29	0.4	7.06349E-001	1.00145E-004	0.00000E+000	7.07371E-005	5.99601E-002	7.06625E-001	3.57720E+000	9	...........
	30	0.413333	7.17098E-001	1.01838E-004	0.00000E+000	7.30277E-005	5.99601E-002	7.17395E-001	3.57720E+000	9	...........
	31	0.426667	7.27614E-001	1.01008E-004	0.00000E+000	7.34952E-005	5.99601E-002	7.27881E-001	3.57720E+000	9	...........
	32	0.44	7.37858E-001	1.01229E-004	0.00000E+000	7.46929E-005	5.99601E-002	7.38140E-001	3.57720E+000	9	...........
	33	0.453333	7.47880E-001	1.02432E-004	0.00000E+000	7.66066E-005	5.99601E-002	7.48149E-001	3.57720E+000	9	...........
	34	0.466667	7.57634E-001	1.00825E-004	0.00000E+000	7.63885E-005	5.99601E-002	7.57887E-001	3.57720E+000	9	...........
	35	0.48	7.67150E-001	1.01690E-004	0.00000E+000	7.80114E-005	5.99601E-002	7.67411E-001	3.57720E+000	9	...........
	36	0.493333	7.76435E-001	1.00680E-004	0.00000E+000	7.81717E-005	5.99601E-002	7.76717E-001	3.57720E+000	9	...........
	37	0.506667	7.85439E-001	1.00742E-004	0.00000E+000	7.91265E-005	5.99601E-002	7.85731E-001	3.57720E+000	9	...........
	38	0.52	7.94277E-001	1.00610E-004	0.00000E+000	7.99126E-005	5.99601E-002	7.94540E-001	3.57720E+000	9	...........
	39	0.533333	8.02847E-001	1.01416E-004	0.00000E+000	8.14214E-005	5.99601E-002	8.03093E-001	3.57720E+000	9	...........
	40	0.546667	8.11144E-001	1.00491E-004	0.00000E+000	8.15124E-005	5.99601E-002	8.11410E-001	3.57720E+000	9	...........
	41	0.56	8.19249E-001	9.90476E-005	0.00000E+000	8.11447E-005	5.99601E-002	8.19515E-001	3.57720E+000	9	...........
	42	0.573333	8.27128E-001	1.00778E-004	0.00000E+000	8.33565E-005	5.99601E-002	8.27392E-001	3.57720E+000	9	...........
	43	0.586667	8.34762E-001	1.00972E-004	0.00000E+000	8.42876E-005	5.99601E-002	8.35043E-001	3.57720E+000	9	...........
	44	0.6	8.42181E-001	1.01757E-004	0.00000E+000	8.56975E-005	5.99601E-002	8.42461E-001	3.57720E+000	9	...........
	45	0.613333	8.49425E-001	1.02754E-004	0.00000E+000	8.72815E-005	5.99601E-002	8.49674E-001	3.57720E+000	9	...........
	46	0.626667	8.56395E-001	1.00488E-004	0.00000E+000	8.60571E-005	5.99601E-002	8.56642E-001	3.57720E+000	9	...........
	47	0.64	8.63133E-001	1.00185E-004	0.00000E+000	8.64733E-005	5.99601E-002	8.63432E-001	3.57720E+000	9	...........
	48	0.653333	8.69739E-001	1.00423E-004	0.00000E+000	8.73418E-005	5.99601E-002	8.70034E-001	3.57720E+000	9	...........
	49	0.666667	8.76096E-001	1.01052E-004	0.00000E+000	8.85315E-005	5.99601E-002	8.76386E-001	3.57720E+000	9	...........
	50	0.68	8.82269E-001	1.01643E-004	0.00000E+000	8.96764E-005	5.99601E-002	8.82573E-001	3.57720E+000	9	...........
	51	0.693333	8.88286E-001	1.00772E-004	0.00000E+000	8.95143E-005	5.99601E-002	8.88572E-001	3.57720E+000	9	...........
	52	0.706667	8.94066E-001	1.01542E-004	0.00000E+000	9.07851E-005	5.99601E-002	8.94392E-001	3.57720E+000	9	...........
	53	0.72	8.99690E-001	1.00125E-004	0.00000E+000	9.00814E-005	5.99601E-002	9.00042E-001	3.57720E+000	9	...........
	54	0.733333	9.05187E-001	1.00999E-004	0.00000E+000	9.14231E-005	5.99601E-002	9.05537E-001	3.57720E+000	9	...........
	55	0.746667	9.10538E-001	1.01764E-004	0.00000E+000	9.26598E-005	5.99601E-002	9.10880E-001	3.57720E+000	9	...........
	56	0.76	9.15735E-001	1.00904E-004	0.00000E+000	9.24016E-005	5.99601E-002	9.16088E-001	3.57720E+000	9	...........
	57	0.773333	9.20859E-001	1.00467E-004	0.00000E+000	9.25157E-005	5.99601E-002	9.21174E-001	3.57720E+000	9	...........
	58	0.786667	9.25821E-001	1.00740E-004	0.00000E+000	9.32669E-005	5.99601E-002	9.26129E-001	3.57720E+000	9	...........
	59	0.8	9.30655E-001	1.00522E-004	0.00000E+000	9.35513E-005	5.99601E-002	9.30958E-001	3.57720E+000	9	...........
	60	0.813333	9.35373E-001	1.01449E-004	0.00000E+000	9.48929E-005	5.99601E-002	9.35695E-001	3.57720E+000	9	...........
	61	0.826667	9.40000E-001	1.00678E-004	0.00000E+000	9.46375E-005	5.99601E-002	9.40329E-001	3.57720E+000	9	...........
	62	0.84	9.44527E-001	9.98968E-005	0.00000E+000	9.43552E-005	5.99601E-002	9.44870E-001	3.57720E+000	9	...........
	63	0.853333	9.49046E-001	1.00565E-004	0.00000E+000	9.54405E-005	5.99601E-002	9.49346E-001	3.57720E+000	9	...........
	64	0.866667	9.53388E-001	1.01282E-004	0.00000E+000	9.65615E-005	5.99601E-002	9.53710E-001	3.57720E+000	9	...........
	65	0.88	9.57657E-001	1.00500E-004	0.00000E+000	9.62445E-005	5.99601E-002	9.57991E-001	3.57720E+000	9	...........
	66	0.893333	9.61868E-001	1.01325E-004	0.00000E+000	9.74615E-005	5.99601E-002	9.62214E-001	3.57720E+000	9	...........
	67	0.906667	9.65973E-001	1.00562E-004	0.00000E+000	9.71397E-005	5.99601E-002	9.66326E-001	3.57823E+000	9	...........
	68	0.92	9.70030E-001	1.01052E-004	0.00000E+000	9.80237E-005	5.99601E-002	9.70400E-001	3.57830E+000	9	...........
	69	0.933333	9.74069E-001	1.00034E-004	0.00000E+000	9.74403E-005	5.99601E-002	9.74393E-001	3.57830E+000	9	...........
	70	0.946667	9.77957E-001	1.00963E-004	0.00000E+000	9.87371E-005	5.99601E-002	9.78275E-001	3.57830E+000	9	...........
	71	0.96	9.81797E-001	1.01591E-004	0.00000E+000	9.97416E-005	5.99601E-002	9.82084E-001	3.57830E+000	9	...........
	72	0.97333	9.85516E-001	1.00076E-004	0.00000E+000	9.86264E-005	5.99601E-002	9.85850E-001	3.57830E+000	9	...........
	73	0.98667	9.89173E-001	1.01742E-004	0.00000E+000	1.00640E-004	5.99601E-002	9.89531E-001	3.57830E+000	9	...........
	74	1	9.92718E-001	1.01476E-004	0.00000E+000	1.00737E-004	5.99601E-002	9.93056E-001	3.57830E+000	9	...........
	75	1.01333	9.96207E-001	1.00290E-004	0.00000E+000	9.99092E-005	5.99601E-002	9.96576E-001	3.57830E+000	9	...........
	76	1.02333	9.99226E-001	1.01450E-004	0.00000E+000	1.01371E-004	5.99601E-002	9.99574E-001	3.57830E+000	9	...........
STARTTIMEOFFSET	QUANT	645.9733	Start Time Offset (s)
