EXPLAIN
TAG	PWR800_CHARGE
TITLE	LABEL	PWR Cyclic Charge Discharge (Cell) - Charge Step	Test &Identifier
DATE	LABEL	12-7-2017	Date
TIME	LABEL	16:30:20	Time
NOTES	NOTES	2	&Notes...
	supercap test cell
	6M KOH
PSTAT	PSTAT	IFC5000-01520	Potentiostat
CAPACITY	QUANT	1.00000E-003	Capacity (A-hr)
CELLTYPE	SELECTOR	1	&Cell Type
WORKINGCONNECTION	SELECTOR	0	&Working Lead
MAXCHARGETIME	VARIABLEANDUNITS	1.00000E+002	s	1.00000E+002	second(s)	Max &Charge Time
CHARGECURRENT	QUANT	1.00000E-004	&Charge Current (A) 
VOLTAGEFINISH	TWOPARAM	F	1.00000E-003	3.60000E+003	&Voltage Finish	 I (A) < 	Max Time(s)
SAMPLETIME	QUANT	1.00000E-002	Sa&mple Period (s)
CHARGESTOPAT1	MULTIPARAM	4	1.00000E+000	Charge Stop At &1	Voltage > Limit	V
CHARGESTOPAT2	MULTIPARAM	0	0.00000E+000	Charge Stop At &2	None	N/A
AESBHCSELECTOR	TOGGLE	F	Save Both Half Cells
IRCOMP	TOGGLE	F	IR &Measure
EOC	QUANT	0	Open Circuit (V)
SEQUENCER	TOGGLE	TRUE	Run as Sequence
PSTATMODEL	IQUANT	53	Pstat Model
PSTATSECTION	LABEL	IFC5000-01520	Pstat Section
PSTATSERIALNO	LABEL	01520	Pstat Serial Number
CTRLMODE	IQUANT	0	Control Mode
ELECTROMETER	IQUANT	1	RE=0 or CS=1
IESTAB	IQUANT	0	I/E Stability
CASPEED	IQUANT	4	Control Amp Speed
CONVENTION	IQUANT	1	Current Convention
ICHRANGE	IQUANT	2	Ich Range
ICHRANGEMODE	TOGGLE	T	Ich Auto Range
ICHOFFSETENABLE	TOGGLE	F	Ich Offset Enable
ICHOFFSET	QUANT	0	Ich Offset (V)
ICHFILTER	IQUANT	1	Ich Filter
VCHRANGE	IQUANT	2	Vch Range
VCHRANGEMODE	TOGGLE	T	Vch Auto Range
VCHOFFSETENABLE	TOGGLE	F	Vch Offset Enable
VCHOFFSET	QUANT	0	Vch Offset (V)
VCHFILTER	IQUANT	1	Vch Filter
IERANGELOWERLIMIT	IQUANT	9	I/E Range Lower Limit
IERANGEMODE	TOGGLE	F	I/E AutoRange
IERANGE	IQUANT	9	I/E Range
ACHSELECT	IQUANT	1	Ach Select
ACHRANGE	IQUANT	2	Ach Range
ACHOFFSETENABLE	TOGGLE	F	Ach Offset Enable
ACHOFFSET	QUANT	0	Ach Offset (V)
ACHFILTER	IQUANT	1	Ach Filter
CABLEID	IQUANT	14	Cable ID
DCCALDATE	LABEL	5-7-2017	DC Calibration Date
ACCALDATE	LABEL	12/3/2015	AC Calibration Date
FRAMEWORKVERSION	QUANT	7.01	Framework Version
INSTRUMENTVERSION	LABEL	4.00	Instrument Version
CURVE	TABLE	76
	Pt	T	Vf	Im	Vu	Pwr	Sig	Ach	Temp	IERange	Over
	#	s	V	A	V	W	V	V	deg C	#	bits
	0	0.013333	2.62047E-001	1.01693E-004	0.00000E+000	2.66484E-005	5.99601E-002	2.62131E-001	3.57670E+000	9	...........
	1	0.026667	2.84888E-001	1.00176E-004	0.00000E+000	2.85389E-005	5.99601E-002	2.84955E-001	3.57670E+000	9	...........
	2	0.04	3.06390E-001	9.89737E-005	0.00000E+000	3.03245E-005	5.99601E-002	3.06460E-001	3.57670E+000	9	...........
	3	0.053333	3.26931E-001	1.01742E-004	0.00000E+000	3.32625E-005	5.99601E-002	3.26998E-001	3.57670E+000	9	...........
	4	0.066667	3.46689E-001	1.02050E-004	0.00000E+000	3.53797E-005	5.99601E-002	3.46765E-001	3.57670E+000	9	...........
	5	0.08	3.65806E-001	1.01456E-004	0.00000E+000	3.71134E-005	5.99601E-002	3.65888E-001	3.57670E+000	9	...........
	6	0.093333	3.84366E-001	1.02522E-004	0.00000E+000	3.94061E-005	5.99601E-002	3.84448E-001	3.57670E+000	9	...........
	7	0.106667	4.02423E-001	1.00196E-004	0.00000E+000	4.03211E-005	5.99601E-002	4.02507E-001	3.57670E+000	9	...........
	8	0.12	4.20023E-001	1.00040E-004	0.00000E+000	4.20189E-005	5.99601E-002	4.20112E-001	3.57670E+000	9	...........
	9	0.133333	4.37204E-001	1.00488E-004	0.00000E+000	4.39336E-005	5.99601E-002	4.37300E-001	3.57670E+000	9	...........
	10	0.146667	4.53999E-001	1.00585E-004	0.00000E+000	4.56657E-005	5.99601E-002	4.54099E-001	3.57670E+000	9	...........
	11	0.16	4.70422E-001	1.01682E-004	0.00000E+000	4.78332E-005	5.99601E-002	4.70520E-001	3.57670E+000	9	...........
	12	0.173333	4.86476E-001	1.00592E-004	0.00000E+000	4.89354E-005	5.99601E-002	4.86576E-001	3.57689E+000	9	...........
	13	0.186667	5.02181E-001	9.97707E-005	0.00000E+000	5.01029E-005	5.99601E-002	5.02294E-001	3.57720E+000	9	...........
	14	0.2	5.17568E-001	1.01827E-004	0.00000E+000	5.27026E-005	5.99601E-002	5.17675E-001	3.57720E+000	9	...........
	15	0.213333	5.32500E-001	1.01430E-004	0.00000E+000	5.40117E-005	5.99601E-002	5.32660E-001	3.57720E+000	9	...........
	16	0.226667	5.47052E-001	1.00294E-004	0.00000E+000	5.48659E-005	5.99601E-002	5.47271E-001	3.57720E+000	9	...........
	17	0.24	5.61468E-001	1.01171E-004	0.00000E+000	5.68042E-005	5.99601E-002	5.61737E-001	3.57720E+000	9	...........
	18	0.253333	5.75620E-001	1.00997E-004	0.00000E+000	5.81359E-005	5.99601E-002	5.75843E-001	3.57720E+000	9	...........
	19	0.266667	5.89449E-001	1.01080E-004	0.00000E+000	5.95817E-005	5.99601E-002	5.89691E-001	3.57720E+000	9	...........
	20	0.28	6.02952E-001	9.93696E-005	0.00000E+000	5.99151E-005	5.99601E-002	6.03212E-001	3.57720E+000	9	...........
	21	0.293333	6.16234E-001	1.00172E-004	0.00000E+000	6.17293E-005	5.99601E-002	6.16444E-001	3.57720E+000	9	...........
	22	0.306667	6.29166E-001	1.01124E-004	0.00000E+000	6.36239E-005	5.99601E-002	6.29373E-001	3.57720E+000	9	...........
	23	0.32	6.41861E-001	1.00807E-004	0.00000E+000	6.47043E-005	5.99601E-002	6.42054E-001	3.57720E+000	9	...........
	24	0.333333	6.54224E-001	1.01279E-004	0.00000E+000	6.62594E-005	5.99601E-002	6.54455E-001	3.57720E+000	9	...........
	25	0.346667	6.66335E-001	1.02721E-004	0.00000E+000	6.84468E-005	5.99601E-002	6.66557E-001	3.57720E+000	9	...........
	26	0.36	6.78147E-001	1.01023E-004	0.00000E+000	6.85085E-005	5.99601E-002	6.78399E-001	3.57720E+000	9	...........
	27	0.373333	6.89698E-001	1.01220E-004	0.00000E+000	6.98112E-005	5.99601E-002	6.89958E-001	3.57720E+000	9	...........
	28	0.386667	7.00984E-001	1.01570E-004	0.00000E+000	7.11990E-005	5.99601E-002	7.01235E-001	3.57720E+000	9	...........
	29	0.4	7.11953E-001	1.01201E-004	0.00000E+000	7.20505E-005	5.99601E-002	7.12226E-001	3.57720E+000	9	...........
	30	0.413333	7.22746E-001	9.97468E-005	0.00000E+000	7.20916E-005	5.99601E-002	7.22981E-001	3.57720E+000	9	...........
	31	0.426667	7.33169E-001	1.01797E-004	0.00000E+000	7.46345E-005	5.99601E-002	7.33434E-001	3.57720E+000	9	...........
	32	0.44	7.43396E-001	9.99780E-005	0.00000E+000	7.43233E-005	5.99601E-002	7.43653E-001	3.57720E+000	9	...........
	33	0.453333	7.53359E-001	1.00919E-004	0.00000E+000	7.60281E-005	5.99601E-002	7.53605E-001	3.57720E+000	9	...........
	34	0.466667	7.63036E-001	1.02157E-004	0.00000E+000	7.79492E-005	5.99601E-002	7.63292E-001	3.57720E+000	9	...........
	35	0.48	7.72444E-001	1.01223E-004	0.00000E+000	7.81892E-005	5.99601E-002	7.72736E-001	3.57720E+000	9	...........
	36	0.493333	7.81639E-001	1.00555E-004	0.00000E+000	7.85979E-005	5.99601E-002	7.81887E-001	3.57720E+000	9	...........
	37	0.506667	7.90560E-001	1.01052E-004	0.00000E+000	7.98878E-005	5.99601E-002	7.90841E-001	3.57720E+000	9	...........
	38	0.52	7.99251E-001	1.00672E-004	0.00000E+000	8.04621E-005	5.99601E-002	7.99517E-001	3.57720E+000	9	...........
	39	0.533333	8.07660E-001	1.02215E-004	0.00000E+000	8.25549E-005	5.99601E-002	8.07980E-001	3.57720E+000	9	...........
	40	0.546667	8.15864E-001	1.00618E-004	0.00000E+000	8.20904E-005	5.99601E-002	8.16167E-001	3.57720E+000	9	...........
	41	0.56	8.23815E-001	1.01535E-004	0.00000E+000	8.36457E-005	5.99601E-002	8.24141E-001	3.57720E+000	9	...........
	42	0.573333	8.31509E-001	1.00610E-004	0.00000E+000	8.36585E-005	5.99601E-002	8.31858E-001	3.57720E+000	9	...........
	43	0.586667	8.39000E-001	1.01137E-004	0.00000E+000	8.48537E-005	5.99601E-002	8.39332E-001	3.57720E+000	9	...........
	44	0.6	8.46292E-001	1.00353E-004	0.00000E+000	8.49280E-005	5.99601E-002	8.46630E-001	3.57720E+000	9	...........
	45	0.613333	8.53322E-001	1.00365E-004	0.00000E+000	8.56433E-005	5.99601E-002	8.53654E-001	3.57720E+000	9	...........
	46	0.626667	8.60128E-001	1.00532E-004	0.00000E+000	8.64707E-005	5.99601E-002	8.60512E-001	3.57720E+000	9	...........
	47	0.64	8.66721E-001	1.00764E-004	0.00000E+000	8.73339E-005	5.99601E-002	8.67104E-001	3.57720E+000	9	...........
	48	0.653333	8.73154E-001	1.01652E-004	0.00000E+000	8.87582E-005	5.99601E-002	8.73512E-001	3.57720E+000	9	...........
	49	0.666667	8.79353E-001	1.00927E-004	0.00000E+000	8.87506E-005	5.99601E-002	8.79684E-001	3.57720E+000	9	...........
	50	0.68	8.85415E-001	1.01161E-004	0.00000E+000	8.95691E-005	5.99601E-002	8.85699E-001	3.57720E+000	9	...........
	51	0.693333	8.91233E-001	1.02349E-004	0.00000E+000	9.12172E-005	5.99601E-002	8.91548E-001	3.57720E+000	9	...........
	52	0.706667	8.96933E-001	1.01096E-004	0.00000E+000	9.06763E-005	5.99601E-002	8.97265E-001	3.57720E+000	9	...........
	53	0.72	9.02462E-001	1.00609E-004	0.00000E+000	9.07962E-005	5.99601E-002	9.02779E-001	3.57720E+000	9	...........
	54	0.733333	9.07841E-001	1.00803E-004	0.00000E+000	9.15133E-005	5.99601E-002	9.08177E-001	3.57720E+000	9	...........
	55	0.746667	9.13098E-001	1.00787E-004	0.00000E+000	9.20280E-005	5.99601E-002	9.13430E-001	3.57720E+000	9	...........
	56	0.76	9.18221E-001	1.00792E-004	0.00000E+000	9.25491E-005	5.99601E-002	9.18565E-001	3.57720E+000	9	...........
	57	0.773333	9.23325E-001	1.01920E-004	0.00000E+000	9.41054E-005	5.99601E-002	9.23584E-001	3.57720E+000	9	...........
	58	0.786667	9.28214E-001	1.00657E-004	0.00000E+000	9.34316E-005	5.99601E-002	9.28502E-001	3.57720E+000	9	...........
	59	0.8	9.33028E-001	1.01000E-004	0.00000E+000	9.42359E-005	5.99601E-002	9.33329E-001	3.57720E+000	9	...........
	60	0.813333	9.37746E-001	1.00765E-004	0.00000E+000	9.44916E-005	5.99601E-002	9.38050E-001	3.57720E+000	9	...........
	61	0.826667	9.42362E-001	1.00821E-004	0.00000E+000	9.50098E-005	5.99601E-002	9.42679E-001	3.57720E+000	9	...........
	62	0.84	9.46928E-001	1.01464E-004	0.00000E+000	9.60788E-005	5.99601E-002	9.47238E-001	3.57720E+000	9	...........
	63	0.853333	9.51386E-001	1.00524E-004	0.00000E+000	9.56371E-005	5.99601E-002	9.51694E-001	3.57720E+000	9	...........
	64	0.866667	9.55775E-001	1.02021E-004	0.00000E+000	9.75093E-005	5.99601E-002	9.56080E-001	3.57720E+000	9	...........
	65	0.88	9.60090E-001	1.01470E-004	0.00000E+000	9.74204E-005	5.99601E-002	9.60409E-001	3.57720E+000	9	...........
	66	0.893333	9.64320E-001	1.01829E-004	0.00000E+000	9.81962E-005	5.99601E-002	9.64611E-001	3.57720E+000	9	...........
	67	0.906667	9.68451E-001	1.00867E-004	0.00000E+000	9.76845E-005	5.99601E-002	9.68760E-001	3.57720E+000	9	...........
	68	0.92	9.72566E-001	1.03014E-004	0.00000E+000	1.00188E-004	5.99601E-002	9.72868E-001	3.57720E+000	9	...........
	69	0.933333	9.76580E-001	1.00869E-004	0.00000E+000	9.85065E-005	5.99601E-002	9.76876E-001	3.57720E+000	9	...........
	70	0.946667	9.80515E-001	1.00754E-004	0.00000E+000	9.87911E-005	5.99601E-002	9.80798E-001	3.57720E+000	9	...........
	71	0.96	9.84349E-001	1.02511E-004	0.00000E+000	1.00906E-004	5.99601E-002	9.84645E-001	3.57720E+000	9	...........
	72	0.97333	9.88113E-001	1.00873E-004	0.00000E+000	9.96739E-005	5.99601E-002	9.88425E-001	3.57720E+000	9	...........
	73	0.98667	9.91779E-001	1.01114E-004	0.00000E+000	1.00282E-004	5.99601E-002	9.92095E-001	3.57720E+000	9	...........
	74	1	9.95343E-001	1.00889E-004	0.00000E+000	1.00419E-004	5.99601E-002	9.95680E-001	3.57720E+000	9	...........
	75	1.01333	9.98894E-001	1.00697E-004	0.00000E+000	1.00586E-004	5.99601E-002	9.99226E-001	3.57720E+000	9	...........
STARTTIMEOFFSET	QUANT	867.7721	Start Time Offset (s)
