EXPLAIN
TAG	PWR800_CHARGE
TITLE	LABEL	PWR Cyclic Charge Discharge (Cell) - Charge Step	Test &Identifier
DATE	LABEL	12-7-2017	Date
TIME	LABEL	16:36:50	Time
NOTES	NOTES	2	&Notes...
	supercap test cell
	6M KOH
PSTAT	PSTAT	IFC5000-01520	Potentiostat
CAPACITY	QUANT	1.00000E-003	Capacity (A-hr)
CELLTYPE	SELECTOR	1	&Cell Type
WORKINGCONNECTION	SELECTOR	0	&Working Lead
MAXCHARGETIME	VARIABLEANDUNITS	1.00000E+002	s	1.00000E+002	second(s)	Max &Charge Time
CHARGECURRENT	QUANT	1.00000E-004	&Charge Current (A) 
VOLTAGEFINISH	TWOPARAM	F	1.00000E-003	3.60000E+003	&Voltage Finish	 I (A) < 	Max Time(s)
SAMPLETIME	QUANT	1.00000E-002	Sa&mple Period (s)
CHARGESTOPAT1	MULTIPARAM	4	1.00000E+000	Charge Stop At &1	Voltage > Limit	V
CHARGESTOPAT2	MULTIPARAM	0	0.00000E+000	Charge Stop At &2	None	N/A
AESBHCSELECTOR	TOGGLE	F	Save Both Half Cells
IRCOMP	TOGGLE	F	IR &Measure
EOC	QUANT	0	Open Circuit (V)
SEQUENCER	TOGGLE	TRUE	Run as Sequence
PSTATMODEL	IQUANT	53	Pstat Model
PSTATSECTION	LABEL	IFC5000-01520	Pstat Section
PSTATSERIALNO	LABEL	01520	Pstat Serial Number
CTRLMODE	IQUANT	0	Control Mode
ELECTROMETER	IQUANT	1	RE=0 or CS=1
IESTAB	IQUANT	0	I/E Stability
CASPEED	IQUANT	4	Control Amp Speed
CONVENTION	IQUANT	1	Current Convention
ICHRANGE	IQUANT	2	Ich Range
ICHRANGEMODE	TOGGLE	T	Ich Auto Range
ICHOFFSETENABLE	TOGGLE	F	Ich Offset Enable
ICHOFFSET	QUANT	0	Ich Offset (V)
ICHFILTER	IQUANT	1	Ich Filter
VCHRANGE	IQUANT	2	Vch Range
VCHRANGEMODE	TOGGLE	T	Vch Auto Range
VCHOFFSETENABLE	TOGGLE	F	Vch Offset Enable
VCHOFFSET	QUANT	0	Vch Offset (V)
VCHFILTER	IQUANT	1	Vch Filter
IERANGELOWERLIMIT	IQUANT	9	I/E Range Lower Limit
IERANGEMODE	TOGGLE	F	I/E AutoRange
IERANGE	IQUANT	9	I/E Range
ACHSELECT	IQUANT	1	Ach Select
ACHRANGE	IQUANT	2	Ach Range
ACHOFFSETENABLE	TOGGLE	F	Ach Offset Enable
ACHOFFSET	QUANT	0	Ach Offset (V)
ACHFILTER	IQUANT	1	Ach Filter
CABLEID	IQUANT	14	Cable ID
DCCALDATE	LABEL	5-7-2017	DC Calibration Date
ACCALDATE	LABEL	12/3/2015	AC Calibration Date
FRAMEWORKVERSION	QUANT	7.01	Framework Version
INSTRUMENTVERSION	LABEL	4.00	Instrument Version
CURVE	TABLE	76
	Pt	T	Vf	Im	Vu	Pwr	Sig	Ach	Temp	IERange	Over
	#	s	V	A	V	W	V	V	deg C	#	bits
	0	0.013333	2.59211E-001	1.01609E-004	0.00000E+000	2.63380E-005	5.99601E-002	2.59289E-001	3.57660E+000	9	...........
	1	0.026667	2.82148E-001	1.01340E-004	0.00000E+000	2.85928E-005	5.99601E-002	2.82213E-001	3.57660E+000	9	...........
	2	0.04	3.03801E-001	1.00986E-004	0.00000E+000	3.06795E-005	5.99601E-002	3.03867E-001	3.57660E+000	9	...........
	3	0.053333	3.24533E-001	1.00763E-004	0.00000E+000	3.27008E-005	5.99601E-002	3.24601E-001	3.57660E+000	9	...........
	4	0.066667	3.44513E-001	1.01498E-004	0.00000E+000	3.49674E-005	5.99601E-002	3.44588E-001	3.57660E+000	9	...........
	5	0.08	3.63876E-001	1.00909E-004	0.00000E+000	3.67185E-005	5.99601E-002	3.63953E-001	3.57660E+000	9	...........
	6	0.093333	3.82700E-001	9.98197E-005	0.00000E+000	3.82010E-005	5.99601E-002	3.82780E-001	3.57660E+000	9	...........
	7	0.106667	4.01056E-001	1.01746E-004	0.00000E+000	4.08059E-005	5.99601E-002	4.01135E-001	3.57660E+000	9	...........
	8	0.12	4.18947E-001	1.01547E-004	0.00000E+000	4.25428E-005	5.99601E-002	4.19038E-001	3.57660E+000	9	...........
	9	0.133333	4.36431E-001	1.00508E-004	0.00000E+000	4.38650E-005	5.99601E-002	4.36524E-001	3.57660E+000	9	...........
	10	0.146667	4.53518E-001	1.00316E-004	0.00000E+000	4.54950E-005	5.99601E-002	4.53618E-001	3.57660E+000	9	...........
	11	0.16	4.70239E-001	1.00880E-004	0.00000E+000	4.74378E-005	5.99601E-002	4.70337E-001	3.57660E+000	9	...........
	12	0.173333	4.86582E-001	1.01117E-004	0.00000E+000	4.92016E-005	5.99601E-002	4.86686E-001	3.57660E+000	9	...........
	13	0.186667	5.02585E-001	1.00526E-004	0.00000E+000	5.05229E-005	5.99601E-002	5.02697E-001	3.57660E+000	9	...........
	14	0.2	5.18243E-001	1.02788E-004	0.00000E+000	5.32692E-005	5.99601E-002	5.18354E-001	3.57660E+000	9	...........
	15	0.213333	5.33438E-001	1.02137E-004	0.00000E+000	5.44836E-005	5.99601E-002	5.33585E-001	3.57660E+000	9	...........
	16	0.226667	5.48260E-001	1.00924E-004	0.00000E+000	5.53327E-005	5.99601E-002	5.48465E-001	3.57660E+000	9	...........
	17	0.24	5.62941E-001	1.00657E-004	0.00000E+000	5.66641E-005	5.99601E-002	5.63136E-001	3.57660E+000	9	...........
	18	0.253333	5.77270E-001	1.00333E-004	0.00000E+000	5.79194E-005	5.99601E-002	5.77463E-001	3.57660E+000	9	...........
	19	0.266667	5.91312E-001	1.02084E-004	0.00000E+000	6.03634E-005	5.99601E-002	5.91546E-001	3.57660E+000	9	...........
	20	0.28	6.05013E-001	1.00817E-004	0.00000E+000	6.09954E-005	5.99601E-002	6.05255E-001	3.57660E+000	9	...........
	21	0.293333	6.18471E-001	1.02341E-004	0.00000E+000	6.32950E-005	5.99601E-002	6.18669E-001	3.57660E+000	9	...........
	22	0.306667	6.31527E-001	1.01210E-004	0.00000E+000	6.39166E-005	5.99601E-002	6.31744E-001	3.57660E+000	9	...........
	23	0.32	6.44340E-001	1.00588E-004	0.00000E+000	6.48125E-005	5.99601E-002	6.44538E-001	3.57660E+000	9	...........
	24	0.333333	6.56837E-001	1.00755E-004	0.00000E+000	6.61798E-005	5.99601E-002	6.57028E-001	3.57660E+000	9	...........
	25	0.346667	6.69042E-001	1.01797E-004	0.00000E+000	6.81066E-005	5.99601E-002	6.69263E-001	3.57660E+000	9	...........
	26	0.36	6.80939E-001	1.00414E-004	0.00000E+000	6.83755E-005	5.99601E-002	6.81154E-001	3.57660E+000	9	...........
	27	0.373333	6.92535E-001	1.01130E-004	0.00000E+000	7.00363E-005	5.99601E-002	6.92777E-001	3.57660E+000	9	...........
	28	0.386667	7.03854E-001	1.00626E-004	0.00000E+000	7.08261E-005	5.99601E-002	7.04119E-001	3.57660E+000	9	...........
	29	0.4	7.14897E-001	1.00571E-004	0.00000E+000	7.18978E-005	5.99601E-002	7.15165E-001	3.57660E+000	9	...........
	30	0.413333	7.25660E-001	1.01201E-004	0.00000E+000	7.34376E-005	5.99601E-002	7.25918E-001	3.57660E+000	9	...........
	31	0.426667	7.36122E-001	1.01121E-004	0.00000E+000	7.44374E-005	5.99601E-002	7.36405E-001	3.57660E+000	9	...........
	32	0.44	7.46354E-001	1.00973E-004	0.00000E+000	7.53616E-005	5.99601E-002	7.46615E-001	3.57660E+000	9	...........
	33	0.453333	7.56257E-001	1.01906E-004	0.00000E+000	7.70668E-005	5.99601E-002	7.56530E-001	3.57660E+000	9	...........
	34	0.466667	7.65922E-001	9.98926E-005	0.00000E+000	7.65099E-005	5.99601E-002	7.66199E-001	3.57660E+000	9	...........
	35	0.48	7.75324E-001	1.01595E-004	0.00000E+000	7.87691E-005	5.99601E-002	7.75590E-001	3.57660E+000	9	...........
	36	0.493333	7.84441E-001	1.00874E-004	0.00000E+000	7.91298E-005	5.99601E-002	7.84729E-001	3.57660E+000	9	...........
	37	0.506667	7.93312E-001	1.01113E-004	0.00000E+000	8.02139E-005	5.99601E-002	7.93591E-001	3.57660E+000	9	...........
	38	0.52	8.01905E-001	1.01955E-004	0.00000E+000	8.17579E-005	5.99601E-002	8.02212E-001	3.57660E+000	9	...........
	39	0.533333	8.10255E-001	1.00080E-004	0.00000E+000	8.10904E-005	5.99601E-002	8.10570E-001	3.57660E+000	9	...........
	40	0.546667	8.18383E-001	1.02812E-004	0.00000E+000	8.41395E-005	5.99601E-002	8.18702E-001	3.57660E+000	9	...........
	41	0.56	8.26252E-001	1.00883E-004	0.00000E+000	8.33551E-005	5.99601E-002	8.26543E-001	3.57660E+000	9	...........
	42	0.573333	8.33857E-001	1.00601E-004	0.00000E+000	8.38869E-005	5.99601E-002	8.34161E-001	3.57660E+000	9	...........
	43	0.586667	8.41229E-001	1.01514E-004	0.00000E+000	8.53963E-005	5.99601E-002	8.41550E-001	3.57660E+000	9	...........
	44	0.6	8.48389E-001	1.01497E-004	0.00000E+000	8.61090E-005	5.99601E-002	8.48717E-001	3.57660E+000	9	...........
	45	0.613333	8.55315E-001	1.01212E-004	0.00000E+000	8.65678E-005	5.99601E-002	8.55632E-001	3.57660E+000	9	...........
	46	0.626667	8.62026E-001	1.01912E-004	0.00000E+000	8.78506E-005	5.99601E-002	8.62341E-001	3.57660E+000	9	...........
	47	0.64	8.68547E-001	1.01325E-004	0.00000E+000	8.80057E-005	5.99601E-002	8.68867E-001	3.57660E+000	9	...........
	48	0.653333	8.74853E-001	1.01185E-004	0.00000E+000	8.85217E-005	5.99601E-002	8.75158E-001	3.57660E+000	9	...........
	49	0.666667	8.80975E-001	1.01886E-004	0.00000E+000	8.97587E-005	5.99601E-002	8.81281E-001	3.57660E+000	9	...........
	50	0.68	8.86934E-001	1.01658E-004	0.00000E+000	9.01636E-005	5.99601E-002	8.87242E-001	3.57660E+000	9	...........
	51	0.693333	8.92715E-001	1.02497E-004	0.00000E+000	9.15009E-005	5.99601E-002	8.92995E-001	3.57660E+000	9	...........
	52	0.706667	8.98353E-001	1.00287E-004	0.00000E+000	9.00936E-005	5.99601E-002	8.98644E-001	3.57660E+000	9	...........
	53	0.72	9.03834E-001	1.01048E-004	0.00000E+000	9.13307E-005	5.99601E-002	9.04130E-001	3.57660E+000	9	...........
	54	0.733333	9.09187E-001	1.01010E-004	0.00000E+000	9.18366E-005	5.99601E-002	9.09502E-001	3.57660E+000	9	...........
	55	0.746667	9.14417E-001	1.00438E-004	0.00000E+000	9.18418E-005	5.99601E-002	9.14740E-001	3.57660E+000	9	...........
	56	0.76	9.19581E-001	1.01629E-004	0.00000E+000	9.34565E-005	5.99601E-002	9.19898E-001	3.57660E+000	9	...........
	57	0.773333	9.24642E-001	1.01514E-004	0.00000E+000	9.38639E-005	5.99601E-002	9.24918E-001	3.57660E+000	9	...........
	58	0.786667	9.29564E-001	1.01204E-004	0.00000E+000	9.40759E-005	5.99601E-002	9.29832E-001	3.57660E+000	9	...........
	59	0.8	9.34388E-001	1.01215E-004	0.00000E+000	9.45739E-005	5.99601E-002	9.34695E-001	3.57660E+000	9	...........
	60	0.813333	9.39117E-001	1.00555E-004	0.00000E+000	9.44332E-005	5.99601E-002	9.39440E-001	3.57660E+000	9	...........
	61	0.826667	9.43780E-001	1.01147E-004	0.00000E+000	9.54606E-005	5.99601E-002	9.44084E-001	3.57660E+000	9	...........
	62	0.84	9.48391E-001	1.00780E-004	0.00000E+000	9.55791E-005	5.99601E-002	9.48706E-001	3.57660E+000	9	...........
	63	0.853333	9.52912E-001	9.98343E-005	0.00000E+000	9.51333E-005	5.99601E-002	9.53231E-001	3.57765E+000	9	...........
	64	0.866667	9.57319E-001	1.01129E-004	0.00000E+000	9.68130E-005	5.99601E-002	9.57659E-001	3.57800E+000	9	...........
	65	0.88	9.61688E-001	1.00316E-004	0.00000E+000	9.64723E-005	5.99601E-002	9.62025E-001	3.57800E+000	9	...........
	66	0.893333	9.65971E-001	1.00728E-004	0.00000E+000	9.73005E-005	5.99601E-002	9.66261E-001	3.57800E+000	9	...........
	67	0.906667	9.70161E-001	9.96561E-005	0.00000E+000	9.66825E-005	5.99601E-002	9.70496E-001	3.57800E+000	9	...........
	68	0.92	9.74335E-001	1.01097E-004	0.00000E+000	9.85024E-005	5.99601E-002	9.74646E-001	3.57800E+000	9	...........
	69	0.933333	9.78381E-001	1.01157E-004	0.00000E+000	9.89705E-005	5.99601E-002	9.78718E-001	3.57800E+000	9	...........
	70	0.946667	9.82353E-001	1.02552E-004	0.00000E+000	1.00742E-004	5.99601E-002	9.82668E-001	3.57800E+000	9	...........
	71	0.96	9.86235E-001	1.00140E-004	0.00000E+000	9.87611E-005	5.99601E-002	9.86587E-001	3.57800E+000	9	...........
	72	0.97333	9.90037E-001	1.01655E-004	0.00000E+000	1.00643E-004	5.99601E-002	9.90387E-001	3.57800E+000	9	...........
	73	0.98667	9.93764E-001	1.01530E-004	0.00000E+000	1.00897E-004	5.99601E-002	9.94121E-001	3.57800E+000	9	...........
	74	1	9.97403E-001	1.01232E-004	0.00000E+000	1.00970E-004	5.99601E-002	9.97781E-001	3.57800E+000	9	...........
	75	1.005	9.99863E-001	1.00295E-004	0.00000E+000	1.00281E-004	5.99601E-002	1.00024E+000	3.57800E+000	9	...........
STARTTIMEOFFSET	QUANT	1144.67	Start Time Offset (s)
