EXPLAIN
TAG	PWR800_CHARGE
TITLE	LABEL	PWR Cyclic Charge Discharge (Cell) - Charge Step	Test &Identifier
DATE	LABEL	12-7-2017	Date
TIME	LABEL	16:17:56	Time
NOTES	NOTES	2	&Notes...
	supercap test cell
	6M KOH
PSTAT	PSTAT	IFC5000-01520	Potentiostat
CAPACITY	QUANT	1.00000E-003	Capacity (A-hr)
CELLTYPE	SELECTOR	1	&Cell Type
WORKINGCONNECTION	SELECTOR	0	&Working Lead
MAXCHARGETIME	VARIABLEANDUNITS	1.00000E+002	s	1.00000E+002	second(s)	Max &Charge Time
CHARGECURRENT	QUANT	1.00000E-004	&Charge Current (A) 
VOLTAGEFINISH	TWOPARAM	F	1.00000E-003	3.60000E+003	&Voltage Finish	 I (A) < 	Max Time(s)
SAMPLETIME	QUANT	1.00000E-002	Sa&mple Period (s)
CHARGESTOPAT1	MULTIPARAM	4	1.00000E+000	Charge Stop At &1	Voltage > Limit	V
CHARGESTOPAT2	MULTIPARAM	0	0.00000E+000	Charge Stop At &2	None	N/A
AESBHCSELECTOR	TOGGLE	F	Save Both Half Cells
IRCOMP	TOGGLE	F	IR &Measure
EOC	QUANT	0	Open Circuit (V)
SEQUENCER	TOGGLE	TRUE	Run as Sequence
PSTATMODEL	IQUANT	53	Pstat Model
PSTATSECTION	LABEL	IFC5000-01520	Pstat Section
PSTATSERIALNO	LABEL	01520	Pstat Serial Number
CTRLMODE	IQUANT	0	Control Mode
ELECTROMETER	IQUANT	1	RE=0 or CS=1
IESTAB	IQUANT	0	I/E Stability
CASPEED	IQUANT	4	Control Amp Speed
CONVENTION	IQUANT	1	Current Convention
ICHRANGE	IQUANT	2	Ich Range
ICHRANGEMODE	TOGGLE	T	Ich Auto Range
ICHOFFSETENABLE	TOGGLE	F	Ich Offset Enable
ICHOFFSET	QUANT	0	Ich Offset (V)
ICHFILTER	IQUANT	1	Ich Filter
VCHRANGE	IQUANT	2	Vch Range
VCHRANGEMODE	TOGGLE	T	Vch Auto Range
VCHOFFSETENABLE	TOGGLE	F	Vch Offset Enable
VCHOFFSET	QUANT	0	Vch Offset (V)
VCHFILTER	IQUANT	1	Vch Filter
IERANGELOWERLIMIT	IQUANT	9	I/E Range Lower Limit
IERANGEMODE	TOGGLE	F	I/E AutoRange
IERANGE	IQUANT	9	I/E Range
ACHSELECT	IQUANT	1	Ach Select
ACHRANGE	IQUANT	2	Ach Range
ACHOFFSETENABLE	TOGGLE	F	Ach Offset Enable
ACHOFFSET	QUANT	0	Ach Offset (V)
ACHFILTER	IQUANT	1	Ach Filter
CABLEID	IQUANT	14	Cable ID
DCCALDATE	LABEL	5-7-2017	DC Calibration Date
ACCALDATE	LABEL	12/3/2015	AC Calibration Date
FRAMEWORKVERSION	QUANT	7.01	Framework Version
INSTRUMENTVERSION	LABEL	4.00	Instrument Version
CURVE	TABLE	79
	Pt	T	Vf	Im	Vu	Pwr	Sig	Ach	Temp	IERange	Over
	#	s	V	A	V	W	V	V	deg C	#	bits
	0	0.013333	2.62071E-001	1.00688E-004	0.00000E+000	2.63872E-005	5.99601E-002	2.62149E-001	3.57730E+000	9	...........
	1	0.026667	2.84752E-001	1.00773E-004	0.00000E+000	2.86953E-005	5.99601E-002	2.84810E-001	3.57730E+000	9	...........
	2	0.04	3.05892E-001	1.01311E-004	0.00000E+000	3.09901E-005	5.99601E-002	3.05964E-001	3.57730E+000	9	...........
	3	0.053333	3.25908E-001	1.02089E-004	0.00000E+000	3.32716E-005	5.99601E-002	3.25976E-001	3.57730E+000	9	...........
	4	0.066667	3.44998E-001	1.01565E-004	0.00000E+000	3.50396E-005	5.99601E-002	3.45069E-001	3.57730E+000	9	...........
	5	0.08	3.63334E-001	1.00571E-004	0.00000E+000	3.65408E-005	5.99601E-002	3.63408E-001	3.57730E+000	9	...........
	6	0.093333	3.81022E-001	1.01580E-004	0.00000E+000	3.87044E-005	5.99601E-002	3.81099E-001	3.57730E+000	9	...........
	7	0.106667	3.98149E-001	1.00402E-004	0.00000E+000	3.99750E-005	5.99601E-002	3.98227E-001	3.57730E+000	9	...........
	8	0.12	4.14773E-001	1.01129E-004	0.00000E+000	4.19457E-005	5.99601E-002	4.14865E-001	3.57732E+000	9	...........
	9	0.133333	4.30952E-001	1.00836E-004	0.00000E+000	4.34552E-005	5.99601E-002	4.31048E-001	3.57750E+000	9	...........
	10	0.146667	4.46727E-001	1.01613E-004	0.00000E+000	4.53931E-005	5.99601E-002	4.46827E-001	3.57750E+000	9	...........
	11	0.16	4.62123E-001	1.01091E-004	0.00000E+000	4.67164E-005	5.99601E-002	4.62229E-001	3.57750E+000	9	...........
	12	0.173333	4.77176E-001	1.00276E-004	0.00000E+000	4.78493E-005	5.99601E-002	4.77275E-001	3.57750E+000	9	...........
	13	0.186667	4.91894E-001	1.01120E-004	0.00000E+000	4.97403E-005	5.99601E-002	4.91998E-001	3.57750E+000	9	...........
	14	0.2	5.06301E-001	1.00393E-004	0.00000E+000	5.08289E-005	5.99601E-002	5.06419E-001	3.57750E+000	9	...........
	15	0.213333	5.20432E-001	1.00802E-004	0.00000E+000	5.24606E-005	5.99601E-002	5.20545E-001	3.57750E+000	9	...........
	16	0.226667	5.34112E-001	1.01289E-004	0.00000E+000	5.40995E-005	5.99601E-002	5.34292E-001	3.57750E+000	9	...........
	17	0.24	5.47559E-001	1.00992E-004	0.00000E+000	5.52989E-005	5.99601E-002	5.47784E-001	3.57750E+000	9	...........
	18	0.253333	5.60876E-001	1.00922E-004	0.00000E+000	5.66047E-005	5.99601E-002	5.61130E-001	3.57750E+000	9	...........
	19	0.266667	5.73970E-001	1.00790E-004	0.00000E+000	5.78502E-005	5.99601E-002	5.74201E-001	3.57750E+000	9	...........
	20	0.28	5.86802E-001	1.00931E-004	0.00000E+000	5.92267E-005	5.99601E-002	5.87057E-001	3.57750E+000	9	...........
	21	0.293333	5.99423E-001	1.00873E-004	0.00000E+000	6.04656E-005	5.99601E-002	5.99685E-001	3.57750E+000	9	...........
	22	0.306667	6.11800E-001	1.00624E-004	0.00000E+000	6.15618E-005	5.99601E-002	6.12062E-001	3.57750E+000	9	...........
	23	0.32	6.23992E-001	1.01127E-004	0.00000E+000	6.31026E-005	5.99601E-002	6.24206E-001	3.57750E+000	9	...........
	24	0.333333	6.35906E-001	1.00204E-004	0.00000E+000	6.37205E-005	5.99601E-002	6.36151E-001	3.57750E+000	9	...........
	25	0.346667	6.47635E-001	1.01305E-004	0.00000E+000	6.56089E-005	5.99601E-002	6.47863E-001	3.57750E+000	9	...........
	26	0.36	6.59121E-001	1.00996E-004	0.00000E+000	6.65686E-005	5.99601E-002	6.59375E-001	3.57750E+000	9	...........
	27	0.373333	6.70459E-001	1.01392E-004	0.00000E+000	6.79791E-005	5.99601E-002	6.70668E-001	3.57750E+000	9	...........
	28	0.386667	6.81498E-001	1.01294E-004	0.00000E+000	6.90317E-005	5.99601E-002	6.81764E-001	3.57750E+000	9	...........
	29	0.4	6.92357E-001	1.00389E-004	0.00000E+000	6.95047E-005	5.99601E-002	6.92634E-001	3.57750E+000	9	...........
	30	0.413333	7.03025E-001	1.00964E-004	0.00000E+000	7.09800E-005	5.99601E-002	7.03300E-001	3.57750E+000	9	...........
	31	0.426667	7.13473E-001	1.00899E-004	0.00000E+000	7.19887E-005	5.99601E-002	7.13736E-001	3.57750E+000	9	...........
	32	0.44	7.23738E-001	1.01170E-004	0.00000E+000	7.32205E-005	5.99601E-002	7.23993E-001	3.57750E+000	9	...........
	33	0.453333	7.33748E-001	1.01273E-004	0.00000E+000	7.43089E-005	5.99601E-002	7.34011E-001	3.57750E+000	9	...........
	34	0.466667	7.43577E-001	1.01066E-004	0.00000E+000	7.51502E-005	5.99601E-002	7.43843E-001	3.57750E+000	9	...........
	35	0.48	7.53180E-001	1.00450E-004	0.00000E+000	7.56569E-005	5.99601E-002	7.53435E-001	3.57750E+000	9	...........
	36	0.493333	7.62565E-001	1.00742E-004	0.00000E+000	7.68221E-005	5.99601E-002	7.62831E-001	3.57750E+000	9	...........
	37	0.506667	7.71762E-001	1.00336E-004	0.00000E+000	7.74358E-005	5.99601E-002	7.72037E-001	3.57750E+000	9	...........
	38	0.52	7.80736E-001	1.00744E-004	0.00000E+000	7.86544E-005	5.99601E-002	7.81009E-001	3.57750E+000	9	...........
	39	0.533333	7.89518E-001	1.00788E-004	0.00000E+000	7.95736E-005	5.99601E-002	7.89800E-001	3.57750E+000	9	...........
	40	0.546667	7.98085E-001	1.01502E-004	0.00000E+000	8.10075E-005	5.99601E-002	7.98371E-001	3.57750E+000	9	...........
	41	0.56	8.06433E-001	1.00543E-004	0.00000E+000	8.10810E-005	5.99601E-002	8.06752E-001	3.57750E+000	9	...........
	42	0.573333	8.14555E-001	1.00731E-004	0.00000E+000	8.20512E-005	5.99601E-002	8.14916E-001	3.57750E+000	9	...........
	43	0.586667	8.22513E-001	9.95196E-005	0.00000E+000	8.18562E-005	5.99601E-002	8.22868E-001	3.57750E+000	9	...........
	44	0.6	8.30268E-001	1.01196E-004	0.00000E+000	8.40198E-005	5.99601E-002	8.30601E-001	3.57750E+000	9	...........
	45	0.613333	8.37795E-001	1.01471E-004	0.00000E+000	8.50119E-005	5.99601E-002	8.38143E-001	3.57750E+000	9	...........
	46	0.626667	8.45149E-001	1.01079E-004	0.00000E+000	8.54271E-005	5.99601E-002	8.45498E-001	3.57750E+000	9	...........
	47	0.64	8.52315E-001	1.00524E-004	0.00000E+000	8.56781E-005	5.99601E-002	8.52661E-001	3.57750E+000	9	...........
	48	0.653333	8.59264E-001	1.00338E-004	0.00000E+000	8.62164E-005	5.99601E-002	8.59642E-001	3.57750E+000	9	...........
	49	0.666667	8.66035E-001	1.01458E-004	0.00000E+000	8.78658E-005	5.99601E-002	8.66377E-001	3.57750E+000	9	...........
	50	0.68	8.72643E-001	1.01664E-004	0.00000E+000	8.87162E-005	5.99601E-002	8.72978E-001	3.57750E+000	9	...........
	51	0.693333	8.79003E-001	1.00166E-004	0.00000E+000	8.80458E-005	5.99601E-002	8.79343E-001	3.57750E+000	9	...........
	52	0.706667	8.85219E-001	1.00989E-004	0.00000E+000	8.93971E-005	5.99601E-002	8.85564E-001	3.57750E+000	9	...........
	53	0.72	8.91215E-001	1.00727E-004	0.00000E+000	8.97695E-005	5.99601E-002	8.91558E-001	3.57750E+000	9	...........
	54	0.733333	8.97047E-001	1.00754E-004	0.00000E+000	9.03813E-005	5.99601E-002	8.97423E-001	3.57750E+000	9	...........
	55	0.746667	9.02706E-001	1.01196E-004	0.00000E+000	9.13503E-005	5.99601E-002	9.03088E-001	3.57750E+000	9	...........
	56	0.76	9.08230E-001	1.00550E-004	0.00000E+000	9.13225E-005	5.99601E-002	9.08588E-001	3.57750E+000	9	...........
	57	0.773333	9.13569E-001	1.01194E-004	0.00000E+000	9.24476E-005	5.99601E-002	9.13910E-001	3.57750E+000	9	...........
	58	0.786667	9.18766E-001	1.01042E-004	0.00000E+000	9.28338E-005	5.99601E-002	9.19100E-001	3.57750E+000	9	...........
	59	0.8	9.23864E-001	1.00151E-004	0.00000E+000	9.25259E-005	5.99601E-002	9.24170E-001	3.57750E+000	9	...........
	60	0.813333	9.28777E-001	1.00585E-004	0.00000E+000	9.34215E-005	5.99601E-002	9.29084E-001	3.57750E+000	9	...........
	61	0.826667	9.33546E-001	1.00687E-004	0.00000E+000	9.39955E-005	5.99601E-002	9.33870E-001	3.57750E+000	9	...........
	62	0.84	9.38214E-001	1.01000E-004	0.00000E+000	9.47598E-005	5.99601E-002	9.38544E-001	3.57750E+000	9	...........
	63	0.853333	9.42756E-001	1.00572E-004	0.00000E+000	9.48148E-005	5.99601E-002	9.43085E-001	3.57750E+000	9	...........
	64	0.866667	9.47222E-001	1.00982E-004	0.00000E+000	9.56527E-005	5.99601E-002	9.47553E-001	3.57750E+000	9	...........
	65	0.88	9.51594E-001	1.01473E-004	0.00000E+000	9.65613E-005	5.99601E-002	9.51910E-001	3.57750E+000	9	...........
	66	0.893333	9.55815E-001	1.01072E-004	0.00000E+000	9.66061E-005	5.99601E-002	9.56148E-001	3.57750E+000	9	...........
	67	0.906667	9.59972E-001	1.00482E-004	0.00000E+000	9.64603E-005	5.99601E-002	9.60330E-001	3.57750E+000	9	...........
	68	0.92	9.64059E-001	1.00300E-004	0.00000E+000	9.66951E-005	5.99601E-002	9.64401E-001	3.57750E+000	9	...........
	69	0.933333	9.68018E-001	1.01072E-004	0.00000E+000	9.78395E-005	5.99601E-002	9.68384E-001	3.57750E+000	9	...........
	70	0.946667	9.71972E-001	1.01029E-004	0.00000E+000	9.81976E-005	5.99601E-002	9.72340E-001	3.57750E+000	9	...........
	71	0.96	9.75798E-001	1.01274E-004	0.00000E+000	9.88231E-005	5.99601E-002	9.76148E-001	3.57750E+000	9	...........
	72	0.97333	9.79546E-001	1.01411E-004	0.00000E+000	9.93364E-005	5.99601E-002	9.79881E-001	3.57750E+000	9	...........
	73	0.98667	9.83191E-001	1.00778E-004	0.00000E+000	9.90842E-005	5.99601E-002	9.83515E-001	3.57750E+000	9	...........
	74	1	9.86756E-001	1.00420E-004	0.00000E+000	9.90899E-005	5.99601E-002	9.87091E-001	3.57750E+000	9	...........
	75	1.01333	9.90237E-001	1.00842E-004	0.00000E+000	9.98573E-005	5.99601E-002	9.90604E-001	3.57750E+000	9	...........
	76	1.02667	9.93657E-001	1.00932E-004	0.00000E+000	1.00292E-004	5.99601E-002	9.93985E-001	3.57750E+000	9	...........
	77	1.04	9.96962E-001	1.00776E-004	0.00000E+000	1.00470E-004	5.99601E-002	9.97321E-001	3.57750E+000	9	...........
	78	1.04667	9.99421E-001	1.01319E-004	0.00000E+000	1.01260E-004	5.99601E-002	9.99805E-001	3.57750E+000	9	...........
STARTTIMEOFFSET	QUANT	336.8766	Start Time Offset (s)
