EXPLAIN
TAG	PWR800_CHARGE
TITLE	LABEL	PWR Cyclic Charge Discharge (Cell) - Charge Step	Test &Identifier
DATE	LABEL	12-7-2017	Date
TIME	LABEL	16:17:48	Time
NOTES	NOTES	2	&Notes...
	supercap test cell
	6M KOH
PSTAT	PSTAT	IFC5000-01520	Potentiostat
CAPACITY	QUANT	1.00000E-003	Capacity (A-hr)
CELLTYPE	SELECTOR	1	&Cell Type
WORKINGCONNECTION	SELECTOR	0	&Working Lead
MAXCHARGETIME	VARIABLEANDUNITS	1.00000E+002	s	1.00000E+002	second(s)	Max &Charge Time
CHARGECURRENT	QUANT	1.00000E-004	&Charge Current (A) 
VOLTAGEFINISH	TWOPARAM	F	1.00000E-003	3.60000E+003	&Voltage Finish	 I (A) < 	Max Time(s)
SAMPLETIME	QUANT	1.00000E-002	Sa&mple Period (s)
CHARGESTOPAT1	MULTIPARAM	4	1.00000E+000	Charge Stop At &1	Voltage > Limit	V
CHARGESTOPAT2	MULTIPARAM	0	0.00000E+000	Charge Stop At &2	None	N/A
AESBHCSELECTOR	TOGGLE	F	Save Both Half Cells
IRCOMP	TOGGLE	F	IR &Measure
EOC	QUANT	0	Open Circuit (V)
SEQUENCER	TOGGLE	TRUE	Run as Sequence
PSTATMODEL	IQUANT	53	Pstat Model
PSTATSECTION	LABEL	IFC5000-01520	Pstat Section
PSTATSERIALNO	LABEL	01520	Pstat Serial Number
CTRLMODE	IQUANT	0	Control Mode
ELECTROMETER	IQUANT	1	RE=0 or CS=1
IESTAB	IQUANT	0	I/E Stability
CASPEED	IQUANT	4	Control Amp Speed
CONVENTION	IQUANT	1	Current Convention
ICHRANGE	IQUANT	2	Ich Range
ICHRANGEMODE	TOGGLE	T	Ich Auto Range
ICHOFFSETENABLE	TOGGLE	F	Ich Offset Enable
ICHOFFSET	QUANT	0	Ich Offset (V)
ICHFILTER	IQUANT	1	Ich Filter
VCHRANGE	IQUANT	2	Vch Range
VCHRANGEMODE	TOGGLE	T	Vch Auto Range
VCHOFFSETENABLE	TOGGLE	F	Vch Offset Enable
VCHOFFSET	QUANT	0	Vch Offset (V)
VCHFILTER	IQUANT	1	Vch Filter
IERANGELOWERLIMIT	IQUANT	9	I/E Range Lower Limit
IERANGEMODE	TOGGLE	F	I/E AutoRange
IERANGE	IQUANT	9	I/E Range
ACHSELECT	IQUANT	1	Ach Select
ACHRANGE	IQUANT	2	Ach Range
ACHOFFSETENABLE	TOGGLE	F	Ach Offset Enable
ACHOFFSET	QUANT	0	Ach Offset (V)
ACHFILTER	IQUANT	1	Ach Filter
CABLEID	IQUANT	14	Cable ID
DCCALDATE	LABEL	5-7-2017	DC Calibration Date
ACCALDATE	LABEL	12/3/2015	AC Calibration Date
FRAMEWORKVERSION	QUANT	7.01	Framework Version
INSTRUMENTVERSION	LABEL	4.00	Instrument Version
CURVE	TABLE	79
	Pt	T	Vf	Im	Vu	Pwr	Sig	Ach	Temp	IERange	Over
	#	s	V	A	V	W	V	V	deg C	#	bits
	0	0.013333	2.59230E-001	1.00289E-004	0.00000E+000	2.59978E-005	5.99601E-002	2.59307E-001	3.57850E+000	9	...........
	1	0.026667	2.82011E-001	1.00577E-004	0.00000E+000	2.83639E-005	5.99601E-002	2.82075E-001	3.57850E+000	9	...........
	2	0.04	3.03259E-001	1.01354E-004	0.00000E+000	3.07367E-005	5.99601E-002	3.03324E-001	3.57850E+000	9	...........
	3	0.053333	3.23355E-001	1.00128E-004	0.00000E+000	3.23769E-005	5.99601E-002	3.23424E-001	3.57850E+000	9	...........
	4	0.066667	3.42536E-001	1.00349E-004	0.00000E+000	3.43731E-005	5.99601E-002	3.42601E-001	3.57850E+000	9	...........
	5	0.08	3.60948E-001	1.00906E-004	0.00000E+000	3.64220E-005	5.99601E-002	3.61028E-001	3.57850E+000	9	...........
	6	0.093333	3.78701E-001	1.01481E-004	0.00000E+000	3.84311E-005	5.99601E-002	3.78786E-001	3.57850E+000	9	...........
	7	0.106667	3.95894E-001	1.01143E-004	0.00000E+000	4.00419E-005	5.99601E-002	3.95976E-001	3.57850E+000	9	...........
	8	0.12	4.12576E-001	1.00675E-004	0.00000E+000	4.15362E-005	5.99601E-002	4.12670E-001	3.57850E+000	9	...........
	9	0.133333	4.28812E-001	1.01399E-004	0.00000E+000	4.34812E-005	5.99601E-002	4.28904E-001	3.57850E+000	9	...........
	10	0.146667	4.44627E-001	1.00803E-004	0.00000E+000	4.48198E-005	5.99601E-002	4.44723E-001	3.57850E+000	9	...........
	11	0.16	4.60070E-001	1.00461E-004	0.00000E+000	4.62193E-005	5.99601E-002	4.60169E-001	3.57850E+000	9	...........
	12	0.173333	4.75164E-001	1.01212E-004	0.00000E+000	4.80921E-005	5.99601E-002	4.75271E-001	3.57850E+000	9	...........
	13	0.186667	4.89927E-001	1.02107E-004	0.00000E+000	5.00248E-005	5.99601E-002	4.90038E-001	3.57850E+000	9	...........
	14	0.2	5.04376E-001	1.00330E-004	0.00000E+000	5.06041E-005	5.99601E-002	5.04490E-001	3.57850E+000	9	...........
	15	0.213333	5.18541E-001	1.00303E-004	0.00000E+000	5.20113E-005	5.99601E-002	5.18661E-001	3.57850E+000	9	...........
	16	0.226667	5.32292E-001	1.00436E-004	0.00000E+000	5.34615E-005	5.99601E-002	5.32464E-001	3.57850E+000	9	...........
	17	0.24	5.45723E-001	9.96769E-005	0.00000E+000	5.43960E-005	5.99601E-002	5.45982E-001	3.57850E+000	9	...........
	18	0.253333	5.59069E-001	1.00901E-004	0.00000E+000	5.64107E-005	5.99601E-002	5.59326E-001	3.57850E+000	9	...........
	19	0.266667	5.72202E-001	1.00593E-004	0.00000E+000	5.75593E-005	5.99601E-002	5.72462E-001	3.57850E+000	9	...........
	20	0.28	5.85075E-001	1.00807E-004	0.00000E+000	5.89799E-005	5.99601E-002	5.85347E-001	3.57850E+000	9	...........
	21	0.293333	5.97707E-001	1.01592E-004	0.00000E+000	6.07222E-005	5.99601E-002	5.97993E-001	3.57850E+000	9	...........
	22	0.306667	6.10104E-001	1.01280E-004	0.00000E+000	6.17916E-005	5.99601E-002	6.10379E-001	3.57850E+000	9	...........
	23	0.32	6.22339E-001	1.01227E-004	0.00000E+000	6.29977E-005	5.99601E-002	6.22597E-001	3.57850E+000	9	...........
	24	0.333333	6.34282E-001	1.00606E-004	0.00000E+000	6.38128E-005	5.99601E-002	6.34549E-001	3.57850E+000	9	...........
	25	0.346667	6.46061E-001	1.01598E-004	0.00000E+000	6.56387E-005	5.99601E-002	6.46326E-001	3.57850E+000	9	...........
	26	0.36	6.57594E-001	1.00749E-004	0.00000E+000	6.62520E-005	5.99601E-002	6.57861E-001	3.57850E+000	9	...........
	27	0.373333	6.68941E-001	1.01118E-004	0.00000E+000	6.76419E-005	5.99601E-002	6.69190E-001	3.57850E+000	9	...........
	28	0.386667	6.80059E-001	1.01085E-004	0.00000E+000	6.87434E-005	5.99601E-002	6.80300E-001	3.57850E+000	9	...........
	29	0.4	6.90933E-001	1.00255E-004	0.00000E+000	6.92696E-005	5.99601E-002	6.91205E-001	3.57850E+000	9	...........
	30	0.413333	7.01638E-001	1.01582E-004	0.00000E+000	7.12735E-005	5.99601E-002	7.01908E-001	3.57850E+000	9	...........
	31	0.426667	7.12107E-001	1.01538E-004	0.00000E+000	7.23058E-005	5.99601E-002	7.12359E-001	3.57850E+000	9	...........
	32	0.44	7.22415E-001	1.00890E-004	0.00000E+000	7.28842E-005	5.99601E-002	7.22658E-001	3.57850E+000	9	...........
	33	0.453333	7.32438E-001	1.00721E-004	0.00000E+000	7.37719E-005	5.99601E-002	7.32709E-001	3.57850E+000	9	...........
	34	0.466667	7.42290E-001	1.01572E-004	0.00000E+000	7.53959E-005	5.99601E-002	7.42564E-001	3.57850E+000	9	...........
	35	0.48	7.51947E-001	1.00851E-004	0.00000E+000	7.58347E-005	5.99601E-002	7.52210E-001	3.57781E+000	9	...........
	36	0.493333	7.61375E-001	1.00826E-004	0.00000E+000	7.67665E-005	5.99601E-002	7.61639E-001	3.57740E+000	9	...........
	37	0.506667	7.70597E-001	1.00515E-004	0.00000E+000	7.74563E-005	5.99601E-002	7.70877E-001	3.57740E+000	9	...........
	38	0.52	7.79605E-001	1.01485E-004	0.00000E+000	7.91179E-005	5.99601E-002	7.79884E-001	3.57740E+000	9	...........
	39	0.533333	7.88420E-001	1.01191E-004	0.00000E+000	7.97809E-005	5.99601E-002	7.88686E-001	3.57740E+000	9	...........
	40	0.546667	7.97032E-001	1.00390E-004	0.00000E+000	8.00137E-005	5.99601E-002	7.97321E-001	3.57740E+000	9	...........
	41	0.56	8.05393E-001	1.00995E-004	0.00000E+000	8.13406E-005	5.99601E-002	8.05698E-001	3.57740E+000	9	...........
	42	0.573333	8.13570E-001	1.01186E-004	0.00000E+000	8.23215E-005	5.99601E-002	8.13872E-001	3.57740E+000	9	...........
	43	0.586667	8.21569E-001	1.01193E-004	0.00000E+000	8.31369E-005	5.99601E-002	8.21882E-001	3.57740E+000	9	...........
	44	0.6	8.29335E-001	1.00950E-004	0.00000E+000	8.37215E-005	5.99601E-002	8.29671E-001	3.57740E+000	9	...........
	45	0.613333	8.36897E-001	1.00635E-004	0.00000E+000	8.42215E-005	5.99601E-002	8.37247E-001	3.57740E+000	9	...........
	46	0.626667	8.44297E-001	1.01555E-004	0.00000E+000	8.57430E-005	5.99601E-002	8.44647E-001	3.57740E+000	9	...........
	47	0.64	8.51487E-001	1.00627E-004	0.00000E+000	8.56827E-005	5.99601E-002	8.51839E-001	3.57740E+000	9	...........
	48	0.653333	8.58462E-001	1.01839E-004	0.00000E+000	8.74248E-005	5.99601E-002	8.58833E-001	3.57740E+000	9	...........
	49	0.666667	8.65246E-001	1.00659E-004	0.00000E+000	8.70952E-005	5.99601E-002	8.65619E-001	3.57740E+000	9	...........
	50	0.68	8.71884E-001	1.01831E-004	0.00000E+000	8.87844E-005	5.99601E-002	8.72227E-001	3.57740E+000	9	...........
	51	0.693333	8.78287E-001	1.00608E-004	0.00000E+000	8.83631E-005	5.99601E-002	8.78632E-001	3.57740E+000	9	...........
	52	0.706667	8.84508E-001	1.00524E-004	0.00000E+000	8.89143E-005	5.99601E-002	8.84876E-001	3.57740E+000	9	...........
	53	0.72	8.90568E-001	1.00267E-004	0.00000E+000	8.92943E-005	5.99601E-002	8.90891E-001	3.57740E+000	9	...........
	54	0.733333	8.96446E-001	1.01358E-004	0.00000E+000	9.08616E-005	5.99601E-002	8.96799E-001	3.57740E+000	9	...........
	55	0.746667	9.02124E-001	1.00830E-004	0.00000E+000	9.09614E-005	5.99601E-002	9.02490E-001	3.57740E+000	9	...........
	56	0.76	9.07652E-001	1.00986E-004	0.00000E+000	9.16597E-005	5.99601E-002	9.08005E-001	3.57740E+000	9	...........
	57	0.773333	9.13019E-001	1.00990E-004	0.00000E+000	9.22055E-005	5.99601E-002	9.13370E-001	3.57740E+000	9	...........
	58	0.786667	9.18235E-001	1.00889E-004	0.00000E+000	9.26394E-005	5.99601E-002	9.18608E-001	3.57740E+000	9	...........
	59	0.8	9.23375E-001	1.00956E-004	0.00000E+000	9.32206E-005	5.99601E-002	9.23682E-001	3.57740E+000	9	...........
	60	0.813333	9.28285E-001	1.01052E-004	0.00000E+000	9.38052E-005	5.99601E-002	9.28602E-001	3.57740E+000	9	...........
	61	0.826667	9.33090E-001	1.00619E-004	0.00000E+000	9.38864E-005	5.99601E-002	9.33420E-001	3.57740E+000	9	...........
	62	0.84	9.37761E-001	1.01085E-004	0.00000E+000	9.47931E-005	5.99601E-002	9.38115E-001	3.57740E+000	9	...........
	63	0.853333	9.42323E-001	1.01023E-004	0.00000E+000	9.51964E-005	5.99601E-002	9.42670E-001	3.57740E+000	9	...........
	64	0.866667	9.46819E-001	1.01080E-004	0.00000E+000	9.57048E-005	5.99601E-002	9.47171E-001	3.57740E+000	9	...........
	65	0.88	9.51185E-001	1.00677E-004	0.00000E+000	9.57626E-005	5.99601E-002	9.51529E-001	3.57740E+000	9	...........
	66	0.893333	9.55422E-001	1.00599E-004	0.00000E+000	9.61145E-005	5.99601E-002	9.55779E-001	3.57740E+000	9	...........
	67	0.906667	9.59587E-001	1.00967E-004	0.00000E+000	9.68865E-005	5.99601E-002	9.59943E-001	3.57740E+000	9	...........
	68	0.92	9.63671E-001	1.01046E-004	0.00000E+000	9.73751E-005	5.99601E-002	9.64016E-001	3.57740E+000	9	...........
	69	0.933333	9.67664E-001	1.01623E-004	0.00000E+000	9.83371E-005	5.99601E-002	9.68010E-001	3.57740E+000	9	...........
	70	0.946667	9.71589E-001	1.01813E-004	0.00000E+000	9.89202E-005	5.99601E-002	9.71948E-001	3.57740E+000	9	...........
	71	0.96	9.75443E-001	1.00009E-004	0.00000E+000	9.75534E-005	5.99601E-002	9.75804E-001	3.57740E+000	9	...........
	72	0.97333	9.79193E-001	1.01715E-004	0.00000E+000	9.95985E-005	5.99601E-002	9.79549E-001	3.57740E+000	9	...........
	73	0.98667	9.82850E-001	1.02006E-004	0.00000E+000	1.00256E-004	5.99601E-002	9.83219E-001	3.57740E+000	9	...........
	74	1	9.86410E-001	1.00535E-004	0.00000E+000	9.91692E-005	5.99601E-002	9.86817E-001	3.57740E+000	9	...........
	75	1.01333	9.89919E-001	1.01061E-004	0.00000E+000	1.00042E-004	5.99601E-002	9.90306E-001	3.57740E+000	9	...........
	76	1.02667	9.93326E-001	1.01279E-004	0.00000E+000	1.00603E-004	5.99601E-002	9.93724E-001	3.57740E+000	9	...........
	77	1.04	9.96677E-001	1.00174E-004	0.00000E+000	9.98411E-005	5.99601E-002	9.97064E-001	3.57740E+000	9	...........
	78	1.04833	9.99360E-001	1.00638E-004	0.00000E+000	1.00574E-004	5.99601E-002	9.99735E-001	3.57740E+000	9	...........
STARTTIMEOFFSET	QUANT	330.88	Start Time Offset (s)
