EXPLAIN
TAG	PWR800_CHARGE
TITLE	LABEL	PWR Cyclic Charge Discharge (Cell) - Charge Step	Test &Identifier
DATE	LABEL	12-7-2017	Date
TIME	LABEL	16:39:25	Time
NOTES	NOTES	2	&Notes...
	supercap test cell
	6M KOH
PSTAT	PSTAT	IFC5000-01520	Potentiostat
CAPACITY	QUANT	1.00000E-003	Capacity (A-hr)
CELLTYPE	SELECTOR	1	&Cell Type
WORKINGCONNECTION	SELECTOR	0	&Working Lead
MAXCHARGETIME	VARIABLEANDUNITS	1.00000E+002	s	1.00000E+002	second(s)	Max &Charge Time
CHARGECURRENT	QUANT	1.00000E-004	&Charge Current (A) 
VOLTAGEFINISH	TWOPARAM	F	1.00000E-003	3.60000E+003	&Voltage Finish	 I (A) < 	Max Time(s)
SAMPLETIME	QUANT	1.00000E-002	Sa&mple Period (s)
CHARGESTOPAT1	MULTIPARAM	4	1.00000E+000	Charge Stop At &1	Voltage > Limit	V
CHARGESTOPAT2	MULTIPARAM	0	0.00000E+000	Charge Stop At &2	None	N/A
AESBHCSELECTOR	TOGGLE	F	Save Both Half Cells
IRCOMP	TOGGLE	F	IR &Measure
EOC	QUANT	0	Open Circuit (V)
SEQUENCER	TOGGLE	TRUE	Run as Sequence
PSTATMODEL	IQUANT	53	Pstat Model
PSTATSECTION	LABEL	IFC5000-01520	Pstat Section
PSTATSERIALNO	LABEL	01520	Pstat Serial Number
CTRLMODE	IQUANT	0	Control Mode
ELECTROMETER	IQUANT	1	RE=0 or CS=1
IESTAB	IQUANT	0	I/E Stability
CASPEED	IQUANT	4	Control Amp Speed
CONVENTION	IQUANT	1	Current Convention
ICHRANGE	IQUANT	2	Ich Range
ICHRANGEMODE	TOGGLE	T	Ich Auto Range
ICHOFFSETENABLE	TOGGLE	F	Ich Offset Enable
ICHOFFSET	QUANT	0	Ich Offset (V)
ICHFILTER	IQUANT	1	Ich Filter
VCHRANGE	IQUANT	2	Vch Range
VCHRANGEMODE	TOGGLE	T	Vch Auto Range
VCHOFFSETENABLE	TOGGLE	F	Vch Offset Enable
VCHOFFSET	QUANT	0	Vch Offset (V)
VCHFILTER	IQUANT	1	Vch Filter
IERANGELOWERLIMIT	IQUANT	9	I/E Range Lower Limit
IERANGEMODE	TOGGLE	F	I/E AutoRange
IERANGE	IQUANT	9	I/E Range
ACHSELECT	IQUANT	1	Ach Select
ACHRANGE	IQUANT	2	Ach Range
ACHOFFSETENABLE	TOGGLE	F	Ach Offset Enable
ACHOFFSET	QUANT	0	Ach Offset (V)
ACHFILTER	IQUANT	1	Ach Filter
CABLEID	IQUANT	14	Cable ID
DCCALDATE	LABEL	5-7-2017	DC Calibration Date
ACCALDATE	LABEL	12/3/2015	AC Calibration Date
FRAMEWORKVERSION	QUANT	7.01	Framework Version
INSTRUMENTVERSION	LABEL	4.00	Instrument Version
CURVE	TABLE	75
	Pt	T	Vf	Im	Vu	Pwr	Sig	Ach	Temp	IERange	Over
	#	s	V	A	V	W	V	V	deg C	#	bits
	0	0.013333	2.60446E-001	1.01421E-004	0.00000E+000	2.64147E-005	5.99601E-002	2.60513E-001	3.57790E+000	9	...........
	1	0.026667	2.83391E-001	1.00147E-004	0.00000E+000	2.83808E-005	5.99601E-002	2.83449E-001	3.57790E+000	9	...........
	2	0.04	3.05065E-001	9.96071E-005	0.00000E+000	3.03867E-005	5.99601E-002	3.05129E-001	3.57790E+000	9	...........
	3	0.053333	3.25821E-001	1.00855E-004	0.00000E+000	3.28607E-005	5.99601E-002	3.25886E-001	3.57790E+000	9	...........
	4	0.066667	3.45855E-001	1.00772E-004	0.00000E+000	3.48525E-005	5.99601E-002	3.45920E-001	3.57790E+000	9	...........
	5	0.08	3.65270E-001	1.00852E-004	0.00000E+000	3.68383E-005	5.99601E-002	3.65343E-001	3.57790E+000	9	...........
	6	0.093333	3.84163E-001	1.00033E-004	0.00000E+000	3.84291E-005	5.99601E-002	3.84236E-001	3.57790E+000	9	...........
	7	0.106667	4.02565E-001	1.00286E-004	0.00000E+000	4.03719E-005	5.99601E-002	4.02636E-001	3.57790E+000	9	...........
	8	0.12	4.20532E-001	9.98353E-005	0.00000E+000	4.19839E-005	5.99601E-002	4.20616E-001	3.57790E+000	9	...........
	9	0.133333	4.38087E-001	1.00106E-004	0.00000E+000	4.38552E-005	5.99601E-002	4.38173E-001	3.57790E+000	9	...........
	10	0.146667	4.55236E-001	1.01325E-004	0.00000E+000	4.61269E-005	5.99601E-002	4.55330E-001	3.57790E+000	9	...........
	11	0.16	4.72015E-001	9.96092E-005	0.00000E+000	4.70171E-005	5.99601E-002	4.72113E-001	3.57790E+000	9	...........
	12	0.173333	4.88424E-001	1.00802E-004	0.00000E+000	4.92342E-005	5.99601E-002	4.88518E-001	3.57790E+000	9	...........
	13	0.186667	5.04472E-001	1.00194E-004	0.00000E+000	5.05450E-005	5.99601E-002	5.04580E-001	3.57790E+000	9	...........
	14	0.2	5.20189E-001	1.00823E-004	0.00000E+000	5.24470E-005	5.99601E-002	5.20299E-001	3.57790E+000	9	...........
	15	0.213333	5.35416E-001	9.99666E-005	0.00000E+000	5.35237E-005	5.99601E-002	5.35556E-001	3.57790E+000	9	...........
	16	0.226667	5.50314E-001	1.00948E-004	0.00000E+000	5.55531E-005	5.99601E-002	5.50546E-001	3.57790E+000	9	...........
	17	0.24	5.65019E-001	1.00889E-004	0.00000E+000	5.70040E-005	5.99601E-002	5.65232E-001	3.57790E+000	9	...........
	18	0.253333	5.79383E-001	9.95248E-005	0.00000E+000	5.76630E-005	5.99601E-002	5.79623E-001	3.57790E+000	9	...........
	19	0.266667	5.93441E-001	1.00933E-004	0.00000E+000	5.98980E-005	5.99601E-002	5.93667E-001	3.57790E+000	9	...........
	20	0.28	6.07137E-001	1.01171E-004	0.00000E+000	6.14247E-005	5.99601E-002	6.07418E-001	3.57790E+000	9	...........
	21	0.293333	6.20642E-001	1.01298E-004	0.00000E+000	6.28699E-005	5.99601E-002	6.20849E-001	3.57790E+000	9	...........
	22	0.306667	6.33711E-001	1.01349E-004	0.00000E+000	6.42260E-005	5.99601E-002	6.33949E-001	3.57790E+000	9	...........
	23	0.32	6.46529E-001	1.00492E-004	0.00000E+000	6.49708E-005	5.99601E-002	6.46772E-001	3.57790E+000	9	...........
	24	0.333333	6.59036E-001	1.01523E-004	0.00000E+000	6.69074E-005	5.99601E-002	6.59278E-001	3.57790E+000	9	...........
	25	0.346667	6.71247E-001	1.01284E-004	0.00000E+000	6.79863E-005	5.99601E-002	6.71514E-001	3.57790E+000	9	...........
	26	0.36	6.83114E-001	1.00113E-004	0.00000E+000	6.83889E-005	5.99601E-002	6.83389E-001	3.57790E+000	9	...........
	27	0.373333	6.94738E-001	1.00333E-004	0.00000E+000	6.97054E-005	5.99601E-002	6.95008E-001	3.57790E+000	9	...........
	28	0.386667	7.06030E-001	1.00721E-004	0.00000E+000	7.11120E-005	5.99601E-002	7.06306E-001	3.57790E+000	9	...........
	29	0.4	7.17069E-001	1.00946E-004	0.00000E+000	7.23852E-005	5.99601E-002	7.17323E-001	3.57790E+000	9	...........
	30	0.413333	7.27815E-001	1.00345E-004	0.00000E+000	7.30325E-005	5.99601E-002	7.28068E-001	3.57790E+000	9	...........
	31	0.426667	7.38247E-001	1.00704E-004	0.00000E+000	7.43446E-005	5.99601E-002	7.38513E-001	3.57790E+000	9	...........
	32	0.44	7.48437E-001	1.00802E-004	0.00000E+000	7.54441E-005	5.99601E-002	7.48691E-001	3.57790E+000	9	...........
	33	0.453333	7.58332E-001	1.00720E-004	0.00000E+000	7.63791E-005	5.99601E-002	7.58571E-001	3.57790E+000	9	...........
	34	0.466667	7.67943E-001	1.00464E-004	0.00000E+000	7.71503E-005	5.99601E-002	7.68215E-001	3.57790E+000	9	...........
	35	0.48	7.77319E-001	9.99020E-005	0.00000E+000	7.76557E-005	5.99601E-002	7.77566E-001	3.57790E+000	9	...........
	36	0.493333	7.86393E-001	1.01190E-004	0.00000E+000	7.95750E-005	5.99601E-002	7.86665E-001	3.57790E+000	9	...........
	37	0.506667	7.95237E-001	1.00650E-004	0.00000E+000	8.00406E-005	5.99601E-002	7.95509E-001	3.57790E+000	9	...........
	38	0.52	8.03811E-001	1.01085E-004	0.00000E+000	8.12529E-005	5.99601E-002	8.04081E-001	3.57790E+000	9	...........
	39	0.533333	8.12099E-001	1.01331E-004	0.00000E+000	8.22912E-005	5.99601E-002	8.12382E-001	3.57790E+000	9	...........
	40	0.546667	8.20163E-001	1.02015E-004	0.00000E+000	8.36689E-005	5.99601E-002	8.20475E-001	3.57790E+000	9	...........
	41	0.56	8.27962E-001	1.00605E-004	0.00000E+000	8.32974E-005	5.99601E-002	8.28255E-001	3.57770E+000	9	...........
	42	0.573333	8.35496E-001	1.00654E-004	0.00000E+000	8.40963E-005	5.99601E-002	8.35832E-001	3.57770E+000	9	...........
	43	0.586667	8.42857E-001	1.00898E-004	0.00000E+000	8.50426E-005	5.99601E-002	8.43166E-001	3.57770E+000	9	...........
	44	0.6	8.49942E-001	1.01662E-004	0.00000E+000	8.64066E-005	5.99601E-002	8.50258E-001	3.57770E+000	9	...........
	45	0.613333	8.56823E-001	1.02360E-004	0.00000E+000	8.77042E-005	5.99601E-002	8.57147E-001	3.57770E+000	9	...........
	46	0.626667	8.63493E-001	1.00468E-004	0.00000E+000	8.67532E-005	5.99601E-002	8.63792E-001	3.57770E+000	9	...........
	47	0.64	8.69972E-001	1.01184E-004	0.00000E+000	8.80268E-005	5.99601E-002	8.70294E-001	3.57770E+000	9	...........
	48	0.653333	8.76231E-001	9.99239E-005	0.00000E+000	8.75564E-005	5.99601E-002	8.76557E-001	3.57770E+000	9	...........
	49	0.666667	8.82333E-001	1.01764E-004	0.00000E+000	8.97895E-005	5.99601E-002	8.82622E-001	3.57770E+000	9	...........
	50	0.68	8.88247E-001	1.01176E-004	0.00000E+000	8.98695E-005	5.99601E-002	8.88542E-001	3.57770E+000	9	...........
	51	0.693333	8.93999E-001	1.00476E-004	0.00000E+000	8.98255E-005	5.99601E-002	8.94295E-001	3.57770E+000	9	...........
	52	0.706667	8.99618E-001	1.00499E-004	0.00000E+000	9.04107E-005	5.99601E-002	8.99920E-001	3.57770E+000	9	...........
	53	0.72	9.05077E-001	9.99645E-005	0.00000E+000	9.04756E-005	5.99601E-002	9.05393E-001	3.57770E+000	9	...........
	54	0.733333	9.10447E-001	1.00519E-004	0.00000E+000	9.15170E-005	5.99601E-002	9.10749E-001	3.57770E+000	9	...........
	55	0.746667	9.15664E-001	1.00666E-004	0.00000E+000	9.21759E-005	5.99601E-002	9.15975E-001	3.57770E+000	9	...........
	56	0.76	9.20823E-001	1.01372E-004	0.00000E+000	9.33457E-005	5.99601E-002	9.21117E-001	3.57770E+000	9	...........
	57	0.773333	9.25876E-001	1.01043E-004	0.00000E+000	9.35532E-005	5.99601E-002	9.26143E-001	3.57770E+000	9	...........
	58	0.786667	9.30785E-001	1.01664E-004	0.00000E+000	9.46272E-005	5.99601E-002	9.31074E-001	3.57770E+000	9	...........
	59	0.8	9.35600E-001	1.01784E-004	0.00000E+000	9.52287E-005	5.99601E-002	9.35935E-001	3.57770E+000	9	...........
	60	0.813333	9.40336E-001	1.01099E-004	0.00000E+000	9.50672E-005	5.99601E-002	9.40676E-001	3.57770E+000	9	...........
	61	0.826667	9.45014E-001	1.01176E-004	0.00000E+000	9.56130E-005	5.99601E-002	9.45351E-001	3.57770E+000	9	...........
	62	0.84	9.49629E-001	1.00753E-004	0.00000E+000	9.56781E-005	5.99601E-002	9.49964E-001	3.57770E+000	9	...........
	63	0.853333	9.54150E-001	1.01225E-004	0.00000E+000	9.65840E-005	5.99601E-002	9.54468E-001	3.57770E+000	9	...........
	64	0.866667	9.58583E-001	1.01166E-004	0.00000E+000	9.69758E-005	5.99601E-002	9.58901E-001	3.57770E+000	9	...........
	65	0.88	9.62955E-001	1.00414E-004	0.00000E+000	9.66937E-005	5.99601E-002	9.63269E-001	3.57770E+000	9	...........
	66	0.893333	9.67248E-001	1.01501E-004	0.00000E+000	9.81769E-005	5.99601E-002	9.67559E-001	3.57770E+000	9	...........
	67	0.906667	9.71464E-001	1.00219E-004	0.00000E+000	9.73589E-005	5.99601E-002	9.71814E-001	3.57770E+000	9	...........
	68	0.92	9.75633E-001	1.00834E-004	0.00000E+000	9.83775E-005	5.99601E-002	9.75956E-001	3.57770E+000	9	...........
	69	0.933333	9.79721E-001	1.02732E-004	0.00000E+000	1.00648E-004	5.99601E-002	9.80021E-001	3.57770E+000	9	...........
	70	0.946667	9.83689E-001	1.00596E-004	0.00000E+000	9.89550E-005	5.99601E-002	9.84006E-001	3.57770E+000	9	...........
	71	0.96	9.87601E-001	1.00945E-004	0.00000E+000	9.96934E-005	5.99601E-002	9.87919E-001	3.57770E+000	9	...........
	72	0.97333	9.91400E-001	1.00507E-004	0.00000E+000	9.96430E-005	5.99601E-002	9.91720E-001	3.57770E+000	9	...........
	73	0.98667	9.95135E-001	1.01556E-004	0.00000E+000	1.01062E-004	5.99601E-002	9.95454E-001	3.57770E+000	9	...........
	74	1	9.98801E-001	1.00126E-004	0.00000E+000	1.00006E-004	5.99601E-002	9.99151E-001	3.57770E+000	9	...........
STARTTIMEOFFSET	QUANT	1253.272	Start Time Offset (s)
