EXPLAIN
TAG	PWR800_CHARGE
TITLE	LABEL	PWR Cyclic Charge Discharge (Cell) - Charge Step	Test &Identifier
DATE	LABEL	12-7-2017	Date
TIME	LABEL	16:38:11	Time
NOTES	NOTES	2	&Notes...
	supercap test cell
	6M KOH
PSTAT	PSTAT	IFC5000-01520	Potentiostat
CAPACITY	QUANT	1.00000E-003	Capacity (A-hr)
CELLTYPE	SELECTOR	1	&Cell Type
WORKINGCONNECTION	SELECTOR	0	&Working Lead
MAXCHARGETIME	VARIABLEANDUNITS	1.00000E+002	s	1.00000E+002	second(s)	Max &Charge Time
CHARGECURRENT	QUANT	1.00000E-004	&Charge Current (A) 
VOLTAGEFINISH	TWOPARAM	F	1.00000E-003	3.60000E+003	&Voltage Finish	 I (A) < 	Max Time(s)
SAMPLETIME	QUANT	1.00000E-002	Sa&mple Period (s)
CHARGESTOPAT1	MULTIPARAM	4	1.00000E+000	Charge Stop At &1	Voltage > Limit	V
CHARGESTOPAT2	MULTIPARAM	0	0.00000E+000	Charge Stop At &2	None	N/A
AESBHCSELECTOR	TOGGLE	F	Save Both Half Cells
IRCOMP	TOGGLE	F	IR &Measure
EOC	QUANT	0	Open Circuit (V)
SEQUENCER	TOGGLE	TRUE	Run as Sequence
PSTATMODEL	IQUANT	53	Pstat Model
PSTATSECTION	LABEL	IFC5000-01520	Pstat Section
PSTATSERIALNO	LABEL	01520	Pstat Serial Number
CTRLMODE	IQUANT	0	Control Mode
ELECTROMETER	IQUANT	1	RE=0 or CS=1
IESTAB	IQUANT	0	I/E Stability
CASPEED	IQUANT	4	Control Amp Speed
CONVENTION	IQUANT	1	Current Convention
ICHRANGE	IQUANT	2	Ich Range
ICHRANGEMODE	TOGGLE	T	Ich Auto Range
ICHOFFSETENABLE	TOGGLE	F	Ich Offset Enable
ICHOFFSET	QUANT	0	Ich Offset (V)
ICHFILTER	IQUANT	1	Ich Filter
VCHRANGE	IQUANT	2	Vch Range
VCHRANGEMODE	TOGGLE	T	Vch Auto Range
VCHOFFSETENABLE	TOGGLE	F	Vch Offset Enable
VCHOFFSET	QUANT	0	Vch Offset (V)
VCHFILTER	IQUANT	1	Vch Filter
IERANGELOWERLIMIT	IQUANT	9	I/E Range Lower Limit
IERANGEMODE	TOGGLE	F	I/E AutoRange
IERANGE	IQUANT	9	I/E Range
ACHSELECT	IQUANT	1	Ach Select
ACHRANGE	IQUANT	2	Ach Range
ACHOFFSETENABLE	TOGGLE	F	Ach Offset Enable
ACHOFFSET	QUANT	0	Ach Offset (V)
ACHFILTER	IQUANT	1	Ach Filter
CABLEID	IQUANT	14	Cable ID
DCCALDATE	LABEL	5-7-2017	DC Calibration Date
ACCALDATE	LABEL	12/3/2015	AC Calibration Date
FRAMEWORKVERSION	QUANT	7.01	Framework Version
INSTRUMENTVERSION	LABEL	4.00	Instrument Version
CURVE	TABLE	76
	Pt	T	Vf	Im	Vu	Pwr	Sig	Ach	Temp	IERange	Over
	#	s	V	A	V	W	V	V	deg C	#	bits
	0	0.013333	2.59416E-001	1.00068E-004	0.00000E+000	2.59592E-005	5.99601E-002	2.59493E-001	3.57790E+000	9	...........
	1	0.026667	2.82411E-001	1.00189E-004	0.00000E+000	2.82944E-005	5.99601E-002	2.82472E-001	3.57790E+000	9	...........
	2	0.04	3.04117E-001	1.00588E-004	0.00000E+000	3.05903E-005	5.99601E-002	3.04183E-001	3.57790E+000	9	...........
	3	0.053333	3.24886E-001	9.97988E-005	0.00000E+000	3.24232E-005	5.99601E-002	3.24953E-001	3.57790E+000	9	...........
	4	0.066667	3.44919E-001	1.02120E-004	0.00000E+000	3.52232E-005	5.99601E-002	3.44989E-001	3.57790E+000	9	...........
	5	0.08	3.64324E-001	1.01678E-004	0.00000E+000	3.70439E-005	5.99601E-002	3.64396E-001	3.57790E+000	9	...........
	6	0.093333	3.83198E-001	1.00275E-004	0.00000E+000	3.84252E-005	5.99601E-002	3.83269E-001	3.57790E+000	9	...........
	7	0.106667	4.01590E-001	1.01898E-004	0.00000E+000	4.09213E-005	5.99601E-002	4.01669E-001	3.57790E+000	9	...........
	8	0.12	4.19526E-001	1.01403E-004	0.00000E+000	4.25413E-005	5.99601E-002	4.19618E-001	3.57790E+000	9	...........
	9	0.133333	4.37049E-001	1.01072E-004	0.00000E+000	4.41735E-005	5.99601E-002	4.37143E-001	3.57790E+000	9	...........
	10	0.146667	4.54180E-001	1.01090E-004	0.00000E+000	4.59130E-005	5.99601E-002	4.54278E-001	3.57790E+000	9	...........
	11	0.16	4.70920E-001	1.00550E-004	0.00000E+000	4.73510E-005	5.99601E-002	4.71019E-001	3.57790E+000	9	...........
	12	0.173333	4.87306E-001	9.94488E-005	0.00000E+000	4.84620E-005	5.99601E-002	4.87408E-001	3.57790E+000	9	...........
	13	0.186667	5.03323E-001	1.01361E-004	0.00000E+000	5.10172E-005	5.99601E-002	5.03436E-001	3.57790E+000	9	...........
	14	0.2	5.19003E-001	1.00321E-004	0.00000E+000	5.20668E-005	5.99601E-002	5.19116E-001	3.57790E+000	9	...........
	15	0.213333	5.34188E-001	1.00622E-004	0.00000E+000	5.37510E-005	5.99601E-002	5.34369E-001	3.57790E+000	9	...........
	16	0.226667	5.49044E-001	1.00683E-004	0.00000E+000	5.52797E-005	5.99601E-002	5.49287E-001	3.57790E+000	9	...........
	17	0.24	5.63751E-001	1.01199E-004	0.00000E+000	5.70511E-005	5.99601E-002	5.63990E-001	3.57790E+000	9	...........
	18	0.253333	5.78101E-001	1.00397E-004	0.00000E+000	5.80396E-005	5.99601E-002	5.78347E-001	3.57790E+000	9	...........
	19	0.266667	5.92154E-001	1.00998E-004	0.00000E+000	5.98064E-005	5.99601E-002	5.92408E-001	3.57790E+000	9	...........
	20	0.28	6.05874E-001	1.00567E-004	0.00000E+000	6.09308E-005	5.99601E-002	6.06143E-001	3.57786E+000	9	...........
	21	0.293333	6.19320E-001	1.00142E-004	0.00000E+000	6.20197E-005	5.99601E-002	6.19554E-001	3.57690E+000	9	...........
	22	0.306667	6.32444E-001	1.01537E-004	0.00000E+000	6.42163E-005	5.99601E-002	6.32643E-001	3.57690E+000	9	...........
	23	0.32	6.45242E-001	1.00572E-004	0.00000E+000	6.48933E-005	5.99601E-002	6.45457E-001	3.57690E+000	9	...........
	24	0.333333	6.57737E-001	1.00318E-004	0.00000E+000	6.59827E-005	5.99601E-002	6.57984E-001	3.57690E+000	9	...........
	25	0.346667	6.69942E-001	9.98937E-005	0.00000E+000	6.69229E-005	5.99601E-002	6.70180E-001	3.57690E+000	9	...........
	26	0.36	6.81852E-001	1.01284E-004	0.00000E+000	6.90604E-005	5.99601E-002	6.82083E-001	3.57690E+000	9	...........
	27	0.373333	6.93465E-001	1.00734E-004	0.00000E+000	6.98558E-005	5.99601E-002	6.93695E-001	3.57690E+000	9	...........
	28	0.386667	7.04774E-001	1.01524E-004	0.00000E+000	7.15517E-005	5.99601E-002	7.05028E-001	3.57690E+000	9	...........
	29	0.4	7.15825E-001	1.02234E-004	0.00000E+000	7.31814E-005	5.99601E-002	7.16058E-001	3.57690E+000	9	...........
	30	0.413333	7.26579E-001	1.00709E-004	0.00000E+000	7.31733E-005	5.99601E-002	7.26805E-001	3.57690E+000	9	...........
	31	0.426667	7.37021E-001	1.00702E-004	0.00000E+000	7.42196E-005	5.99601E-002	7.37265E-001	3.57690E+000	9	...........
	32	0.44	7.47223E-001	1.01820E-004	0.00000E+000	7.60823E-005	5.99601E-002	7.47485E-001	3.57690E+000	9	...........
	33	0.453333	7.57146E-001	9.99478E-005	0.00000E+000	7.56751E-005	5.99601E-002	7.57394E-001	3.57690E+000	9	...........
	34	0.466667	7.66789E-001	9.97686E-005	0.00000E+000	7.65014E-005	5.99601E-002	7.67060E-001	3.57690E+000	9	...........
	35	0.48	7.76156E-001	1.00469E-004	0.00000E+000	7.79794E-005	5.99601E-002	7.76424E-001	3.57690E+000	9	...........
	36	0.493333	7.85288E-001	1.00978E-004	0.00000E+000	7.92970E-005	5.99601E-002	7.85561E-001	3.57690E+000	9	...........
	37	0.506667	7.94161E-001	1.01292E-004	0.00000E+000	8.04421E-005	5.99601E-002	7.94422E-001	3.57690E+000	9	...........
	38	0.52	8.02747E-001	1.00644E-004	0.00000E+000	8.07915E-005	5.99601E-002	8.03027E-001	3.57690E+000	9	...........
	39	0.533333	8.11075E-001	1.01291E-004	0.00000E+000	8.21545E-005	5.99601E-002	8.11347E-001	3.57690E+000	9	...........
	40	0.546667	8.19178E-001	1.00418E-004	0.00000E+000	8.22600E-005	5.99601E-002	8.19451E-001	3.57690E+000	9	...........
	41	0.56	8.27030E-001	1.00504E-004	0.00000E+000	8.31199E-005	5.99601E-002	8.27307E-001	3.57690E+000	9	...........
	42	0.573333	8.34617E-001	1.00130E-004	0.00000E+000	8.35704E-005	5.99601E-002	8.34908E-001	3.57690E+000	9	...........
	43	0.586667	8.41983E-001	1.00732E-004	0.00000E+000	8.48149E-005	5.99601E-002	8.42261E-001	3.57690E+000	9	...........
	44	0.6	8.49125E-001	1.00392E-004	0.00000E+000	8.52451E-005	5.99601E-002	8.49424E-001	3.57690E+000	9	...........
	45	0.613333	8.56053E-001	1.01902E-004	0.00000E+000	8.72338E-005	5.99601E-002	8.56351E-001	3.57690E+000	9	...........
	46	0.626667	8.62719E-001	1.01585E-004	0.00000E+000	8.76390E-005	5.99601E-002	8.63032E-001	3.57690E+000	9	...........
	47	0.64	8.69219E-001	1.01017E-004	0.00000E+000	8.78057E-005	5.99601E-002	8.69538E-001	3.57690E+000	9	...........
	48	0.653333	8.75529E-001	1.00282E-004	0.00000E+000	8.78000E-005	5.99601E-002	8.75832E-001	3.57690E+000	9	...........
	49	0.666667	8.81644E-001	1.01155E-004	0.00000E+000	8.91830E-005	5.99601E-002	8.81954E-001	3.57690E+000	9	...........
	50	0.68	8.87582E-001	1.00630E-004	0.00000E+000	8.93176E-005	5.99601E-002	8.87898E-001	3.57690E+000	9	...........
	51	0.693333	8.93334E-001	1.01036E-004	0.00000E+000	9.02585E-005	5.99601E-002	8.93668E-001	3.57690E+000	9	...........
	52	0.706667	8.98949E-001	1.01683E-004	0.00000E+000	9.14074E-005	5.99601E-002	8.99313E-001	3.57690E+000	9	...........
	53	0.72	9.04439E-001	1.00728E-004	0.00000E+000	9.11026E-005	5.99601E-002	9.04770E-001	3.57690E+000	9	...........
	54	0.733333	9.09796E-001	1.01585E-004	0.00000E+000	9.24213E-005	5.99601E-002	9.10145E-001	3.57690E+000	9	...........
	55	0.746667	9.15021E-001	1.01189E-004	0.00000E+000	9.25898E-005	5.99601E-002	9.15385E-001	3.57690E+000	9	...........
	56	0.76	9.20187E-001	1.01612E-004	0.00000E+000	9.35017E-005	5.99601E-002	9.20499E-001	3.57690E+000	9	...........
	57	0.773333	9.25222E-001	1.00423E-004	0.00000E+000	9.29135E-005	5.99601E-002	9.25523E-001	3.57690E+000	9	...........
	58	0.786667	9.30143E-001	1.01421E-004	0.00000E+000	9.43361E-005	5.99601E-002	9.30434E-001	3.57690E+000	9	...........
	59	0.8	9.34966E-001	1.00628E-004	0.00000E+000	9.40839E-005	5.99601E-002	9.35292E-001	3.57690E+000	9	...........
	60	0.813333	9.39703E-001	1.01873E-004	0.00000E+000	9.57305E-005	5.99601E-002	9.40033E-001	3.57690E+000	9	...........
	61	0.826667	9.44329E-001	1.00449E-004	0.00000E+000	9.48569E-005	5.99601E-002	9.44680E-001	3.57690E+000	9	...........
	62	0.84	9.48971E-001	1.01813E-004	0.00000E+000	9.66174E-005	5.99601E-002	9.49306E-001	3.57690E+000	9	...........
	63	0.853333	9.53475E-001	1.01747E-004	0.00000E+000	9.70134E-005	5.99601E-002	9.53801E-001	3.57690E+000	9	...........
	64	0.866667	9.57883E-001	1.00658E-004	0.00000E+000	9.64190E-005	5.99601E-002	9.58243E-001	3.57690E+000	9	...........
	65	0.88	9.62245E-001	1.01895E-004	0.00000E+000	9.80480E-005	5.99601E-002	9.62604E-001	3.57690E+000	9	...........
	66	0.893333	9.66512E-001	9.96842E-005	0.00000E+000	9.63461E-005	5.99601E-002	9.66864E-001	3.57690E+000	9	...........
	67	0.906667	9.70719E-001	1.00841E-004	0.00000E+000	9.78880E-005	5.99601E-002	9.71083E-001	3.57690E+000	9	...........
	68	0.92	9.74931E-001	1.01348E-004	0.00000E+000	9.88074E-005	5.99601E-002	9.75234E-001	3.57690E+000	9	...........
	69	0.933333	9.78956E-001	1.00580E-004	0.00000E+000	9.84636E-005	5.99601E-002	9.79279E-001	3.57690E+000	9	...........
	70	0.946667	9.82932E-001	1.01778E-004	0.00000E+000	1.00041E-004	5.99601E-002	9.83246E-001	3.57690E+000	9	...........
	71	0.96	9.86817E-001	1.02019E-004	0.00000E+000	1.00674E-004	5.99601E-002	9.87142E-001	3.57690E+000	9	...........
	72	0.97333	9.90639E-001	1.01569E-004	0.00000E+000	1.00618E-004	5.99601E-002	9.90962E-001	3.57690E+000	9	...........
	73	0.98667	9.94344E-001	1.01533E-004	0.00000E+000	1.00958E-004	5.99601E-002	9.94679E-001	3.57690E+000	9	...........
	74	1	9.97990E-001	1.01443E-004	0.00000E+000	1.01239E-004	5.99601E-002	9.98337E-001	3.57690E+000	9	...........
	75	1.00167	1.00002E+000	1.01131E-004	0.00000E+000	1.01133E-004	5.99601E-002	1.00038E+000	3.57690E+000	9	...........
STARTTIMEOFFSET	QUANT	1200.94	Start Time Offset (s)
