EXPLAIN
TAG	PWR800_CHARGE
TITLE	LABEL	PWR Cyclic Charge Discharge (Cell) - Charge Step	Test &Identifier
DATE	LABEL	12-7-2017	Date
TIME	LABEL	16:29:22	Time
NOTES	NOTES	2	&Notes...
	supercap test cell
	6M KOH
PSTAT	PSTAT	IFC5000-01520	Potentiostat
CAPACITY	QUANT	1.00000E-003	Capacity (A-hr)
CELLTYPE	SELECTOR	1	&Cell Type
WORKINGCONNECTION	SELECTOR	0	&Working Lead
MAXCHARGETIME	VARIABLEANDUNITS	1.00000E+002	s	1.00000E+002	second(s)	Max &Charge Time
CHARGECURRENT	QUANT	1.00000E-004	&Charge Current (A) 
VOLTAGEFINISH	TWOPARAM	F	1.00000E-003	3.60000E+003	&Voltage Finish	 I (A) < 	Max Time(s)
SAMPLETIME	QUANT	1.00000E-002	Sa&mple Period (s)
CHARGESTOPAT1	MULTIPARAM	4	1.00000E+000	Charge Stop At &1	Voltage > Limit	V
CHARGESTOPAT2	MULTIPARAM	0	0.00000E+000	Charge Stop At &2	None	N/A
AESBHCSELECTOR	TOGGLE	F	Save Both Half Cells
IRCOMP	TOGGLE	F	IR &Measure
EOC	QUANT	0	Open Circuit (V)
SEQUENCER	TOGGLE	TRUE	Run as Sequence
PSTATMODEL	IQUANT	53	Pstat Model
PSTATSECTION	LABEL	IFC5000-01520	Pstat Section
PSTATSERIALNO	LABEL	01520	Pstat Serial Number
CTRLMODE	IQUANT	0	Control Mode
ELECTROMETER	IQUANT	1	RE=0 or CS=1
IESTAB	IQUANT	0	I/E Stability
CASPEED	IQUANT	4	Control Amp Speed
CONVENTION	IQUANT	1	Current Convention
ICHRANGE	IQUANT	2	Ich Range
ICHRANGEMODE	TOGGLE	T	Ich Auto Range
ICHOFFSETENABLE	TOGGLE	F	Ich Offset Enable
ICHOFFSET	QUANT	0	Ich Offset (V)
ICHFILTER	IQUANT	1	Ich Filter
VCHRANGE	IQUANT	2	Vch Range
VCHRANGEMODE	TOGGLE	T	Vch Auto Range
VCHOFFSETENABLE	TOGGLE	F	Vch Offset Enable
VCHOFFSET	QUANT	0	Vch Offset (V)
VCHFILTER	IQUANT	1	Vch Filter
IERANGELOWERLIMIT	IQUANT	9	I/E Range Lower Limit
IERANGEMODE	TOGGLE	F	I/E AutoRange
IERANGE	IQUANT	9	I/E Range
ACHSELECT	IQUANT	1	Ach Select
ACHRANGE	IQUANT	2	Ach Range
ACHOFFSETENABLE	TOGGLE	F	Ach Offset Enable
ACHOFFSET	QUANT	0	Ach Offset (V)
ACHFILTER	IQUANT	1	Ach Filter
CABLEID	IQUANT	14	Cable ID
DCCALDATE	LABEL	5-7-2017	DC Calibration Date
ACCALDATE	LABEL	12/3/2015	AC Calibration Date
FRAMEWORKVERSION	QUANT	7.01	Framework Version
INSTRUMENTVERSION	LABEL	4.00	Instrument Version
CURVE	TABLE	77
	Pt	T	Vf	Im	Vu	Pwr	Sig	Ach	Temp	IERange	Over
	#	s	V	A	V	W	V	V	deg C	#	bits
	0	0.013333	2.60375E-001	1.00696E-004	0.00000E+000	2.62187E-005	5.99601E-002	2.60455E-001	3.57670E+000	9	...........
	1	0.026667	2.83245E-001	1.02521E-004	0.00000E+000	2.90387E-005	5.99601E-002	2.83314E-001	3.57670E+000	9	...........
	2	0.04	3.04772E-001	1.01213E-004	0.00000E+000	3.08468E-005	5.99601E-002	3.04835E-001	3.57670E+000	9	...........
	3	0.053333	3.25310E-001	1.00950E-004	0.00000E+000	3.28400E-005	5.99601E-002	3.25382E-001	3.57670E+000	9	...........
	4	0.066667	3.45078E-001	1.00364E-004	0.00000E+000	3.46332E-005	5.99601E-002	3.45146E-001	3.57670E+000	9	...........
	5	0.08	3.64183E-001	1.00997E-004	0.00000E+000	3.67814E-005	5.99601E-002	3.64259E-001	3.57670E+000	9	...........
	6	0.093333	3.82735E-001	1.00217E-004	0.00000E+000	3.83564E-005	5.99601E-002	3.82816E-001	3.57670E+000	9	...........
	7	0.106667	4.00782E-001	1.03316E-004	0.00000E+000	4.14073E-005	5.99601E-002	4.00867E-001	3.57670E+000	9	...........
	8	0.12	4.18374E-001	1.00852E-004	0.00000E+000	4.21939E-005	5.99601E-002	4.18467E-001	3.57670E+000	9	...........
	9	0.133333	4.35544E-001	9.99280E-005	0.00000E+000	4.35230E-005	5.99601E-002	4.35638E-001	3.57670E+000	9	...........
	10	0.146667	4.52320E-001	1.00574E-004	0.00000E+000	4.54917E-005	5.99601E-002	4.52422E-001	3.57670E+000	9	...........
	11	0.16	4.68726E-001	1.00777E-004	0.00000E+000	4.72369E-005	5.99601E-002	4.68826E-001	3.57670E+000	9	...........
	12	0.173333	4.84775E-001	1.00938E-004	0.00000E+000	4.89320E-005	5.99601E-002	4.84882E-001	3.57670E+000	9	...........
	13	0.186667	5.00471E-001	1.00768E-004	0.00000E+000	5.04314E-005	5.99601E-002	5.00584E-001	3.57670E+000	9	...........
	14	0.2	5.15833E-001	1.00525E-004	0.00000E+000	5.18541E-005	5.99601E-002	5.15951E-001	3.57670E+000	9	...........
	15	0.213333	5.30781E-001	1.01228E-004	0.00000E+000	5.37301E-005	5.99601E-002	5.30940E-001	3.57670E+000	9	...........
	16	0.226667	5.45280E-001	1.01374E-004	0.00000E+000	5.52774E-005	5.99601E-002	5.45534E-001	3.57670E+000	9	...........
	17	0.24	5.59713E-001	1.01440E-004	0.00000E+000	5.67772E-005	5.99601E-002	5.59976E-001	3.57670E+000	9	...........
	18	0.253333	5.73835E-001	1.01320E-004	0.00000E+000	5.81409E-005	5.99601E-002	5.74092E-001	3.57670E+000	9	...........
	19	0.266667	5.87651E-001	1.02250E-004	0.00000E+000	6.00876E-005	5.99601E-002	5.87916E-001	3.57670E+000	9	...........
	20	0.28	6.01159E-001	1.01282E-004	0.00000E+000	6.08868E-005	5.99601E-002	6.01448E-001	3.57670E+000	9	...........
	21	0.293333	6.14431E-001	1.01435E-004	0.00000E+000	6.23246E-005	5.99601E-002	6.14691E-001	3.57670E+000	9	...........
	22	0.306667	6.27400E-001	1.00839E-004	0.00000E+000	6.32661E-005	5.99601E-002	6.27659E-001	3.57670E+000	9	...........
	23	0.32	6.40065E-001	1.01211E-004	0.00000E+000	6.47814E-005	5.99601E-002	6.40316E-001	3.57670E+000	9	...........
	24	0.333333	6.52455E-001	1.01667E-004	0.00000E+000	6.63331E-005	5.99601E-002	6.52742E-001	3.57670E+000	9	...........
	25	0.346667	6.64582E-001	1.00809E-004	0.00000E+000	6.69962E-005	5.99601E-002	6.64843E-001	3.57670E+000	9	...........
	26	0.36	6.76431E-001	1.01620E-004	0.00000E+000	6.87390E-005	5.99601E-002	6.76712E-001	3.57670E+000	9	...........
	27	0.373333	6.87979E-001	1.02828E-004	0.00000E+000	7.07433E-005	5.99601E-002	6.88270E-001	3.57670E+000	9	...........
	28	0.386667	6.99285E-001	1.01608E-004	0.00000E+000	7.10526E-005	5.99601E-002	6.99555E-001	3.57670E+000	9	...........
	29	0.4	7.10294E-001	1.03516E-004	0.00000E+000	7.35270E-005	5.99601E-002	7.10583E-001	3.57670E+000	9	...........
	30	0.413333	7.21102E-001	1.01577E-004	0.00000E+000	7.32476E-005	5.99601E-002	7.21354E-001	3.57670E+000	9	...........
	31	0.426667	7.31582E-001	1.00254E-004	0.00000E+000	7.33441E-005	5.99601E-002	7.31845E-001	3.57670E+000	9	...........
	32	0.44	7.41814E-001	1.02581E-004	0.00000E+000	7.60958E-005	5.99601E-002	7.42078E-001	3.57670E+000	9	...........
	33	0.453333	7.51807E-001	1.01993E-004	0.00000E+000	7.66791E-005	5.99601E-002	7.52045E-001	3.57670E+000	9	...........
	34	0.466667	7.61525E-001	1.00513E-004	0.00000E+000	7.65428E-005	5.99601E-002	7.61779E-001	3.57670E+000	9	...........
	35	0.48	7.71010E-001	1.00176E-004	0.00000E+000	7.72367E-005	5.99601E-002	7.71255E-001	3.57670E+000	9	...........
	36	0.493333	7.80220E-001	1.01413E-004	0.00000E+000	7.91242E-005	5.99601E-002	7.80480E-001	3.57670E+000	9	...........
	37	0.506667	7.89174E-001	1.02853E-004	0.00000E+000	8.11686E-005	5.99601E-002	7.89449E-001	3.57670E+000	9	...........
	38	0.52	7.97933E-001	1.01224E-004	0.00000E+000	8.07700E-005	5.99601E-002	7.98186E-001	3.57670E+000	9	...........
	39	0.533333	8.06369E-001	1.00717E-004	0.00000E+000	8.12149E-005	5.99601E-002	8.06657E-001	3.57670E+000	9	...........
	40	0.546667	8.14594E-001	1.00079E-004	0.00000E+000	8.15238E-005	5.99601E-002	8.14911E-001	3.57670E+000	9	...........
	41	0.56	8.22645E-001	1.00658E-004	0.00000E+000	8.28062E-005	5.99601E-002	8.22936E-001	3.57670E+000	9	...........
	42	0.573333	8.30362E-001	1.01685E-004	0.00000E+000	8.44351E-005	5.99601E-002	8.30681E-001	3.57670E+000	9	...........
	43	0.586667	8.37879E-001	1.00366E-004	0.00000E+000	8.40942E-005	5.99601E-002	8.38225E-001	3.57670E+000	9	...........
	44	0.6	8.45200E-001	1.01255E-004	0.00000E+000	8.55811E-005	5.99601E-002	8.45552E-001	3.57670E+000	9	...........
	45	0.613333	8.52278E-001	1.00983E-004	0.00000E+000	8.60660E-005	5.99601E-002	8.52626E-001	3.57670E+000	9	...........
	46	0.626667	8.59136E-001	1.01448E-004	0.00000E+000	8.71578E-005	5.99601E-002	8.59508E-001	3.57670E+000	9	...........
	47	0.64	8.65780E-001	9.96957E-005	0.00000E+000	8.63146E-005	5.99601E-002	8.66137E-001	3.57670E+000	9	...........
	48	0.653333	8.72256E-001	1.03312E-004	0.00000E+000	9.01146E-005	5.99601E-002	8.72593E-001	3.57670E+000	9	...........
	49	0.666667	8.78484E-001	1.00560E-004	0.00000E+000	8.83407E-005	5.99601E-002	8.78824E-001	3.57670E+000	9	...........
	50	0.68	8.84548E-001	1.00559E-004	0.00000E+000	8.89497E-005	5.99601E-002	8.84894E-001	3.57670E+000	9	...........
	51	0.693333	8.90458E-001	1.01290E-004	0.00000E+000	9.01943E-005	5.99601E-002	8.90762E-001	3.57670E+000	9	...........
	52	0.706667	8.96139E-001	1.01684E-004	0.00000E+000	9.11226E-005	5.99601E-002	8.96495E-001	3.57670E+000	9	...........
	53	0.72	9.01702E-001	1.01526E-004	0.00000E+000	9.15465E-005	5.99601E-002	9.02062E-001	3.57670E+000	9	...........
	54	0.733333	9.07105E-001	1.00907E-004	0.00000E+000	9.15337E-005	5.99601E-002	9.07478E-001	3.57670E+000	9	...........
	55	0.746667	9.12391E-001	1.00581E-004	0.00000E+000	9.17695E-005	5.99601E-002	9.12738E-001	3.57670E+000	9	...........
	56	0.76	9.17524E-001	1.01897E-004	0.00000E+000	9.34932E-005	5.99601E-002	9.17890E-001	3.57670E+000	9	...........
	57	0.773333	9.22616E-001	1.00517E-004	0.00000E+000	9.27383E-005	5.99601E-002	9.22934E-001	3.57670E+000	9	...........
	58	0.786667	9.27534E-001	1.00602E-004	0.00000E+000	9.33119E-005	5.99601E-002	9.27858E-001	3.57670E+000	9	...........
	59	0.8	9.32351E-001	1.02081E-004	0.00000E+000	9.51749E-005	5.99601E-002	9.32664E-001	3.57670E+000	9	...........
	60	0.813333	9.37073E-001	1.00031E-004	0.00000E+000	9.37365E-005	5.99601E-002	9.37409E-001	3.57670E+000	9	...........
	61	0.826667	9.41707E-001	1.00331E-004	0.00000E+000	9.44826E-005	5.99601E-002	9.42024E-001	3.57670E+000	9	...........
	62	0.84	9.46261E-001	1.01235E-004	0.00000E+000	9.57943E-005	5.99601E-002	9.46579E-001	3.57757E+000	9	...........
	63	0.853333	9.50730E-001	1.00100E-004	0.00000E+000	9.51681E-005	5.99601E-002	9.51058E-001	3.57810E+000	9	...........
	64	0.866667	9.55126E-001	1.00429E-004	0.00000E+000	9.59225E-005	5.99601E-002	9.55441E-001	3.57810E+000	9	...........
	65	0.88	9.59435E-001	1.00430E-004	0.00000E+000	9.63563E-005	5.99601E-002	9.59764E-001	3.57810E+000	9	...........
	66	0.893333	9.63649E-001	1.01551E-004	0.00000E+000	9.78598E-005	5.99601E-002	9.63990E-001	3.57810E+000	9	...........
	67	0.906667	9.67808E-001	1.02557E-004	0.00000E+000	9.92552E-005	5.99601E-002	9.68131E-001	3.57810E+000	9	...........
	68	0.92	9.71883E-001	1.00733E-004	0.00000E+000	9.79011E-005	5.99601E-002	9.72236E-001	3.57810E+000	9	...........
	69	0.933333	9.75930E-001	1.00807E-004	0.00000E+000	9.83809E-005	5.99601E-002	9.76239E-001	3.57810E+000	9	...........
	70	0.946667	9.79854E-001	1.01787E-004	0.00000E+000	9.97361E-005	5.99601E-002	9.80175E-001	3.57810E+000	9	...........
	71	0.96	9.83686E-001	1.00838E-004	0.00000E+000	9.91926E-005	5.99601E-002	9.84020E-001	3.57810E+000	9	...........
	72	0.97333	9.87443E-001	1.02632E-004	0.00000E+000	1.01343E-004	5.99601E-002	9.87800E-001	3.57810E+000	9	...........
	73	0.98667	9.91125E-001	1.02232E-004	0.00000E+000	1.01324E-004	5.99601E-002	9.91485E-001	3.57810E+000	9	...........
	74	1	9.94725E-001	1.01319E-004	0.00000E+000	1.00785E-004	5.99601E-002	9.95087E-001	3.57810E+000	9	...........
	75	1.01333	9.98258E-001	1.01602E-004	0.00000E+000	1.01425E-004	5.99601E-002	9.98619E-001	3.57810E+000	9	...........
	76	1.015	1.00020E+000	1.03515E-004	0.00000E+000	1.03536E-004	5.99601E-002	1.00061E+000	3.57810E+000	9	...........
STARTTIMEOFFSET	QUANT	826.667	Start Time Offset (s)
