EXPLAIN
TAG	PWR800_CHARGE
TITLE	LABEL	PWR Cyclic Charge Discharge (Cell) - Charge Step	Test &Identifier
DATE	LABEL	12-7-2017	Date
TIME	LABEL	16:55:02	Time
NOTES	NOTES	2	&Notes...
	supercap test cell
	6M KOH
PSTAT	PSTAT	IFC5000-01520	Potentiostat
CAPACITY	QUANT	1.00000E-003	Capacity (A-hr)
CELLTYPE	SELECTOR	1	&Cell Type
WORKINGCONNECTION	SELECTOR	0	&Working Lead
MAXCHARGETIME	VARIABLEANDUNITS	1.00000E+002	s	1.00000E+002	second(s)	Max &Charge Time
CHARGECURRENT	QUANT	1.00000E-004	&Charge Current (A) 
VOLTAGEFINISH	TWOPARAM	F	1.00000E-003	3.60000E+003	&Voltage Finish	 I (A) < 	Max Time(s)
SAMPLETIME	QUANT	1.00000E-002	Sa&mple Period (s)
CHARGESTOPAT1	MULTIPARAM	4	1.00000E+000	Charge Stop At &1	Voltage > Limit	V
CHARGESTOPAT2	MULTIPARAM	0	0.00000E+000	Charge Stop At &2	None	N/A
AESBHCSELECTOR	TOGGLE	F	Save Both Half Cells
IRCOMP	TOGGLE	F	IR &Measure
EOC	QUANT	0	Open Circuit (V)
SEQUENCER	TOGGLE	TRUE	Run as Sequence
PSTATMODEL	IQUANT	53	Pstat Model
PSTATSECTION	LABEL	IFC5000-01520	Pstat Section
PSTATSERIALNO	LABEL	01520	Pstat Serial Number
CTRLMODE	IQUANT	0	Control Mode
ELECTROMETER	IQUANT	1	RE=0 or CS=1
IESTAB	IQUANT	0	I/E Stability
CASPEED	IQUANT	4	Control Amp Speed
CONVENTION	IQUANT	1	Current Convention
ICHRANGE	IQUANT	2	Ich Range
ICHRANGEMODE	TOGGLE	T	Ich Auto Range
ICHOFFSETENABLE	TOGGLE	F	Ich Offset Enable
ICHOFFSET	QUANT	0	Ich Offset (V)
ICHFILTER	IQUANT	1	Ich Filter
VCHRANGE	IQUANT	2	Vch Range
VCHRANGEMODE	TOGGLE	T	Vch Auto Range
VCHOFFSETENABLE	TOGGLE	F	Vch Offset Enable
VCHOFFSET	QUANT	0	Vch Offset (V)
VCHFILTER	IQUANT	1	Vch Filter
IERANGELOWERLIMIT	IQUANT	9	I/E Range Lower Limit
IERANGEMODE	TOGGLE	F	I/E AutoRange
IERANGE	IQUANT	9	I/E Range
ACHSELECT	IQUANT	1	Ach Select
ACHRANGE	IQUANT	2	Ach Range
ACHOFFSETENABLE	TOGGLE	F	Ach Offset Enable
ACHOFFSET	QUANT	0	Ach Offset (V)
ACHFILTER	IQUANT	1	Ach Filter
CABLEID	IQUANT	14	Cable ID
DCCALDATE	LABEL	5-7-2017	DC Calibration Date
ACCALDATE	LABEL	12/3/2015	AC Calibration Date
FRAMEWORKVERSION	QUANT	7.01	Framework Version
INSTRUMENTVERSION	LABEL	4.00	Instrument Version
CURVE	TABLE	74
	Pt	T	Vf	Im	Vu	Pwr	Sig	Ach	Temp	IERange	Over
	#	s	V	A	V	W	V	V	deg C	#	bits
	0	0.013333	2.55253E-001	1.01947E-004	0.00000E+000	2.60223E-005	5.99601E-002	2.55328E-001	3.57630E+000	9	...........
	1	0.026667	2.78456E-001	1.01722E-004	0.00000E+000	2.83251E-005	5.99601E-002	2.78513E-001	3.57630E+000	9	...........
	2	0.04	3.00423E-001	1.01204E-004	0.00000E+000	3.04041E-005	5.99601E-002	3.00487E-001	3.57630E+000	9	...........
	3	0.053333	3.21500E-001	1.00211E-004	0.00000E+000	3.22180E-005	5.99601E-002	3.21567E-001	3.57630E+000	9	...........
	4	0.066667	3.41871E-001	1.00763E-004	0.00000E+000	3.44478E-005	5.99601E-002	3.41939E-001	3.57630E+000	9	...........
	5	0.08	3.61658E-001	9.99228E-005	0.00000E+000	3.61379E-005	5.99601E-002	3.61730E-001	3.57630E+000	9	...........
	6	0.093333	3.80917E-001	1.00094E-004	0.00000E+000	3.81273E-005	5.99601E-002	3.80996E-001	3.57630E+000	9	...........
	7	0.106667	3.99707E-001	9.99853E-005	0.00000E+000	3.99648E-005	5.99601E-002	3.99787E-001	3.57630E+000	9	...........
	8	0.12	4.18063E-001	1.00874E-004	0.00000E+000	4.21717E-005	5.99601E-002	4.18151E-001	3.57630E+000	9	...........
	9	0.133333	4.36021E-001	1.01445E-004	0.00000E+000	4.42322E-005	5.99601E-002	4.36108E-001	3.57630E+000	9	...........
	10	0.146667	4.53581E-001	1.01015E-004	0.00000E+000	4.58183E-005	5.99601E-002	4.53673E-001	3.57630E+000	9	...........
	11	0.16	4.70760E-001	1.00430E-004	0.00000E+000	4.72786E-005	5.99601E-002	4.70857E-001	3.57630E+000	9	...........
	12	0.173333	4.87568E-001	9.99499E-005	0.00000E+000	4.87324E-005	5.99601E-002	4.87676E-001	3.57630E+000	9	...........
	13	0.186667	5.04010E-001	1.00648E-004	0.00000E+000	5.07276E-005	5.99601E-002	5.04118E-001	3.57630E+000	9	...........
	14	0.2	5.20095E-001	9.99353E-005	0.00000E+000	5.19758E-005	5.99601E-002	5.20210E-001	3.57630E+000	9	...........
	15	0.213333	5.35661E-001	1.01823E-004	0.00000E+000	5.45427E-005	5.99601E-002	5.35828E-001	3.57630E+000	9	...........
	16	0.226667	5.50899E-001	1.00719E-004	0.00000E+000	5.54859E-005	5.99601E-002	5.51139E-001	3.57630E+000	9	...........
	17	0.24	5.65928E-001	1.01081E-004	0.00000E+000	5.72048E-005	5.99601E-002	5.66180E-001	3.57630E+000	9	...........
	18	0.253333	5.80594E-001	1.00894E-004	0.00000E+000	5.85783E-005	5.99601E-002	5.80866E-001	3.57665E+000	9	...........
	19	0.266667	5.94954E-001	1.01305E-004	0.00000E+000	6.02720E-005	5.99601E-002	5.95222E-001	3.57670E+000	9	...........
	20	0.28	6.08928E-001	1.01771E-004	0.00000E+000	6.19713E-005	5.99601E-002	6.09232E-001	3.57670E+000	9	...........
	21	0.293333	6.22657E-001	1.01419E-004	0.00000E+000	6.31492E-005	5.99601E-002	6.22903E-001	3.57670E+000	9	...........
	22	0.306667	6.35982E-001	1.01280E-004	0.00000E+000	6.44125E-005	5.99601E-002	6.36229E-001	3.57670E+000	9	...........
	23	0.32	6.49008E-001	9.88612E-005	0.00000E+000	6.41616E-005	5.99601E-002	6.49246E-001	3.57670E+000	9	...........
	24	0.333333	6.61695E-001	1.01057E-004	0.00000E+000	6.68692E-005	5.99601E-002	6.61920E-001	3.57670E+000	9	...........
	25	0.346667	6.74067E-001	1.00840E-004	0.00000E+000	6.79727E-005	5.99601E-002	6.74302E-001	3.57670E+000	9	...........
	26	0.36	6.86064E-001	1.00024E-004	0.00000E+000	6.86228E-005	5.99601E-002	6.86325E-001	3.57670E+000	9	...........
	27	0.373333	6.97822E-001	1.00772E-004	0.00000E+000	7.03209E-005	5.99601E-002	6.98043E-001	3.57670E+000	9	...........
	28	0.386667	7.09197E-001	1.01004E-004	0.00000E+000	7.16320E-005	5.99601E-002	7.09445E-001	3.57670E+000	9	...........
	29	0.4	7.20321E-001	1.01110E-004	0.00000E+000	7.28314E-005	5.99601E-002	7.20543E-001	3.57670E+000	9	...........
	30	0.413333	7.31102E-001	1.00306E-004	0.00000E+000	7.33341E-005	5.99601E-002	7.31345E-001	3.57670E+000	9	...........
	31	0.426667	7.41619E-001	1.01495E-004	0.00000E+000	7.52707E-005	5.99601E-002	7.41874E-001	3.57670E+000	9	...........
	32	0.44	7.51836E-001	1.02125E-004	0.00000E+000	7.67815E-005	5.99601E-002	7.52075E-001	3.57670E+000	9	...........
	33	0.453333	7.61743E-001	1.01410E-004	0.00000E+000	7.72480E-005	5.99601E-002	7.61985E-001	3.57670E+000	9	...........
	34	0.466667	7.71372E-001	1.00922E-004	0.00000E+000	7.78484E-005	5.99601E-002	7.71636E-001	3.57670E+000	9	...........
	35	0.48	7.80732E-001	1.01270E-004	0.00000E+000	7.90648E-005	5.99601E-002	7.80994E-001	3.57670E+000	9	...........
	36	0.493333	7.89808E-001	1.01016E-004	0.00000E+000	7.97831E-005	5.99601E-002	7.90065E-001	3.57670E+000	9	...........
	37	0.506667	7.98639E-001	1.00763E-004	0.00000E+000	8.04729E-005	5.99601E-002	7.98868E-001	3.57670E+000	9	...........
	38	0.52	8.07139E-001	1.01851E-004	0.00000E+000	8.22081E-005	5.99601E-002	8.07390E-001	3.57670E+000	9	...........
	39	0.533333	8.15419E-001	1.01013E-004	0.00000E+000	8.23676E-005	5.99601E-002	8.15685E-001	3.57670E+000	9	...........
	40	0.546667	8.23426E-001	1.00033E-004	0.00000E+000	8.23700E-005	5.99601E-002	8.23705E-001	3.57670E+000	9	...........
	41	0.56	8.31170E-001	1.01416E-004	0.00000E+000	8.42938E-005	5.99601E-002	8.31446E-001	3.57670E+000	9	...........
	42	0.573333	8.38659E-001	1.00233E-004	0.00000E+000	8.40616E-005	5.99601E-002	8.38960E-001	3.57670E+000	9	...........
	43	0.586667	8.45959E-001	1.00815E-004	0.00000E+000	8.52851E-005	5.99601E-002	8.46242E-001	3.57670E+000	9	...........
	44	0.6	8.53013E-001	1.02049E-004	0.00000E+000	8.70494E-005	5.99601E-002	8.53289E-001	3.57670E+000	9	...........
	45	0.613333	8.59830E-001	9.98041E-005	0.00000E+000	8.58146E-005	5.99601E-002	8.60146E-001	3.57670E+000	9	...........
	46	0.626667	8.66430E-001	1.01262E-004	0.00000E+000	8.77362E-005	5.99601E-002	8.66756E-001	3.57670E+000	9	...........
	47	0.64	8.72888E-001	1.00013E-004	0.00000E+000	8.73005E-005	5.99601E-002	8.73218E-001	3.57670E+000	9	...........
	48	0.653333	8.79130E-001	1.00651E-004	0.00000E+000	8.84854E-005	5.99601E-002	8.79444E-001	3.57670E+000	9	...........
	49	0.666667	8.85225E-001	1.00715E-004	0.00000E+000	8.91551E-005	5.99601E-002	8.85543E-001	3.57670E+000	9	...........
	50	0.68	8.91128E-001	1.00283E-004	0.00000E+000	8.93653E-005	5.99601E-002	8.91434E-001	3.57670E+000	9	...........
	51	0.693333	8.96885E-001	1.00640E-004	0.00000E+000	9.02622E-005	5.99601E-002	8.97220E-001	3.57670E+000	9	...........
	52	0.706667	9.02501E-001	9.91331E-005	0.00000E+000	8.94677E-005	5.99601E-002	9.02840E-001	3.57670E+000	9	...........
	53	0.72	9.08010E-001	1.00235E-004	0.00000E+000	9.10147E-005	5.99601E-002	9.08333E-001	3.57670E+000	9	...........
	54	0.733333	9.13424E-001	1.01351E-004	0.00000E+000	9.25767E-005	5.99601E-002	9.13705E-001	3.57670E+000	9	...........
	55	0.746667	9.18697E-001	1.02734E-004	0.00000E+000	9.43813E-005	5.99601E-002	9.19010E-001	3.57670E+000	9	...........
	56	0.76	9.23928E-001	1.00875E-004	0.00000E+000	9.32013E-005	5.99601E-002	9.24208E-001	3.57670E+000	9	...........
	57	0.773333	9.28986E-001	1.00515E-004	0.00000E+000	9.33767E-005	5.99601E-002	9.29284E-001	3.57670E+000	9	...........
	58	0.786667	9.33982E-001	1.01400E-004	0.00000E+000	9.47059E-005	5.99601E-002	9.34291E-001	3.57670E+000	9	...........
	59	0.8	9.38883E-001	1.01525E-004	0.00000E+000	9.53204E-005	5.99601E-002	9.39200E-001	3.57670E+000	9	...........
	60	0.813333	9.43719E-001	1.00004E-004	0.00000E+000	9.43758E-005	5.99601E-002	9.44044E-001	3.57670E+000	9	...........
	61	0.826667	9.48496E-001	1.00454E-004	0.00000E+000	9.52804E-005	5.99601E-002	9.48821E-001	3.57670E+000	9	...........
	62	0.84	9.53202E-001	1.01364E-004	0.00000E+000	9.66202E-005	5.99601E-002	9.53523E-001	3.57670E+000	9	...........
	63	0.853333	9.57803E-001	1.00501E-004	0.00000E+000	9.62602E-005	5.99601E-002	9.58123E-001	3.57670E+000	9	...........
	64	0.866667	9.62328E-001	1.00866E-004	0.00000E+000	9.70660E-005	5.99601E-002	9.62676E-001	3.57670E+000	9	...........
	65	0.88	9.66796E-001	1.00430E-004	0.00000E+000	9.70956E-005	5.99601E-002	9.67125E-001	3.57670E+000	9	...........
	66	0.893333	9.71190E-001	1.01440E-004	0.00000E+000	9.85174E-005	5.99601E-002	9.71533E-001	3.57670E+000	9	...........
	67	0.906667	9.75542E-001	1.01710E-004	0.00000E+000	9.92220E-005	5.99601E-002	9.75865E-001	3.57670E+000	9	...........
	68	0.92	9.79769E-001	1.01659E-004	0.00000E+000	9.96019E-005	5.99601E-002	9.80075E-001	3.57670E+000	9	...........
	69	0.933333	9.83910E-001	1.00988E-004	0.00000E+000	9.93628E-005	5.99601E-002	9.84249E-001	3.57670E+000	9	...........
	70	0.946667	9.87972E-001	1.02995E-004	0.00000E+000	1.01756E-004	5.99601E-002	9.88336E-001	3.57670E+000	9	...........
	71	0.96	9.91946E-001	1.00934E-004	0.00000E+000	1.00122E-004	5.99601E-002	9.92296E-001	3.57670E+000	9	...........
	72	0.97333	9.95829E-001	1.00284E-004	0.00000E+000	9.98661E-005	5.99601E-002	9.96199E-001	3.57670E+000	9	...........
	73	0.98333	9.99199E-001	1.00409E-004	0.00000E+000	1.00329E-004	5.99601E-002	9.99531E-001	3.57670E+000	9	...........
STARTTIMEOFFSET	QUANT	1916.748	Start Time Offset (s)
