EXPLAIN
TAG	PWR800_CHARGE
TITLE	LABEL	PWR Cyclic Charge Discharge (Cell) - Charge Step	Test &Identifier
DATE	LABEL	12-7-2017	Date
TIME	LABEL	16:53:06	Time
NOTES	NOTES	2	&Notes...
	supercap test cell
	6M KOH
PSTAT	PSTAT	IFC5000-01520	Potentiostat
CAPACITY	QUANT	1.00000E-003	Capacity (A-hr)
CELLTYPE	SELECTOR	1	&Cell Type
WORKINGCONNECTION	SELECTOR	0	&Working Lead
MAXCHARGETIME	VARIABLEANDUNITS	1.00000E+002	s	1.00000E+002	second(s)	Max &Charge Time
CHARGECURRENT	QUANT	1.00000E-004	&Charge Current (A) 
VOLTAGEFINISH	TWOPARAM	F	1.00000E-003	3.60000E+003	&Voltage Finish	 I (A) < 	Max Time(s)
SAMPLETIME	QUANT	1.00000E-002	Sa&mple Period (s)
CHARGESTOPAT1	MULTIPARAM	4	1.00000E+000	Charge Stop At &1	Voltage > Limit	V
CHARGESTOPAT2	MULTIPARAM	0	0.00000E+000	Charge Stop At &2	None	N/A
AESBHCSELECTOR	TOGGLE	F	Save Both Half Cells
IRCOMP	TOGGLE	F	IR &Measure
EOC	QUANT	0	Open Circuit (V)
SEQUENCER	TOGGLE	TRUE	Run as Sequence
PSTATMODEL	IQUANT	53	Pstat Model
PSTATSECTION	LABEL	IFC5000-01520	Pstat Section
PSTATSERIALNO	LABEL	01520	Pstat Serial Number
CTRLMODE	IQUANT	0	Control Mode
ELECTROMETER	IQUANT	1	RE=0 or CS=1
IESTAB	IQUANT	0	I/E Stability
CASPEED	IQUANT	4	Control Amp Speed
CONVENTION	IQUANT	1	Current Convention
ICHRANGE	IQUANT	2	Ich Range
ICHRANGEMODE	TOGGLE	T	Ich Auto Range
ICHOFFSETENABLE	TOGGLE	F	Ich Offset Enable
ICHOFFSET	QUANT	0	Ich Offset (V)
ICHFILTER	IQUANT	1	Ich Filter
VCHRANGE	IQUANT	2	Vch Range
VCHRANGEMODE	TOGGLE	T	Vch Auto Range
VCHOFFSETENABLE	TOGGLE	F	Vch Offset Enable
VCHOFFSET	QUANT	0	Vch Offset (V)
VCHFILTER	IQUANT	1	Vch Filter
IERANGELOWERLIMIT	IQUANT	9	I/E Range Lower Limit
IERANGEMODE	TOGGLE	F	I/E AutoRange
IERANGE	IQUANT	9	I/E Range
ACHSELECT	IQUANT	1	Ach Select
ACHRANGE	IQUANT	2	Ach Range
ACHOFFSETENABLE	TOGGLE	F	Ach Offset Enable
ACHOFFSET	QUANT	0	Ach Offset (V)
ACHFILTER	IQUANT	1	Ach Filter
CABLEID	IQUANT	14	Cable ID
DCCALDATE	LABEL	5-7-2017	DC Calibration Date
ACCALDATE	LABEL	12/3/2015	AC Calibration Date
FRAMEWORKVERSION	QUANT	7.01	Framework Version
INSTRUMENTVERSION	LABEL	4.00	Instrument Version
CURVE	TABLE	74
	Pt	T	Vf	Im	Vu	Pwr	Sig	Ach	Temp	IERange	Over
	#	s	V	A	V	W	V	V	deg C	#	bits
	0	0.013333	2.57315E-001	1.00824E-004	0.00000E+000	2.59436E-005	5.99601E-002	2.57393E-001	3.57780E+000	9	...........
	1	0.026667	2.80443E-001	1.01910E-004	0.00000E+000	2.85798E-005	5.99601E-002	2.80505E-001	3.57780E+000	9	...........
	2	0.04	3.02333E-001	1.01545E-004	0.00000E+000	3.07004E-005	5.99601E-002	3.02396E-001	3.57780E+000	9	...........
	3	0.053333	3.23338E-001	1.01875E-004	0.00000E+000	3.29402E-005	5.99601E-002	3.23407E-001	3.57780E+000	9	...........
	4	0.066667	3.43640E-001	9.98874E-005	0.00000E+000	3.43253E-005	5.99601E-002	3.43712E-001	3.57780E+000	9	...........
	5	0.08	3.63352E-001	1.00315E-004	0.00000E+000	3.64495E-005	5.99601E-002	3.63424E-001	3.57780E+000	9	...........
	6	0.093333	3.82536E-001	1.00992E-004	0.00000E+000	3.86330E-005	5.99601E-002	3.82612E-001	3.57780E+000	9	...........
	7	0.106667	4.01254E-001	1.02195E-004	0.00000E+000	4.10062E-005	5.99601E-002	4.01336E-001	3.57780E+000	9	...........
	8	0.12	4.19536E-001	1.00051E-004	0.00000E+000	4.19749E-005	5.99601E-002	4.19622E-001	3.57780E+000	9	...........
	9	0.133333	4.37416E-001	1.01433E-004	0.00000E+000	4.43683E-005	5.99601E-002	4.37501E-001	3.57780E+000	9	...........
	10	0.146667	4.54896E-001	9.98499E-005	0.00000E+000	4.54213E-005	5.99601E-002	4.54986E-001	3.57780E+000	9	...........
	11	0.16	4.71994E-001	1.01304E-004	0.00000E+000	4.78150E-005	5.99601E-002	4.72093E-001	3.57780E+000	9	...........
	12	0.173333	4.88722E-001	1.00976E-004	0.00000E+000	4.93492E-005	5.99601E-002	4.88822E-001	3.57780E+000	9	...........
	13	0.186667	5.05090E-001	1.00397E-004	0.00000E+000	5.07095E-005	5.99601E-002	5.05196E-001	3.57780E+000	9	...........
	14	0.2	5.21100E-001	1.01964E-004	0.00000E+000	5.31333E-005	5.99601E-002	5.21211E-001	3.57780E+000	9	...........
	15	0.213333	5.36570E-001	1.00846E-004	0.00000E+000	5.41109E-005	5.99601E-002	5.36748E-001	3.57780E+000	9	...........
	16	0.226667	5.51763E-001	1.00719E-004	0.00000E+000	5.55729E-005	5.99601E-002	5.51976E-001	3.57780E+000	9	...........
	17	0.24	5.66750E-001	1.00725E-004	0.00000E+000	5.70859E-005	5.99601E-002	5.66952E-001	3.57780E+000	9	...........
	18	0.253333	5.81354E-001	1.01460E-004	0.00000E+000	5.89839E-005	5.99601E-002	5.81572E-001	3.57780E+000	9	...........
	19	0.266667	5.95658E-001	1.00345E-004	0.00000E+000	5.97712E-005	5.99601E-002	5.95862E-001	3.57780E+000	9	...........
	20	0.28	6.09579E-001	1.00938E-004	0.00000E+000	6.15295E-005	5.99601E-002	6.09829E-001	3.57780E+000	9	...........
	21	0.293333	6.23241E-001	1.01048E-004	0.00000E+000	6.29772E-005	5.99601E-002	6.23458E-001	3.57780E+000	9	...........
	22	0.306667	6.36533E-001	1.00884E-004	0.00000E+000	6.42163E-005	5.99601E-002	6.36741E-001	3.57780E+000	9	...........
	23	0.32	6.49493E-001	1.00279E-004	0.00000E+000	6.51306E-005	5.99601E-002	6.49713E-001	3.57780E+000	9	...........
	24	0.333333	6.62134E-001	1.00402E-004	0.00000E+000	6.64796E-005	5.99601E-002	6.62357E-001	3.57780E+000	9	...........
	25	0.346667	6.74456E-001	1.01025E-004	0.00000E+000	6.81370E-005	5.99601E-002	6.74684E-001	3.57780E+000	9	...........
	26	0.36	6.86425E-001	1.02016E-004	0.00000E+000	7.00263E-005	5.99601E-002	6.86663E-001	3.57780E+000	9	...........
	27	0.373333	6.98123E-001	1.00720E-004	0.00000E+000	7.03149E-005	5.99601E-002	6.98348E-001	3.57780E+000	9	...........
	28	0.386667	7.09482E-001	1.00394E-004	0.00000E+000	7.12276E-005	5.99601E-002	7.09736E-001	3.57684E+000	9	...........
	29	0.4	7.20568E-001	1.02465E-004	0.00000E+000	7.38330E-005	5.99601E-002	7.20808E-001	3.57670E+000	9	...........
	30	0.413333	7.31348E-001	1.01487E-004	0.00000E+000	7.42221E-005	5.99601E-002	7.31560E-001	3.57670E+000	9	...........
	31	0.426667	7.41813E-001	1.00344E-004	0.00000E+000	7.44363E-005	5.99601E-002	7.42073E-001	3.57670E+000	9	...........
	32	0.44	7.52018E-001	1.01797E-004	0.00000E+000	7.65533E-005	5.99601E-002	7.52239E-001	3.57670E+000	9	...........
	33	0.453333	7.61905E-001	1.01060E-004	0.00000E+000	7.69978E-005	5.99601E-002	7.62117E-001	3.57670E+000	9	...........
	34	0.466667	7.71505E-001	1.00735E-004	0.00000E+000	7.77180E-005	5.99601E-002	7.71770E-001	3.57670E+000	9	...........
	35	0.48	7.80841E-001	1.01635E-004	0.00000E+000	7.93605E-005	5.99601E-002	7.81102E-001	3.57670E+000	9	...........
	36	0.493333	7.89901E-001	1.00310E-004	0.00000E+000	7.92353E-005	5.99601E-002	7.90170E-001	3.57670E+000	9	...........
	37	0.506667	7.98717E-001	1.01535E-004	0.00000E+000	8.10974E-005	5.99601E-002	7.98955E-001	3.57670E+000	9	...........
	38	0.52	8.07230E-001	1.00930E-004	0.00000E+000	8.14740E-005	5.99601E-002	8.07475E-001	3.57670E+000	9	...........
	39	0.533333	8.15478E-001	1.00999E-004	0.00000E+000	8.23625E-005	5.99601E-002	8.15765E-001	3.57670E+000	9	...........
	40	0.546667	8.23500E-001	1.00167E-004	0.00000E+000	8.24872E-005	5.99601E-002	8.23757E-001	3.57670E+000	9	...........
	41	0.56	8.31220E-001	1.01480E-004	0.00000E+000	8.43526E-005	5.99601E-002	8.31480E-001	3.57670E+000	9	...........
	42	0.573333	8.38709E-001	1.01197E-004	0.00000E+000	8.48749E-005	5.99601E-002	8.38981E-001	3.57670E+000	9	...........
	43	0.586667	8.45989E-001	1.00953E-004	0.00000E+000	8.54054E-005	5.99601E-002	8.46256E-001	3.57670E+000	9	...........
	44	0.6	8.53020E-001	9.90914E-005	0.00000E+000	8.45270E-005	5.99601E-002	8.53298E-001	3.57670E+000	9	...........
	45	0.613333	8.59849E-001	1.00697E-004	0.00000E+000	8.65842E-005	5.99601E-002	8.60147E-001	3.57670E+000	9	...........
	46	0.626667	8.66449E-001	1.00821E-004	0.00000E+000	8.73562E-005	5.99601E-002	8.66751E-001	3.57670E+000	9	...........
	47	0.64	8.72883E-001	1.02387E-004	0.00000E+000	8.93717E-005	5.99601E-002	8.73192E-001	3.57670E+000	9	...........
	48	0.653333	8.79111E-001	1.00127E-004	0.00000E+000	8.80228E-005	5.99601E-002	8.79427E-001	3.57670E+000	9	...........
	49	0.666667	8.85180E-001	1.01821E-004	0.00000E+000	9.01300E-005	5.99601E-002	8.85507E-001	3.57670E+000	9	...........
	50	0.68	8.91091E-001	1.00702E-004	0.00000E+000	8.97348E-005	5.99601E-002	8.91402E-001	3.57670E+000	9	...........
	51	0.693333	8.96825E-001	1.00656E-004	0.00000E+000	9.02711E-005	5.99601E-002	8.97145E-001	3.57670E+000	9	...........
	52	0.706667	9.02446E-001	1.00315E-004	0.00000E+000	9.05285E-005	5.99601E-002	9.02770E-001	3.57670E+000	9	...........
	53	0.72	9.07916E-001	1.01028E-004	0.00000E+000	9.17252E-005	5.99601E-002	9.08267E-001	3.57670E+000	9	...........
	54	0.733333	9.13289E-001	1.01312E-004	0.00000E+000	9.25268E-005	5.99601E-002	9.13634E-001	3.57670E+000	9	...........
	55	0.746667	9.18573E-001	1.01087E-004	0.00000E+000	9.28555E-005	5.99601E-002	9.18909E-001	3.57670E+000	9	...........
	56	0.76	9.23793E-001	1.01045E-004	0.00000E+000	9.33446E-005	5.99601E-002	9.24093E-001	3.57670E+000	9	...........
	57	0.773333	9.28852E-001	1.01169E-004	0.00000E+000	9.39710E-005	5.99601E-002	9.29155E-001	3.57670E+000	9	...........
	58	0.786667	9.33814E-001	1.00165E-004	0.00000E+000	9.35351E-005	5.99601E-002	9.34142E-001	3.57670E+000	9	...........
	59	0.8	9.38716E-001	1.00316E-004	0.00000E+000	9.41679E-005	5.99601E-002	9.39053E-001	3.57670E+000	9	...........
	60	0.813333	9.43541E-001	1.01020E-004	0.00000E+000	9.53165E-005	5.99601E-002	9.43861E-001	3.57670E+000	9	...........
	61	0.826667	9.48306E-001	1.01362E-004	0.00000E+000	9.61218E-005	5.99601E-002	9.48641E-001	3.57670E+000	9	...........
	62	0.84	9.52986E-001	1.00902E-004	0.00000E+000	9.61584E-005	5.99601E-002	9.53306E-001	3.57670E+000	9	...........
	63	0.853333	9.57559E-001	1.00375E-004	0.00000E+000	9.61150E-005	5.99601E-002	9.57904E-001	3.57670E+000	9	...........
	64	0.866667	9.62083E-001	1.01086E-004	0.00000E+000	9.72527E-005	5.99601E-002	9.62436E-001	3.57670E+000	9	...........
	65	0.88	9.66535E-001	1.00410E-004	0.00000E+000	9.70502E-005	5.99601E-002	9.66870E-001	3.57670E+000	9	...........
	66	0.893333	9.70905E-001	1.01515E-004	0.00000E+000	9.85613E-005	5.99601E-002	9.71253E-001	3.57670E+000	9	...........
	67	0.906667	9.75237E-001	1.01256E-004	0.00000E+000	9.87490E-005	5.99601E-002	9.75575E-001	3.57670E+000	9	...........
	68	0.92	9.79440E-001	1.00703E-004	0.00000E+000	9.86327E-005	5.99601E-002	9.79793E-001	3.57670E+000	9	...........
	69	0.933333	9.83586E-001	1.01922E-004	0.00000E+000	1.00249E-004	5.99601E-002	9.83944E-001	3.57670E+000	9	...........
	70	0.946667	9.87633E-001	1.01562E-004	0.00000E+000	1.00306E-004	5.99601E-002	9.87994E-001	3.57670E+000	9	...........
	71	0.96	9.91613E-001	1.01641E-004	0.00000E+000	1.00788E-004	5.99601E-002	9.91966E-001	3.57670E+000	9	...........
	72	0.97333	9.95476E-001	1.00271E-004	0.00000E+000	9.98172E-005	5.99601E-002	9.95842E-001	3.57670E+000	9	...........
	73	0.985	9.99091E-001	1.01105E-004	0.00000E+000	1.01013E-004	5.99601E-002	9.99435E-001	3.57670E+000	9	...........
STARTTIMEOFFSET	QUANT	1834.582	Start Time Offset (s)
