EXPLAIN
TAG	PWR800_CHARGE
TITLE	LABEL	PWR Cyclic Charge Discharge (Cell) - Charge Step	Test &Identifier
DATE	LABEL	12-7-2017	Date
TIME	LABEL	16:54:54	Time
NOTES	NOTES	2	&Notes...
	supercap test cell
	6M KOH
PSTAT	PSTAT	IFC5000-01520	Potentiostat
CAPACITY	QUANT	1.00000E-003	Capacity (A-hr)
CELLTYPE	SELECTOR	1	&Cell Type
WORKINGCONNECTION	SELECTOR	0	&Working Lead
MAXCHARGETIME	VARIABLEANDUNITS	1.00000E+002	s	1.00000E+002	second(s)	Max &Charge Time
CHARGECURRENT	QUANT	1.00000E-004	&Charge Current (A) 
VOLTAGEFINISH	TWOPARAM	F	1.00000E-003	3.60000E+003	&Voltage Finish	 I (A) < 	Max Time(s)
SAMPLETIME	QUANT	1.00000E-002	Sa&mple Period (s)
CHARGESTOPAT1	MULTIPARAM	4	1.00000E+000	Charge Stop At &1	Voltage > Limit	V
CHARGESTOPAT2	MULTIPARAM	0	0.00000E+000	Charge Stop At &2	None	N/A
AESBHCSELECTOR	TOGGLE	F	Save Both Half Cells
IRCOMP	TOGGLE	F	IR &Measure
EOC	QUANT	0	Open Circuit (V)
SEQUENCER	TOGGLE	TRUE	Run as Sequence
PSTATMODEL	IQUANT	53	Pstat Model
PSTATSECTION	LABEL	IFC5000-01520	Pstat Section
PSTATSERIALNO	LABEL	01520	Pstat Serial Number
CTRLMODE	IQUANT	0	Control Mode
ELECTROMETER	IQUANT	1	RE=0 or CS=1
IESTAB	IQUANT	0	I/E Stability
CASPEED	IQUANT	4	Control Amp Speed
CONVENTION	IQUANT	1	Current Convention
ICHRANGE	IQUANT	2	Ich Range
ICHRANGEMODE	TOGGLE	T	Ich Auto Range
ICHOFFSETENABLE	TOGGLE	F	Ich Offset Enable
ICHOFFSET	QUANT	0	Ich Offset (V)
ICHFILTER	IQUANT	1	Ich Filter
VCHRANGE	IQUANT	2	Vch Range
VCHRANGEMODE	TOGGLE	T	Vch Auto Range
VCHOFFSETENABLE	TOGGLE	F	Vch Offset Enable
VCHOFFSET	QUANT	0	Vch Offset (V)
VCHFILTER	IQUANT	1	Vch Filter
IERANGELOWERLIMIT	IQUANT	9	I/E Range Lower Limit
IERANGEMODE	TOGGLE	F	I/E AutoRange
IERANGE	IQUANT	9	I/E Range
ACHSELECT	IQUANT	1	Ach Select
ACHRANGE	IQUANT	2	Ach Range
ACHOFFSETENABLE	TOGGLE	F	Ach Offset Enable
ACHOFFSET	QUANT	0	Ach Offset (V)
ACHFILTER	IQUANT	1	Ach Filter
CABLEID	IQUANT	14	Cable ID
DCCALDATE	LABEL	5-7-2017	DC Calibration Date
ACCALDATE	LABEL	12/3/2015	AC Calibration Date
FRAMEWORKVERSION	QUANT	7.01	Framework Version
INSTRUMENTVERSION	LABEL	4.00	Instrument Version
CURVE	TABLE	74
	Pt	T	Vf	Im	Vu	Pwr	Sig	Ach	Temp	IERange	Over
	#	s	V	A	V	W	V	V	deg C	#	bits
	0	0.013333	2.55363E-001	1.01373E-004	0.00000E+000	2.58869E-005	5.99601E-002	2.55432E-001	3.57770E+000	9	...........
	1	0.026667	2.78539E-001	1.01561E-004	0.00000E+000	2.82886E-005	5.99601E-002	2.78594E-001	3.57770E+000	9	...........
	2	0.04	3.00475E-001	9.92779E-005	0.00000E+000	2.98305E-005	5.99601E-002	3.00530E-001	3.57770E+000	9	...........
	3	0.053333	3.21529E-001	1.00708E-004	0.00000E+000	3.23806E-005	5.99601E-002	3.21597E-001	3.57770E+000	9	...........
	4	0.066667	3.41878E-001	1.00585E-004	0.00000E+000	3.43879E-005	5.99601E-002	3.41946E-001	3.57770E+000	9	...........
	5	0.08	3.61636E-001	1.00889E-004	0.00000E+000	3.64849E-005	5.99601E-002	3.61710E-001	3.57770E+000	9	...........
	6	0.093333	3.80878E-001	1.00403E-004	0.00000E+000	3.82413E-005	5.99601E-002	3.80949E-001	3.57770E+000	9	...........
	7	0.106667	3.99661E-001	1.01338E-004	0.00000E+000	4.05007E-005	5.99601E-002	3.99732E-001	3.57770E+000	9	...........
	8	0.12	4.17996E-001	1.01944E-004	0.00000E+000	4.26122E-005	5.99601E-002	4.18087E-001	3.57770E+000	9	...........
	9	0.133333	4.35936E-001	1.00479E-004	0.00000E+000	4.38025E-005	5.99601E-002	4.36029E-001	3.57770E+000	9	...........
	10	0.146667	4.53475E-001	1.01323E-004	0.00000E+000	4.59475E-005	5.99601E-002	4.53571E-001	3.57770E+000	9	...........
	11	0.16	4.70641E-001	1.01253E-004	0.00000E+000	4.76540E-005	5.99601E-002	4.70741E-001	3.57770E+000	9	...........
	12	0.173333	4.87434E-001	1.01078E-004	0.00000E+000	4.92690E-005	5.99601E-002	4.87535E-001	3.57770E+000	9	...........
	13	0.186667	5.03864E-001	1.02058E-004	0.00000E+000	5.14232E-005	5.99601E-002	5.03970E-001	3.57770E+000	9	...........
	14	0.2	5.19929E-001	1.02929E-004	0.00000E+000	5.35156E-005	5.99601E-002	5.20039E-001	3.57770E+000	9	...........
	15	0.213333	5.35506E-001	1.00518E-004	0.00000E+000	5.38279E-005	5.99601E-002	5.35665E-001	3.57770E+000	9	...........
	16	0.226667	5.50720E-001	1.01162E-004	0.00000E+000	5.57117E-005	5.99601E-002	5.50970E-001	3.57770E+000	9	...........
	17	0.24	5.65742E-001	1.01502E-004	0.00000E+000	5.74241E-005	5.99601E-002	5.65987E-001	3.57770E+000	9	...........
	18	0.253333	5.80406E-001	1.01017E-004	0.00000E+000	5.86308E-005	5.99601E-002	5.80633E-001	3.57770E+000	9	...........
	19	0.266667	5.94740E-001	1.00021E-004	0.00000E+000	5.94863E-005	5.99601E-002	5.94995E-001	3.57770E+000	9	...........
	20	0.28	6.08721E-001	1.01096E-004	0.00000E+000	6.15393E-005	5.99601E-002	6.08985E-001	3.57770E+000	9	...........
	21	0.293333	6.22420E-001	9.98687E-005	0.00000E+000	6.21603E-005	5.99601E-002	6.22634E-001	3.57770E+000	9	...........
	22	0.306667	6.35720E-001	1.01677E-004	0.00000E+000	6.46383E-005	5.99601E-002	6.35956E-001	3.57770E+000	9	...........
	23	0.32	6.48727E-001	1.00388E-004	0.00000E+000	6.51241E-005	5.99601E-002	6.48978E-001	3.57770E+000	9	...........
	24	0.333333	6.61411E-001	1.01833E-004	0.00000E+000	6.73532E-005	5.99601E-002	6.61645E-001	3.57770E+000	9	...........
	25	0.346667	6.73780E-001	1.01851E-004	0.00000E+000	6.86254E-005	5.99601E-002	6.73997E-001	3.57670E+000	9	...........
	26	0.36	6.85794E-001	1.01754E-004	0.00000E+000	6.97826E-005	5.99601E-002	6.86022E-001	3.57670E+000	9	...........
	27	0.373333	6.97522E-001	1.00941E-004	0.00000E+000	7.04084E-005	5.99601E-002	6.97755E-001	3.57670E+000	9	...........
	28	0.386667	7.08911E-001	1.00936E-004	0.00000E+000	7.15543E-005	5.99601E-002	7.09144E-001	3.57670E+000	9	...........
	29	0.4	7.20030E-001	1.00294E-004	0.00000E+000	7.22145E-005	5.99601E-002	7.20261E-001	3.57670E+000	9	...........
	30	0.413333	7.30814E-001	1.00846E-004	0.00000E+000	7.36996E-005	5.99601E-002	7.31081E-001	3.57670E+000	9	...........
	31	0.426667	7.41314E-001	1.00672E-004	0.00000E+000	7.46295E-005	5.99601E-002	7.41569E-001	3.57670E+000	9	...........
	32	0.44	7.51539E-001	1.02110E-004	0.00000E+000	7.67395E-005	5.99601E-002	7.51795E-001	3.57670E+000	9	...........
	33	0.453333	7.61452E-001	1.01267E-004	0.00000E+000	7.71098E-005	5.99601E-002	7.61700E-001	3.57670E+000	9	...........
	34	0.466667	7.71079E-001	1.01740E-004	0.00000E+000	7.84495E-005	5.99601E-002	7.71327E-001	3.57670E+000	9	...........
	35	0.48	7.80429E-001	1.01701E-004	0.00000E+000	7.93706E-005	5.99601E-002	7.80677E-001	3.57670E+000	9	...........
	36	0.493333	7.89546E-001	1.00565E-004	0.00000E+000	7.94004E-005	5.99601E-002	7.89757E-001	3.57670E+000	9	...........
	37	0.506667	7.98348E-001	1.01342E-004	0.00000E+000	8.09061E-005	5.99601E-002	7.98581E-001	3.57670E+000	9	...........
	38	0.52	8.06860E-001	1.01824E-004	0.00000E+000	8.21579E-005	5.99601E-002	8.07107E-001	3.57670E+000	9	...........
	39	0.533333	8.15134E-001	1.00847E-004	0.00000E+000	8.22038E-005	5.99601E-002	8.15393E-001	3.57670E+000	9	...........
	40	0.546667	8.23151E-001	1.01812E-004	0.00000E+000	8.38064E-005	5.99601E-002	8.23403E-001	3.57670E+000	9	...........
	41	0.56	8.30881E-001	9.95634E-005	0.00000E+000	8.27253E-005	5.99601E-002	8.31158E-001	3.57670E+000	9	...........
	42	0.573333	8.38389E-001	9.98436E-005	0.00000E+000	8.37078E-005	5.99601E-002	8.38658E-001	3.57670E+000	9	...........
	43	0.586667	8.45678E-001	1.00429E-004	0.00000E+000	8.49307E-005	5.99601E-002	8.45956E-001	3.57670E+000	9	...........
	44	0.6	8.52722E-001	1.00629E-004	0.00000E+000	8.58087E-005	5.99601E-002	8.53021E-001	3.57670E+000	9	...........
	45	0.613333	8.59543E-001	1.00441E-004	0.00000E+000	8.63330E-005	5.99601E-002	8.59869E-001	3.57670E+000	9	...........
	46	0.626667	8.66163E-001	1.01800E-004	0.00000E+000	8.81756E-005	5.99601E-002	8.66501E-001	3.57670E+000	9	...........
	47	0.64	8.72638E-001	1.00516E-004	0.00000E+000	8.77137E-005	5.99601E-002	8.72949E-001	3.57670E+000	9	...........
	48	0.653333	8.78881E-001	1.00572E-004	0.00000E+000	8.83908E-005	5.99601E-002	8.79203E-001	3.57670E+000	9	...........
	49	0.666667	8.84968E-001	1.01363E-004	0.00000E+000	8.97028E-005	5.99601E-002	8.85274E-001	3.57670E+000	9	...........
	50	0.68	8.90882E-001	1.00805E-004	0.00000E+000	8.98056E-005	5.99601E-002	8.91173E-001	3.57670E+000	9	...........
	51	0.693333	8.96647E-001	1.00735E-004	0.00000E+000	9.03241E-005	5.99601E-002	8.96957E-001	3.57670E+000	9	...........
	52	0.706667	9.02269E-001	1.00260E-004	0.00000E+000	9.04618E-005	5.99601E-002	9.02582E-001	3.57670E+000	9	...........
	53	0.72	9.07781E-001	9.99426E-005	0.00000E+000	9.07260E-005	5.99601E-002	9.08094E-001	3.57670E+000	9	...........
	54	0.733333	9.13165E-001	1.00293E-004	0.00000E+000	9.15838E-005	5.99601E-002	9.13472E-001	3.57670E+000	9	...........
	55	0.746667	9.18406E-001	1.01271E-004	0.00000E+000	9.30079E-005	5.99601E-002	9.18759E-001	3.57670E+000	9	...........
	56	0.76	9.23674E-001	1.00942E-004	0.00000E+000	9.32373E-005	5.99601E-002	9.23947E-001	3.57670E+000	9	...........
	57	0.773333	9.28740E-001	1.01417E-004	0.00000E+000	9.41899E-005	5.99601E-002	9.29022E-001	3.57670E+000	9	...........
	58	0.786667	9.33713E-001	1.00828E-004	0.00000E+000	9.41446E-005	5.99601E-002	9.34018E-001	3.57670E+000	9	...........
	59	0.8	9.38622E-001	1.00010E-004	0.00000E+000	9.38719E-005	5.99601E-002	9.38959E-001	3.57670E+000	9	...........
	60	0.813333	9.43461E-001	1.01885E-004	0.00000E+000	9.61243E-005	5.99601E-002	9.43780E-001	3.57670E+000	9	...........
	61	0.826667	9.48257E-001	1.00677E-004	0.00000E+000	9.54678E-005	5.99601E-002	9.48569E-001	3.57670E+000	9	...........
	62	0.84	9.52941E-001	1.00822E-004	0.00000E+000	9.60774E-005	5.99601E-002	9.53265E-001	3.57670E+000	9	...........
	63	0.853333	9.57557E-001	1.01200E-004	0.00000E+000	9.69049E-005	5.99601E-002	9.57863E-001	3.57670E+000	9	...........
	64	0.866667	9.62088E-001	1.01406E-004	0.00000E+000	9.75620E-005	5.99601E-002	9.62414E-001	3.57670E+000	9	...........
	65	0.88	9.66540E-001	1.02048E-004	0.00000E+000	9.86337E-005	5.99601E-002	9.66895E-001	3.57670E+000	9	...........
	66	0.893333	9.70944E-001	9.99718E-005	0.00000E+000	9.70670E-005	5.99601E-002	9.71320E-001	3.57670E+000	9	...........
	67	0.906667	9.75284E-001	1.01673E-004	0.00000E+000	9.91603E-005	5.99601E-002	9.75618E-001	3.57670E+000	9	...........
	68	0.92	9.79525E-001	1.01953E-004	0.00000E+000	9.98659E-005	5.99601E-002	9.79869E-001	3.57670E+000	9	...........
	69	0.933333	9.83667E-001	1.00145E-004	0.00000E+000	9.85091E-005	5.99601E-002	9.84021E-001	3.57670E+000	9	...........
	70	0.946667	9.87745E-001	1.02039E-004	0.00000E+000	1.00788E-004	5.99601E-002	9.88115E-001	3.57670E+000	9	...........
	71	0.96	9.91705E-001	1.01031E-004	0.00000E+000	1.00193E-004	5.99601E-002	9.92067E-001	3.57670E+000	9	...........
	72	0.97333	9.95603E-001	1.01123E-004	0.00000E+000	1.00678E-004	5.99601E-002	9.95961E-001	3.57670E+000	9	...........
	73	0.98333	9.98964E-001	1.00677E-004	0.00000E+000	1.00573E-004	5.99601E-002	9.99317E-001	3.57670E+000	9	...........
STARTTIMEOFFSET	QUANT	1911.026	Start Time Offset (s)
