EXPLAIN
TAG	PWR800_CHARGE
TITLE	LABEL	PWR Cyclic Charge Discharge (Cell) - Charge Step	Test &Identifier
DATE	LABEL	12-7-2017	Date
TIME	LABEL	16:15:44	Time
NOTES	NOTES	2	&Notes...
	supercap test cell
	6M KOH
PSTAT	PSTAT	IFC5000-01520	Potentiostat
CAPACITY	QUANT	1.00000E-003	Capacity (A-hr)
CELLTYPE	SELECTOR	1	&Cell Type
WORKINGCONNECTION	SELECTOR	0	&Working Lead
MAXCHARGETIME	VARIABLEANDUNITS	1.00000E+002	s	1.00000E+002	second(s)	Max &Charge Time
CHARGECURRENT	QUANT	1.00000E-004	&Charge Current (A) 
VOLTAGEFINISH	TWOPARAM	F	1.00000E-003	3.60000E+003	&Voltage Finish	 I (A) < 	Max Time(s)
SAMPLETIME	QUANT	1.00000E-002	Sa&mple Period (s)
CHARGESTOPAT1	MULTIPARAM	4	1.00000E+000	Charge Stop At &1	Voltage > Limit	V
CHARGESTOPAT2	MULTIPARAM	0	0.00000E+000	Charge Stop At &2	None	N/A
AESBHCSELECTOR	TOGGLE	F	Save Both Half Cells
IRCOMP	TOGGLE	F	IR &Measure
EOC	QUANT	0	Open Circuit (V)
SEQUENCER	TOGGLE	TRUE	Run as Sequence
PSTATMODEL	IQUANT	53	Pstat Model
PSTATSECTION	LABEL	IFC5000-01520	Pstat Section
PSTATSERIALNO	LABEL	01520	Pstat Serial Number
CTRLMODE	IQUANT	0	Control Mode
ELECTROMETER	IQUANT	1	RE=0 or CS=1
IESTAB	IQUANT	0	I/E Stability
CASPEED	IQUANT	4	Control Amp Speed
CONVENTION	IQUANT	1	Current Convention
ICHRANGE	IQUANT	2	Ich Range
ICHRANGEMODE	TOGGLE	T	Ich Auto Range
ICHOFFSETENABLE	TOGGLE	F	Ich Offset Enable
ICHOFFSET	QUANT	0	Ich Offset (V)
ICHFILTER	IQUANT	1	Ich Filter
VCHRANGE	IQUANT	2	Vch Range
VCHRANGEMODE	TOGGLE	T	Vch Auto Range
VCHOFFSETENABLE	TOGGLE	F	Vch Offset Enable
VCHOFFSET	QUANT	0	Vch Offset (V)
VCHFILTER	IQUANT	1	Vch Filter
IERANGELOWERLIMIT	IQUANT	9	I/E Range Lower Limit
IERANGEMODE	TOGGLE	F	I/E AutoRange
IERANGE	IQUANT	9	I/E Range
ACHSELECT	IQUANT	1	Ach Select
ACHRANGE	IQUANT	2	Ach Range
ACHOFFSETENABLE	TOGGLE	F	Ach Offset Enable
ACHOFFSET	QUANT	0	Ach Offset (V)
ACHFILTER	IQUANT	1	Ach Filter
CABLEID	IQUANT	14	Cable ID
DCCALDATE	LABEL	5-7-2017	DC Calibration Date
ACCALDATE	LABEL	12/3/2015	AC Calibration Date
FRAMEWORKVERSION	QUANT	7.01	Framework Version
INSTRUMENTVERSION	LABEL	4.00	Instrument Version
CURVE	TABLE	80
	Pt	T	Vf	Im	Vu	Pwr	Sig	Ach	Temp	IERange	Over
	#	s	V	A	V	W	V	V	deg C	#	bits
	0	0.013333	2.64925E-001	1.01814E-004	0.00000E+000	2.69730E-005	5.99601E-002	2.65002E-001	3.57770E+000	9	...........
	1	0.026667	2.87488E-001	1.01074E-004	0.00000E+000	2.90576E-005	5.99601E-002	2.87548E-001	3.57770E+000	9	...........
	2	0.04	3.08479E-001	1.00634E-004	0.00000E+000	3.10436E-005	5.99601E-002	3.08552E-001	3.57770E+000	9	...........
	3	0.053333	3.28287E-001	1.00761E-004	0.00000E+000	3.30784E-005	5.99601E-002	3.28351E-001	3.57770E+000	9	...........
	4	0.066667	3.47134E-001	1.01246E-004	0.00000E+000	3.51459E-005	5.99601E-002	3.47204E-001	3.57770E+000	9	...........
	5	0.08	3.65180E-001	1.01128E-004	0.00000E+000	3.69300E-005	5.99601E-002	3.65257E-001	3.57770E+000	9	...........
	6	0.093333	3.82550E-001	1.00479E-004	0.00000E+000	3.84383E-005	5.99601E-002	3.82626E-001	3.57770E+000	9	...........
	7	0.106667	3.99314E-001	1.00639E-004	0.00000E+000	4.01864E-005	5.99601E-002	3.99399E-001	3.57770E+000	9	...........
	8	0.12	4.15570E-001	1.00429E-004	0.00000E+000	4.17354E-005	5.99601E-002	4.15653E-001	3.57770E+000	9	...........
	9	0.133333	4.31360E-001	1.00725E-004	0.00000E+000	4.34488E-005	5.99601E-002	4.31451E-001	3.57770E+000	9	...........
	10	0.146667	4.46728E-001	1.00541E-004	0.00000E+000	4.49144E-005	5.99601E-002	4.46828E-001	3.57770E+000	9	...........
	11	0.16	4.61720E-001	1.00974E-004	0.00000E+000	4.66218E-005	5.99601E-002	4.61820E-001	3.57770E+000	9	...........
	12	0.173333	4.76366E-001	1.01174E-004	0.00000E+000	4.81959E-005	5.99601E-002	4.76466E-001	3.57770E+000	9	...........
	13	0.186667	4.90679E-001	1.00985E-004	0.00000E+000	4.95510E-005	5.99601E-002	4.90786E-001	3.57770E+000	9	...........
	14	0.2	5.04695E-001	1.01881E-004	0.00000E+000	5.14186E-005	5.99601E-002	5.04807E-001	3.57770E+000	9	...........
	15	0.213333	5.18435E-001	1.00823E-004	0.00000E+000	5.22702E-005	5.99601E-002	5.18548E-001	3.57770E+000	9	...........
	16	0.226667	5.31821E-001	1.01041E-004	0.00000E+000	5.37356E-005	5.99601E-002	5.31939E-001	3.57770E+000	9	...........
	17	0.24	5.44808E-001	1.00365E-004	0.00000E+000	5.46794E-005	5.99601E-002	5.45034E-001	3.57770E+000	9	...........
	18	0.253333	5.57756E-001	1.01427E-004	0.00000E+000	5.65717E-005	5.99601E-002	5.58017E-001	3.57770E+000	9	...........
	19	0.266667	5.70551E-001	1.00780E-004	0.00000E+000	5.75003E-005	5.99601E-002	5.70785E-001	3.57770E+000	9	...........
	20	0.28	5.83027E-001	1.01253E-004	0.00000E+000	5.90334E-005	5.99601E-002	5.83287E-001	3.57770E+000	9	...........
	21	0.293333	5.95355E-001	1.00899E-004	0.00000E+000	6.00708E-005	5.99601E-002	5.95621E-001	3.57770E+000	9	...........
	22	0.306667	6.07387E-001	1.00356E-004	0.00000E+000	6.09551E-005	5.99601E-002	6.07710E-001	3.57770E+000	9	...........
	23	0.32	6.19323E-001	1.00693E-004	0.00000E+000	6.23613E-005	5.99601E-002	6.19607E-001	3.57770E+000	9	...........
	24	0.333333	6.30982E-001	1.01037E-004	0.00000E+000	6.37523E-005	5.99601E-002	6.31274E-001	3.57770E+000	9	...........
	25	0.346667	6.42460E-001	1.01715E-004	0.00000E+000	6.53477E-005	5.99601E-002	6.42764E-001	3.57770E+000	9	...........
	26	0.36	6.53757E-001	1.00525E-004	0.00000E+000	6.57189E-005	5.99601E-002	6.54041E-001	3.57770E+000	9	...........
	27	0.373333	6.64852E-001	1.00600E-004	0.00000E+000	6.68842E-005	5.99601E-002	6.65145E-001	3.57770E+000	9	...........
	28	0.386667	6.75750E-001	1.00754E-004	0.00000E+000	6.80847E-005	5.99601E-002	6.76048E-001	3.57770E+000	9	...........
	29	0.4	6.86451E-001	1.00467E-004	0.00000E+000	6.89655E-005	5.99601E-002	6.86742E-001	3.57770E+000	9	...........
	30	0.413333	6.96988E-001	1.00718E-004	0.00000E+000	7.01991E-005	5.99601E-002	6.97273E-001	3.57770E+000	9	...........
	31	0.426667	7.07308E-001	1.00660E-004	0.00000E+000	7.11980E-005	5.99601E-002	7.07616E-001	3.57770E+000	9	...........
	32	0.44	7.17460E-001	9.99218E-005	0.00000E+000	7.16899E-005	5.99601E-002	7.17745E-001	3.57770E+000	9	...........
	33	0.453333	7.27425E-001	1.00570E-004	0.00000E+000	7.31570E-005	5.99601E-002	7.27693E-001	3.57770E+000	9	...........
	34	0.466667	7.37145E-001	1.00787E-004	0.00000E+000	7.42943E-005	5.99601E-002	7.37429E-001	3.57770E+000	9	...........
	35	0.48	7.46712E-001	1.01291E-004	0.00000E+000	7.56351E-005	5.99601E-002	7.47000E-001	3.57770E+000	9	...........
	36	0.493333	7.56092E-001	1.00318E-004	0.00000E+000	7.58494E-005	5.99601E-002	7.56367E-001	3.57770E+000	9	...........
	37	0.506667	7.65273E-001	1.01091E-004	0.00000E+000	7.73620E-005	5.99601E-002	7.65554E-001	3.57770E+000	9	...........
	38	0.52	7.74265E-001	1.01251E-004	0.00000E+000	7.83953E-005	5.99601E-002	7.74559E-001	3.57770E+000	9	...........
	39	0.533333	7.83068E-001	1.02525E-004	0.00000E+000	8.02844E-005	5.99601E-002	7.83344E-001	3.57770E+000	9	...........
	40	0.546667	7.91673E-001	1.00334E-004	0.00000E+000	7.94320E-005	5.99601E-002	7.91969E-001	3.57770E+000	9	...........
	41	0.56	8.00096E-001	1.01559E-004	0.00000E+000	8.12566E-005	5.99601E-002	8.00371E-001	3.57770E+000	9	...........
	42	0.573333	8.08290E-001	1.00800E-004	0.00000E+000	8.14757E-005	5.99601E-002	8.08570E-001	3.57770E+000	9	...........
	43	0.586667	8.16302E-001	1.00757E-004	0.00000E+000	8.22484E-005	5.99601E-002	8.16601E-001	3.57770E+000	9	...........
	44	0.6	8.24149E-001	1.01254E-004	0.00000E+000	8.34486E-005	5.99601E-002	8.24442E-001	3.57770E+000	9	...........
	45	0.613333	8.31778E-001	1.00756E-004	0.00000E+000	8.38069E-005	5.99601E-002	8.32097E-001	3.57770E+000	9	...........
	46	0.626667	8.39225E-001	1.00202E-004	0.00000E+000	8.40921E-005	5.99601E-002	8.39559E-001	3.57770E+000	9	...........
	47	0.64	8.46518E-001	1.00315E-004	0.00000E+000	8.49181E-005	5.99601E-002	8.46863E-001	3.57770E+000	9	...........
	48	0.653333	8.53607E-001	9.96499E-005	0.00000E+000	8.50618E-005	5.99601E-002	8.53922E-001	3.57770E+000	9	...........
	49	0.666667	8.60498E-001	1.00980E-004	0.00000E+000	8.68934E-005	5.99601E-002	8.60838E-001	3.57770E+000	9	...........
	50	0.68	8.67216E-001	1.00301E-004	0.00000E+000	8.69826E-005	5.99601E-002	8.67566E-001	3.57770E+000	9	...........
	51	0.693333	8.73788E-001	1.01015E-004	0.00000E+000	8.82655E-005	5.99601E-002	8.74131E-001	3.57770E+000	9	...........
	52	0.706667	8.80140E-001	1.00427E-004	0.00000E+000	8.83900E-005	5.99601E-002	8.80474E-001	3.57770E+000	9	...........
	53	0.72	8.86320E-001	1.00211E-004	0.00000E+000	8.88194E-005	5.99601E-002	8.86643E-001	3.57770E+000	9	...........
	54	0.733333	8.92310E-001	1.00833E-004	0.00000E+000	8.99747E-005	5.99601E-002	8.92660E-001	3.57770E+000	9	...........
	55	0.746667	8.98167E-001	1.01201E-004	0.00000E+000	9.08956E-005	5.99601E-002	8.98522E-001	3.57770E+000	9	...........
	56	0.76	9.03834E-001	1.02005E-004	0.00000E+000	9.21952E-005	5.99601E-002	9.04193E-001	3.57770E+000	9	...........
	57	0.773333	9.09354E-001	1.00518E-004	0.00000E+000	9.14062E-005	5.99601E-002	9.09698E-001	3.57770E+000	9	...........
	58	0.786667	9.14710E-001	1.00563E-004	0.00000E+000	9.19855E-005	5.99601E-002	9.15052E-001	3.57770E+000	9	...........
	59	0.8	9.19924E-001	1.01000E-004	0.00000E+000	9.29124E-005	5.99601E-002	9.20253E-001	3.57770E+000	9	...........
	60	0.813333	9.25016E-001	1.01089E-004	0.00000E+000	9.35086E-005	5.99601E-002	9.25324E-001	3.57770E+000	9	...........
	61	0.826667	9.29925E-001	1.01086E-004	0.00000E+000	9.40020E-005	5.99601E-002	9.30237E-001	3.57770E+000	9	...........
	62	0.84	9.34697E-001	1.01141E-004	0.00000E+000	9.45360E-005	5.99601E-002	9.35035E-001	3.57770E+000	9	...........
	63	0.853333	9.39359E-001	1.01426E-004	0.00000E+000	9.52756E-005	5.99601E-002	9.39685E-001	3.57782E+000	9	...........
	64	0.866667	9.43894E-001	1.00534E-004	0.00000E+000	9.48938E-005	5.99601E-002	9.44234E-001	3.57870E+000	9	...........
	65	0.88	9.48357E-001	1.00825E-004	0.00000E+000	9.56182E-005	5.99601E-002	9.48691E-001	3.57870E+000	9	...........
	66	0.893333	9.52672E-001	1.00710E-004	0.00000E+000	9.59441E-005	5.99601E-002	9.53004E-001	3.57870E+000	9	...........
	67	0.906667	9.56908E-001	1.01419E-004	0.00000E+000	9.70486E-005	5.99601E-002	9.57210E-001	3.57870E+000	9	...........
	68	0.92	9.61000E-001	1.00514E-004	0.00000E+000	9.65936E-005	5.99601E-002	9.61339E-001	3.57870E+000	9	...........
	69	0.933333	9.65036E-001	1.01103E-004	0.00000E+000	9.75683E-005	5.99601E-002	9.65365E-001	3.57870E+000	9	...........
	70	0.946667	9.68971E-001	1.01172E-004	0.00000E+000	9.80328E-005	5.99601E-002	9.69305E-001	3.57870E+000	9	...........
	71	0.96	9.72860E-001	1.01270E-004	0.00000E+000	9.85215E-005	5.99601E-002	9.73203E-001	3.57870E+000	9	...........
	72	0.97333	9.76650E-001	1.01277E-004	0.00000E+000	9.89124E-005	5.99601E-002	9.76986E-001	3.57870E+000	9	...........
	73	0.98667	9.80329E-001	1.01328E-004	0.00000E+000	9.93351E-005	5.99601E-002	9.80673E-001	3.57870E+000	9	...........
	74	1	9.83916E-001	1.00831E-004	0.00000E+000	9.92096E-005	5.99601E-002	9.84265E-001	3.57870E+000	9	...........
	75	1.01333	9.87445E-001	1.00615E-004	0.00000E+000	9.93514E-005	5.99601E-002	9.87775E-001	3.57870E+000	9	...........
	76	1.02667	9.90870E-001	1.00996E-004	0.00000E+000	1.00074E-004	5.99601E-002	9.91219E-001	3.57870E+000	9	...........
	77	1.04	9.94206E-001	1.01213E-004	0.00000E+000	1.00626E-004	5.99601E-002	9.94549E-001	3.57870E+000	9	...........
	78	1.05333	9.97489E-001	1.01164E-004	0.00000E+000	1.00910E-004	5.99601E-002	9.97812E-001	3.57870E+000	9	...........
	79	1.05833	9.99693E-001	1.00698E-004	0.00000E+000	1.00667E-004	5.99601E-002	1.00002E+000	3.57870E+000	9	...........
STARTTIMEOFFSET	QUANT	242.64	Start Time Offset (s)
