EXPLAIN
TAG	PWR800_CHARGE
TITLE	LABEL	PWR Cyclic Charge Discharge (Cell) - Charge Step	Test &Identifier
DATE	LABEL	12-7-2017	Date
TIME	LABEL	16:19:00	Time
NOTES	NOTES	2	&Notes...
	supercap test cell
	6M KOH
PSTAT	PSTAT	IFC5000-01520	Potentiostat
CAPACITY	QUANT	1.00000E-003	Capacity (A-hr)
CELLTYPE	SELECTOR	1	&Cell Type
WORKINGCONNECTION	SELECTOR	0	&Working Lead
MAXCHARGETIME	VARIABLEANDUNITS	1.00000E+002	s	1.00000E+002	second(s)	Max &Charge Time
CHARGECURRENT	QUANT	1.00000E-004	&Charge Current (A) 
VOLTAGEFINISH	TWOPARAM	F	1.00000E-003	3.60000E+003	&Voltage Finish	 I (A) < 	Max Time(s)
SAMPLETIME	QUANT	1.00000E-002	Sa&mple Period (s)
CHARGESTOPAT1	MULTIPARAM	4	1.00000E+000	Charge Stop At &1	Voltage > Limit	V
CHARGESTOPAT2	MULTIPARAM	0	0.00000E+000	Charge Stop At &2	None	N/A
AESBHCSELECTOR	TOGGLE	F	Save Both Half Cells
IRCOMP	TOGGLE	F	IR &Measure
EOC	QUANT	0	Open Circuit (V)
SEQUENCER	TOGGLE	TRUE	Run as Sequence
PSTATMODEL	IQUANT	53	Pstat Model
PSTATSECTION	LABEL	IFC5000-01520	Pstat Section
PSTATSERIALNO	LABEL	01520	Pstat Serial Number
CTRLMODE	IQUANT	0	Control Mode
ELECTROMETER	IQUANT	1	RE=0 or CS=1
IESTAB	IQUANT	0	I/E Stability
CASPEED	IQUANT	4	Control Amp Speed
CONVENTION	IQUANT	1	Current Convention
ICHRANGE	IQUANT	2	Ich Range
ICHRANGEMODE	TOGGLE	T	Ich Auto Range
ICHOFFSETENABLE	TOGGLE	F	Ich Offset Enable
ICHOFFSET	QUANT	0	Ich Offset (V)
ICHFILTER	IQUANT	1	Ich Filter
VCHRANGE	IQUANT	2	Vch Range
VCHRANGEMODE	TOGGLE	T	Vch Auto Range
VCHOFFSETENABLE	TOGGLE	F	Vch Offset Enable
VCHOFFSET	QUANT	0	Vch Offset (V)
VCHFILTER	IQUANT	1	Vch Filter
IERANGELOWERLIMIT	IQUANT	9	I/E Range Lower Limit
IERANGEMODE	TOGGLE	F	I/E AutoRange
IERANGE	IQUANT	9	I/E Range
ACHSELECT	IQUANT	1	Ach Select
ACHRANGE	IQUANT	2	Ach Range
ACHOFFSETENABLE	TOGGLE	F	Ach Offset Enable
ACHOFFSET	QUANT	0	Ach Offset (V)
ACHFILTER	IQUANT	1	Ach Filter
CABLEID	IQUANT	14	Cable ID
DCCALDATE	LABEL	5-7-2017	DC Calibration Date
ACCALDATE	LABEL	12/3/2015	AC Calibration Date
FRAMEWORKVERSION	QUANT	7.01	Framework Version
INSTRUMENTVERSION	LABEL	4.00	Instrument Version
CURVE	TABLE	79
	Pt	T	Vf	Im	Vu	Pwr	Sig	Ach	Temp	IERange	Over
	#	s	V	A	V	W	V	V	deg C	#	bits
	0	0.013333	2.62486E-001	1.01721E-004	0.00000E+000	2.67004E-005	5.99601E-002	2.62552E-001	3.57720E+000	9	...........
	1	0.026667	2.85164E-001	1.00134E-004	0.00000E+000	2.85547E-005	5.99601E-002	2.85227E-001	3.57720E+000	9	...........
	2	0.04	3.06343E-001	1.00768E-004	0.00000E+000	3.08695E-005	5.99601E-002	3.06411E-001	3.57720E+000	9	...........
	3	0.053333	3.26400E-001	1.00768E-004	0.00000E+000	3.28906E-005	5.99601E-002	3.26478E-001	3.57720E+000	9	...........
	4	0.066667	3.45581E-001	1.01355E-004	0.00000E+000	3.50265E-005	5.99601E-002	3.45647E-001	3.57720E+000	9	...........
	5	0.08	3.64010E-001	1.01636E-004	0.00000E+000	3.69964E-005	5.99601E-002	3.64085E-001	3.57720E+000	9	...........
	6	0.093333	3.81810E-001	1.00443E-004	0.00000E+000	3.83500E-005	5.99601E-002	3.81886E-001	3.57720E+000	9	...........
	7	0.106667	3.99063E-001	1.02098E-004	0.00000E+000	4.07436E-005	5.99601E-002	3.99139E-001	3.57720E+000	9	...........
	8	0.12	4.15816E-001	1.02000E-004	0.00000E+000	4.24133E-005	5.99601E-002	4.15903E-001	3.57720E+000	9	...........
	9	0.133333	4.32133E-001	1.00649E-004	0.00000E+000	4.34938E-005	5.99601E-002	4.32221E-001	3.57720E+000	9	...........
	10	0.146667	4.48042E-001	1.00246E-004	0.00000E+000	4.49143E-005	5.99601E-002	4.48134E-001	3.57720E+000	9	...........
	11	0.16	4.63577E-001	1.00009E-004	0.00000E+000	4.63620E-005	5.99601E-002	4.63675E-001	3.57720E+000	9	...........
	12	0.173333	4.78773E-001	1.00957E-004	0.00000E+000	4.83357E-005	5.99601E-002	4.78871E-001	3.57720E+000	9	...........
	13	0.186667	4.93634E-001	1.01409E-004	0.00000E+000	5.00587E-005	5.99601E-002	4.93734E-001	3.57720E+000	9	...........
	14	0.2	5.08184E-001	1.00806E-004	0.00000E+000	5.12282E-005	5.99601E-002	5.08293E-001	3.57720E+000	9	...........
	15	0.213333	5.22437E-001	1.00749E-004	0.00000E+000	5.26351E-005	5.99601E-002	5.22553E-001	3.57720E+000	9	...........
	16	0.226667	5.36221E-001	1.00790E-004	0.00000E+000	5.40456E-005	5.99601E-002	5.36386E-001	3.57720E+000	9	...........
	17	0.24	5.49822E-001	1.01016E-004	0.00000E+000	5.55407E-005	5.99601E-002	5.50012E-001	3.57720E+000	9	...........
	18	0.253333	5.63255E-001	1.01393E-004	0.00000E+000	5.71100E-005	5.99601E-002	5.63486E-001	3.57720E+000	9	...........
	19	0.266667	5.76446E-001	1.01088E-004	0.00000E+000	5.82715E-005	5.99601E-002	5.76685E-001	3.57720E+000	9	...........
	20	0.28	5.89379E-001	1.01334E-004	0.00000E+000	5.97239E-005	5.99601E-002	5.89651E-001	3.57720E+000	9	...........
	21	0.293333	6.02085E-001	1.01418E-004	0.00000E+000	6.10622E-005	5.99601E-002	6.02362E-001	3.57720E+000	9	...........
	22	0.306667	6.14586E-001	1.00361E-004	0.00000E+000	6.16808E-005	5.99601E-002	6.14858E-001	3.57720E+000	9	...........
	23	0.32	6.26832E-001	1.00973E-004	0.00000E+000	6.32931E-005	5.99601E-002	6.27082E-001	3.57720E+000	9	...........
	24	0.333333	6.38834E-001	9.96415E-005	0.00000E+000	6.36544E-005	5.99601E-002	6.39089E-001	3.57720E+000	9	...........
	25	0.346667	6.50631E-001	1.01051E-004	0.00000E+000	6.57470E-005	5.99601E-002	6.50868E-001	3.57720E+000	9	...........
	26	0.36	6.62180E-001	1.01573E-004	0.00000E+000	6.72597E-005	5.99601E-002	6.62402E-001	3.57720E+000	9	...........
	27	0.373333	6.73534E-001	1.01057E-004	0.00000E+000	6.80656E-005	5.99601E-002	6.73743E-001	3.57720E+000	9	...........
	28	0.386667	6.84638E-001	1.01618E-004	0.00000E+000	6.95715E-005	5.99601E-002	6.84857E-001	3.57720E+000	9	...........
	29	0.4	6.95548E-001	1.00290E-004	0.00000E+000	6.97563E-005	5.99601E-002	6.95773E-001	3.57720E+000	9	...........
	30	0.413333	7.06234E-001	1.02027E-004	0.00000E+000	7.20552E-005	5.99601E-002	7.06449E-001	3.57720E+000	9	...........
	31	0.426667	7.16718E-001	1.00514E-004	0.00000E+000	7.20399E-005	5.99601E-002	7.16930E-001	3.57720E+000	9	...........
	32	0.44	7.26958E-001	1.00378E-004	0.00000E+000	7.29706E-005	5.99601E-002	7.27185E-001	3.57720E+000	9	...........
	33	0.453333	7.36983E-001	1.01781E-004	0.00000E+000	7.50105E-005	5.99601E-002	7.37220E-001	3.57720E+000	9	...........
	34	0.466667	7.46794E-001	1.01327E-004	0.00000E+000	7.56706E-005	5.99601E-002	7.47049E-001	3.57720E+000	9	...........
	35	0.48	7.56397E-001	1.00627E-004	0.00000E+000	7.61141E-005	5.99601E-002	7.56627E-001	3.57720E+000	9	...........
	36	0.493333	7.65779E-001	1.01293E-004	0.00000E+000	7.75680E-005	5.99601E-002	7.66020E-001	3.57720E+000	9	...........
	37	0.506667	7.74959E-001	1.01204E-004	0.00000E+000	7.84292E-005	5.99601E-002	7.75207E-001	3.57720E+000	9	...........
	38	0.52	7.83875E-001	1.00952E-004	0.00000E+000	7.91339E-005	5.99601E-002	7.84164E-001	3.57720E+000	9	...........
	39	0.533333	7.92641E-001	1.01023E-004	0.00000E+000	8.00750E-005	5.99601E-002	7.92932E-001	3.57720E+000	9	...........
	40	0.546667	8.01155E-001	1.00278E-004	0.00000E+000	8.03383E-005	5.99601E-002	8.01442E-001	3.57720E+000	9	...........
	41	0.56	8.09458E-001	1.01137E-004	0.00000E+000	8.18659E-005	5.99601E-002	8.09771E-001	3.57720E+000	9	...........
	42	0.573333	8.17546E-001	1.00804E-004	0.00000E+000	8.24121E-005	5.99601E-002	8.17872E-001	3.57720E+000	9	...........
	43	0.586667	8.25449E-001	1.01721E-004	0.00000E+000	8.39656E-005	5.99601E-002	8.25801E-001	3.57720E+000	9	...........
	44	0.6	8.33133E-001	1.00373E-004	0.00000E+000	8.36240E-005	5.99601E-002	8.33470E-001	3.57720E+000	9	...........
	45	0.613333	8.40616E-001	1.01418E-004	0.00000E+000	8.52535E-005	5.99601E-002	8.40948E-001	3.57720E+000	9	...........
	46	0.626667	8.47920E-001	1.01178E-004	0.00000E+000	8.57911E-005	5.99601E-002	8.48258E-001	3.57720E+000	9	...........
	47	0.64	8.54985E-001	1.00262E-004	0.00000E+000	8.57229E-005	5.99601E-002	8.55311E-001	3.57720E+000	9	...........
	48	0.653333	8.61875E-001	1.01276E-004	0.00000E+000	8.72875E-005	5.99601E-002	8.62212E-001	3.57720E+000	9	...........
	49	0.666667	8.68555E-001	1.01518E-004	0.00000E+000	8.81739E-005	5.99601E-002	8.68902E-001	3.57720E+000	9	...........
	50	0.68	8.75071E-001	1.00509E-004	0.00000E+000	8.79529E-005	5.99601E-002	8.75403E-001	3.57720E+000	9	...........
	51	0.693333	8.81348E-001	1.00174E-004	0.00000E+000	8.82881E-005	5.99601E-002	8.81719E-001	3.57720E+000	9	...........
	52	0.706667	8.87469E-001	1.00660E-004	0.00000E+000	8.93331E-005	5.99601E-002	8.87813E-001	3.57720E+000	9	...........
	53	0.72	8.93377E-001	1.00967E-004	0.00000E+000	9.02014E-005	5.99601E-002	8.93764E-001	3.57720E+000	9	...........
	54	0.733333	8.99149E-001	1.01351E-004	0.00000E+000	9.11299E-005	5.99601E-002	8.99525E-001	3.57720E+000	9	...........
	55	0.746667	9.04733E-001	1.01157E-004	0.00000E+000	9.15205E-005	5.99601E-002	9.05119E-001	3.57720E+000	9	...........
	56	0.76	9.10165E-001	1.00816E-004	0.00000E+000	9.17590E-005	5.99601E-002	9.10544E-001	3.57720E+000	9	...........
	57	0.773333	9.15432E-001	1.01667E-004	0.00000E+000	9.30692E-005	5.99601E-002	9.15799E-001	3.57720E+000	9	...........
	58	0.786667	9.20585E-001	1.00858E-004	0.00000E+000	9.28488E-005	5.99601E-002	9.20920E-001	3.57720E+000	9	...........
	59	0.8	9.25587E-001	1.01408E-004	0.00000E+000	9.38615E-005	5.99601E-002	9.25907E-001	3.57720E+000	9	...........
	60	0.813333	9.30449E-001	1.01107E-004	0.00000E+000	9.40753E-005	5.99601E-002	9.30754E-001	3.57720E+000	9	...........
	61	0.826667	9.35187E-001	1.01341E-004	0.00000E+000	9.47726E-005	5.99601E-002	9.35510E-001	3.57720E+000	9	...........
	62	0.84	9.39775E-001	1.00723E-004	0.00000E+000	9.46569E-005	5.99601E-002	9.40115E-001	3.57720E+000	9	...........
	63	0.853333	9.44313E-001	1.01069E-004	0.00000E+000	9.54407E-005	5.99601E-002	9.44623E-001	3.57720E+000	9	...........
	64	0.866667	9.48762E-001	1.00813E-004	0.00000E+000	9.56472E-005	5.99601E-002	9.49059E-001	3.57720E+000	9	...........
	65	0.88	9.53090E-001	1.01575E-004	0.00000E+000	9.68104E-005	5.99601E-002	9.53361E-001	3.57720E+000	9	...........
	66	0.893333	9.57296E-001	1.01265E-004	0.00000E+000	9.69404E-005	5.99601E-002	9.57581E-001	3.57720E+000	9	...........
	67	0.906667	9.61454E-001	1.01456E-004	0.00000E+000	9.75458E-005	5.99601E-002	9.61720E-001	3.57720E+000	9	...........
	68	0.92	9.65478E-001	1.00822E-004	0.00000E+000	9.73414E-005	5.99601E-002	9.65770E-001	3.57805E+000	9	...........
	69	0.933333	9.69442E-001	1.01542E-004	0.00000E+000	9.84390E-005	5.99601E-002	9.69751E-001	3.57840E+000	9	...........
	70	0.946667	9.73370E-001	1.01105E-004	0.00000E+000	9.84129E-005	5.99601E-002	9.73678E-001	3.57840E+000	9	...........
	71	0.96	9.77195E-001	1.00845E-004	0.00000E+000	9.85451E-005	5.99601E-002	9.77476E-001	3.57840E+000	9	...........
	72	0.97333	9.80928E-001	1.01041E-004	0.00000E+000	9.91137E-005	5.99601E-002	9.81225E-001	3.57840E+000	9	...........
	73	0.98667	9.84539E-001	1.00171E-004	0.00000E+000	9.86221E-005	5.99601E-002	9.84864E-001	3.57840E+000	9	...........
	74	1	9.88127E-001	1.01077E-004	0.00000E+000	9.98771E-005	5.99601E-002	9.88441E-001	3.57840E+000	9	...........
	75	1.01333	9.91622E-001	1.01672E-004	0.00000E+000	1.00820E-004	5.99601E-002	9.91925E-001	3.57840E+000	9	...........
	76	1.02667	9.94982E-001	1.01688E-004	0.00000E+000	1.01177E-004	5.99601E-002	9.95325E-001	3.57840E+000	9	...........
	77	1.04	9.98309E-001	1.01622E-004	0.00000E+000	1.01450E-004	5.99601E-002	9.98667E-001	3.57840E+000	9	...........
	78	1.04167	1.00014E+000	1.01665E-004	0.00000E+000	1.01679E-004	5.99601E-002	1.00054E+000	3.57840E+000	9	...........
STARTTIMEOFFSET	QUANT	382.7551	Start Time Offset (s)
