EXPLAIN
TAG	PWR800_CHARGE
TITLE	LABEL	PWR Cyclic Charge Discharge (Cell) - Charge Step	Test &Identifier
DATE	LABEL	12-7-2017	Date
TIME	LABEL	16:53:30	Time
NOTES	NOTES	2	&Notes...
	supercap test cell
	6M KOH
PSTAT	PSTAT	IFC5000-01520	Potentiostat
CAPACITY	QUANT	1.00000E-003	Capacity (A-hr)
CELLTYPE	SELECTOR	1	&Cell Type
WORKINGCONNECTION	SELECTOR	0	&Working Lead
MAXCHARGETIME	VARIABLEANDUNITS	1.00000E+002	s	1.00000E+002	second(s)	Max &Charge Time
CHARGECURRENT	QUANT	1.00000E-004	&Charge Current (A) 
VOLTAGEFINISH	TWOPARAM	F	1.00000E-003	3.60000E+003	&Voltage Finish	 I (A) < 	Max Time(s)
SAMPLETIME	QUANT	1.00000E-002	Sa&mple Period (s)
CHARGESTOPAT1	MULTIPARAM	4	1.00000E+000	Charge Stop At &1	Voltage > Limit	V
CHARGESTOPAT2	MULTIPARAM	0	0.00000E+000	Charge Stop At &2	None	N/A
AESBHCSELECTOR	TOGGLE	F	Save Both Half Cells
IRCOMP	TOGGLE	F	IR &Measure
EOC	QUANT	0	Open Circuit (V)
SEQUENCER	TOGGLE	TRUE	Run as Sequence
PSTATMODEL	IQUANT	53	Pstat Model
PSTATSECTION	LABEL	IFC5000-01520	Pstat Section
PSTATSERIALNO	LABEL	01520	Pstat Serial Number
CTRLMODE	IQUANT	0	Control Mode
ELECTROMETER	IQUANT	1	RE=0 or CS=1
IESTAB	IQUANT	0	I/E Stability
CASPEED	IQUANT	4	Control Amp Speed
CONVENTION	IQUANT	1	Current Convention
ICHRANGE	IQUANT	2	Ich Range
ICHRANGEMODE	TOGGLE	T	Ich Auto Range
ICHOFFSETENABLE	TOGGLE	F	Ich Offset Enable
ICHOFFSET	QUANT	0	Ich Offset (V)
ICHFILTER	IQUANT	1	Ich Filter
VCHRANGE	IQUANT	2	Vch Range
VCHRANGEMODE	TOGGLE	T	Vch Auto Range
VCHOFFSETENABLE	TOGGLE	F	Vch Offset Enable
VCHOFFSET	QUANT	0	Vch Offset (V)
VCHFILTER	IQUANT	1	Vch Filter
IERANGELOWERLIMIT	IQUANT	9	I/E Range Lower Limit
IERANGEMODE	TOGGLE	F	I/E AutoRange
IERANGE	IQUANT	9	I/E Range
ACHSELECT	IQUANT	1	Ach Select
ACHRANGE	IQUANT	2	Ach Range
ACHOFFSETENABLE	TOGGLE	F	Ach Offset Enable
ACHOFFSET	QUANT	0	Ach Offset (V)
ACHFILTER	IQUANT	1	Ach Filter
CABLEID	IQUANT	14	Cable ID
DCCALDATE	LABEL	5-7-2017	DC Calibration Date
ACCALDATE	LABEL	12/3/2015	AC Calibration Date
FRAMEWORKVERSION	QUANT	7.01	Framework Version
INSTRUMENTVERSION	LABEL	4.00	Instrument Version
CURVE	TABLE	74
	Pt	T	Vf	Im	Vu	Pwr	Sig	Ach	Temp	IERange	Over
	#	s	V	A	V	W	V	V	deg C	#	bits
	0	0.013333	2.56001E-001	1.00715E-004	0.00000E+000	2.57831E-005	5.99601E-002	2.56083E-001	3.57710E+000	9	...........
	1	0.026667	2.79176E-001	1.00759E-004	0.00000E+000	2.81296E-005	5.99601E-002	2.79231E-001	3.57744E+000	9	...........
	2	0.04	3.01113E-001	9.99603E-005	0.00000E+000	3.00994E-005	5.99601E-002	3.01173E-001	3.57750E+000	9	...........
	3	0.053333	3.22167E-001	1.01933E-004	0.00000E+000	3.28394E-005	5.99601E-002	3.22232E-001	3.57750E+000	9	...........
	4	0.066667	3.42511E-001	1.00400E-004	0.00000E+000	3.43882E-005	5.99601E-002	3.42578E-001	3.57750E+000	9	...........
	5	0.08	3.62271E-001	1.02410E-004	0.00000E+000	3.71002E-005	5.99601E-002	3.62346E-001	3.57750E+000	9	...........
	6	0.093333	3.81506E-001	1.02454E-004	0.00000E+000	3.90866E-005	5.99601E-002	3.81586E-001	3.57750E+000	9	...........
	7	0.106667	4.00281E-001	1.00904E-004	0.00000E+000	4.03901E-005	5.99601E-002	4.00356E-001	3.57750E+000	9	...........
	8	0.12	4.18610E-001	1.02222E-004	0.00000E+000	4.27913E-005	5.99601E-002	4.18696E-001	3.57750E+000	9	...........
	9	0.133333	4.36529E-001	1.00446E-004	0.00000E+000	4.38475E-005	5.99601E-002	4.36616E-001	3.57750E+000	9	...........
	10	0.146667	4.54059E-001	1.02306E-004	0.00000E+000	4.64527E-005	5.99601E-002	4.54152E-001	3.57750E+000	9	...........
	11	0.16	4.71215E-001	1.01787E-004	0.00000E+000	4.79635E-005	5.99601E-002	4.71314E-001	3.57750E+000	9	...........
	12	0.173333	4.87993E-001	1.00603E-004	0.00000E+000	4.90936E-005	5.99601E-002	4.88093E-001	3.57750E+000	9	...........
	13	0.186667	5.04405E-001	1.01667E-004	0.00000E+000	5.12814E-005	5.99601E-002	5.04515E-001	3.57750E+000	9	...........
	14	0.2	5.20461E-001	1.00551E-004	0.00000E+000	5.23329E-005	5.99601E-002	5.20572E-001	3.57750E+000	9	...........
	15	0.213333	5.35987E-001	1.01290E-004	0.00000E+000	5.42900E-005	5.99601E-002	5.36154E-001	3.57750E+000	9	...........
	16	0.226667	5.51241E-001	1.00730E-004	0.00000E+000	5.55267E-005	5.99601E-002	5.51446E-001	3.57750E+000	9	...........
	17	0.24	5.66253E-001	1.00505E-004	0.00000E+000	5.69114E-005	5.99601E-002	5.66461E-001	3.57750E+000	9	...........
	18	0.253333	5.80917E-001	1.01922E-004	0.00000E+000	5.92084E-005	5.99601E-002	5.81121E-001	3.57750E+000	9	...........
	19	0.266667	5.95231E-001	1.01769E-004	0.00000E+000	6.05761E-005	5.99601E-002	5.95472E-001	3.57750E+000	9	...........
	20	0.28	6.09205E-001	9.93383E-005	0.00000E+000	6.05174E-005	5.99601E-002	6.09453E-001	3.57750E+000	9	...........
	21	0.293333	6.22895E-001	1.01624E-004	0.00000E+000	6.33013E-005	5.99601E-002	6.23122E-001	3.57750E+000	9	...........
	22	0.306667	6.36209E-001	1.01153E-004	0.00000E+000	6.43546E-005	5.99601E-002	6.36436E-001	3.57750E+000	9	...........
	23	0.32	6.49181E-001	1.01343E-004	0.00000E+000	6.57899E-005	5.99601E-002	6.49421E-001	3.57750E+000	9	...........
	24	0.333333	6.61836E-001	1.01136E-004	0.00000E+000	6.69352E-005	5.99601E-002	6.62106E-001	3.57750E+000	9	...........
	25	0.346667	6.74187E-001	1.01427E-004	0.00000E+000	6.83810E-005	5.99601E-002	6.74423E-001	3.57750E+000	9	...........
	26	0.36	6.86189E-001	1.02712E-004	0.00000E+000	7.04798E-005	5.99601E-002	6.86404E-001	3.57750E+000	9	...........
	27	0.373333	6.97914E-001	1.00733E-004	0.00000E+000	7.03033E-005	5.99601E-002	6.98120E-001	3.57750E+000	9	...........
	28	0.386667	7.09276E-001	1.02111E-004	0.00000E+000	7.24247E-005	5.99601E-002	7.09504E-001	3.57750E+000	9	...........
	29	0.4	7.20401E-001	1.01292E-004	0.00000E+000	7.29708E-005	5.99601E-002	7.20606E-001	3.57750E+000	9	...........
	30	0.413333	7.31203E-001	1.00118E-004	0.00000E+000	7.32063E-005	5.99601E-002	7.31411E-001	3.57750E+000	9	...........
	31	0.426667	7.41694E-001	1.00763E-004	0.00000E+000	7.47350E-005	5.99601E-002	7.41909E-001	3.57750E+000	9	...........
	32	0.44	7.51894E-001	1.01270E-004	0.00000E+000	7.61443E-005	5.99601E-002	7.52130E-001	3.57750E+000	9	...........
	33	0.453333	7.61817E-001	1.01497E-004	0.00000E+000	7.73222E-005	5.99601E-002	7.62029E-001	3.57750E+000	9	...........
	34	0.466667	7.71442E-001	9.99093E-005	0.00000E+000	7.70742E-005	5.99601E-002	7.71687E-001	3.57750E+000	9	...........
	35	0.48	7.80792E-001	1.01873E-004	0.00000E+000	7.95419E-005	5.99601E-002	7.81044E-001	3.57750E+000	9	...........
	36	0.493333	7.89851E-001	1.01124E-004	0.00000E+000	7.98730E-005	5.99601E-002	7.90111E-001	3.57750E+000	9	...........
	37	0.506667	7.98672E-001	1.00466E-004	0.00000E+000	8.02391E-005	5.99601E-002	7.98931E-001	3.57750E+000	9	...........
	38	0.52	8.07175E-001	1.00325E-004	0.00000E+000	8.09798E-005	5.99601E-002	8.07467E-001	3.57750E+000	9	...........
	39	0.533333	8.15440E-001	1.00043E-004	0.00000E+000	8.15788E-005	5.99601E-002	8.15747E-001	3.57750E+000	9	...........
	40	0.546667	8.23448E-001	1.00676E-004	0.00000E+000	8.29016E-005	5.99601E-002	8.23757E-001	3.57750E+000	9	...........
	41	0.56	8.31190E-001	1.00927E-004	0.00000E+000	8.38897E-005	5.99601E-002	8.31516E-001	3.57750E+000	9	...........
	42	0.573333	8.38696E-001	1.01025E-004	0.00000E+000	8.47294E-005	5.99601E-002	8.39018E-001	3.57750E+000	9	...........
	43	0.586667	8.45974E-001	1.01129E-004	0.00000E+000	8.55528E-005	5.99601E-002	8.46291E-001	3.57750E+000	9	...........
	44	0.6	8.53039E-001	1.00920E-004	0.00000E+000	8.60886E-005	5.99601E-002	8.53339E-001	3.57750E+000	9	...........
	45	0.613333	8.59839E-001	1.01536E-004	0.00000E+000	8.73043E-005	5.99601E-002	8.60183E-001	3.57750E+000	9	...........
	46	0.626667	8.66467E-001	1.01120E-004	0.00000E+000	8.76171E-005	5.99601E-002	8.66789E-001	3.57750E+000	9	...........
	47	0.64	8.72907E-001	1.01164E-004	0.00000E+000	8.83065E-005	5.99601E-002	8.73222E-001	3.57750E+000	9	...........
	48	0.653333	8.79136E-001	1.00621E-004	0.00000E+000	8.84595E-005	5.99601E-002	8.79456E-001	3.57750E+000	9	...........
	49	0.666667	8.85211E-001	1.00206E-004	0.00000E+000	8.87037E-005	5.99601E-002	8.85548E-001	3.57750E+000	9	...........
	50	0.68	8.91101E-001	1.01265E-004	0.00000E+000	9.02371E-005	5.99601E-002	8.91442E-001	3.57750E+000	9	...........
	51	0.693333	8.96874E-001	1.01105E-004	0.00000E+000	9.06788E-005	5.99601E-002	8.97207E-001	3.57750E+000	9	...........
	52	0.706667	9.02472E-001	1.01131E-004	0.00000E+000	9.12683E-005	5.99601E-002	9.02853E-001	3.57750E+000	9	...........
	53	0.72	9.07981E-001	1.00503E-004	0.00000E+000	9.12549E-005	5.99601E-002	9.08339E-001	3.57750E+000	9	...........
	54	0.733333	9.13359E-001	1.01210E-004	0.00000E+000	9.24407E-005	5.99601E-002	9.13690E-001	3.57750E+000	9	...........
	55	0.746667	9.18638E-001	1.00820E-004	0.00000E+000	9.26170E-005	5.99601E-002	9.18983E-001	3.57750E+000	9	...........
	56	0.76	9.23837E-001	1.00548E-004	0.00000E+000	9.28899E-005	5.99601E-002	9.24149E-001	3.57750E+000	9	...........
	57	0.773333	9.28906E-001	1.01115E-004	0.00000E+000	9.39261E-005	5.99601E-002	9.29235E-001	3.57750E+000	9	...........
	58	0.786667	9.33890E-001	1.02727E-004	0.00000E+000	9.59353E-005	5.99601E-002	9.34233E-001	3.57750E+000	9	...........
	59	0.8	9.38801E-001	1.01087E-004	0.00000E+000	9.49002E-005	5.99601E-002	9.39142E-001	3.57750E+000	9	...........
	60	0.813333	9.43601E-001	1.00435E-004	0.00000E+000	9.47710E-005	5.99601E-002	9.43954E-001	3.57750E+000	9	...........
	61	0.826667	9.48392E-001	1.00269E-004	0.00000E+000	9.50941E-005	5.99601E-002	9.48746E-001	3.57750E+000	9	...........
	62	0.84	9.53059E-001	1.00293E-004	0.00000E+000	9.55848E-005	5.99601E-002	9.53404E-001	3.57750E+000	9	...........
	63	0.853333	9.57677E-001	1.00110E-004	0.00000E+000	9.58734E-005	5.99601E-002	9.58020E-001	3.57750E+000	9	...........
	64	0.866667	9.62212E-001	1.00317E-004	0.00000E+000	9.65259E-005	5.99601E-002	9.62570E-001	3.57750E+000	9	...........
	65	0.88	9.66661E-001	1.01940E-004	0.00000E+000	9.85414E-005	5.99601E-002	9.66993E-001	3.57750E+000	9	...........
	66	0.893333	9.71058E-001	1.00945E-004	0.00000E+000	9.80234E-005	5.99601E-002	9.71403E-001	3.57750E+000	9	...........
	67	0.906667	9.75411E-001	1.01680E-004	0.00000E+000	9.91802E-005	5.99601E-002	9.75728E-001	3.57750E+000	9	...........
	68	0.92	9.79637E-001	1.01230E-004	0.00000E+000	9.91691E-005	5.99601E-002	9.79936E-001	3.57750E+000	9	...........
	69	0.933333	9.83761E-001	1.01041E-004	0.00000E+000	9.94000E-005	5.99601E-002	9.84082E-001	3.57750E+000	9	...........
	70	0.946667	9.87809E-001	1.01848E-004	0.00000E+000	1.00607E-004	5.99601E-002	9.88153E-001	3.57750E+000	9	...........
	71	0.96	9.91798E-001	1.01221E-004	0.00000E+000	1.00391E-004	5.99601E-002	9.92095E-001	3.57750E+000	9	...........
	72	0.97333	9.95653E-001	1.01623E-004	0.00000E+000	1.01181E-004	5.99601E-002	9.96011E-001	3.57750E+000	9	...........
	73	0.98333	9.99012E-001	1.00130E-004	0.00000E+000	1.00031E-004	5.99601E-002	9.99357E-001	3.57750E+000	9	...........
STARTTIMEOFFSET	QUANT	1851.782	Start Time Offset (s)
