EXPLAIN
TAG	PWR800_CHARGE
TITLE	LABEL	PWR Cyclic Charge Discharge (Cell) - Charge Step	Test &Identifier
DATE	LABEL	12-7-2017	Date
TIME	LABEL	16:21:00	Time
NOTES	NOTES	2	&Notes...
	supercap test cell
	6M KOH
PSTAT	PSTAT	IFC5000-01520	Potentiostat
CAPACITY	QUANT	1.00000E-003	Capacity (A-hr)
CELLTYPE	SELECTOR	1	&Cell Type
WORKINGCONNECTION	SELECTOR	0	&Working Lead
MAXCHARGETIME	VARIABLEANDUNITS	1.00000E+002	s	1.00000E+002	second(s)	Max &Charge Time
CHARGECURRENT	QUANT	1.00000E-004	&Charge Current (A) 
VOLTAGEFINISH	TWOPARAM	F	1.00000E-003	3.60000E+003	&Voltage Finish	 I (A) < 	Max Time(s)
SAMPLETIME	QUANT	1.00000E-002	Sa&mple Period (s)
CHARGESTOPAT1	MULTIPARAM	4	1.00000E+000	Charge Stop At &1	Voltage > Limit	V
CHARGESTOPAT2	MULTIPARAM	0	0.00000E+000	Charge Stop At &2	None	N/A
AESBHCSELECTOR	TOGGLE	F	Save Both Half Cells
IRCOMP	TOGGLE	F	IR &Measure
EOC	QUANT	0	Open Circuit (V)
SEQUENCER	TOGGLE	TRUE	Run as Sequence
PSTATMODEL	IQUANT	53	Pstat Model
PSTATSECTION	LABEL	IFC5000-01520	Pstat Section
PSTATSERIALNO	LABEL	01520	Pstat Serial Number
CTRLMODE	IQUANT	0	Control Mode
ELECTROMETER	IQUANT	1	RE=0 or CS=1
IESTAB	IQUANT	0	I/E Stability
CASPEED	IQUANT	4	Control Amp Speed
CONVENTION	IQUANT	1	Current Convention
ICHRANGE	IQUANT	2	Ich Range
ICHRANGEMODE	TOGGLE	T	Ich Auto Range
ICHOFFSETENABLE	TOGGLE	F	Ich Offset Enable
ICHOFFSET	QUANT	0	Ich Offset (V)
ICHFILTER	IQUANT	1	Ich Filter
VCHRANGE	IQUANT	2	Vch Range
VCHRANGEMODE	TOGGLE	T	Vch Auto Range
VCHOFFSETENABLE	TOGGLE	F	Vch Offset Enable
VCHOFFSET	QUANT	0	Vch Offset (V)
VCHFILTER	IQUANT	1	Vch Filter
IERANGELOWERLIMIT	IQUANT	9	I/E Range Lower Limit
IERANGEMODE	TOGGLE	F	I/E AutoRange
IERANGE	IQUANT	9	I/E Range
ACHSELECT	IQUANT	1	Ach Select
ACHRANGE	IQUANT	2	Ach Range
ACHOFFSETENABLE	TOGGLE	F	Ach Offset Enable
ACHOFFSET	QUANT	0	Ach Offset (V)
ACHFILTER	IQUANT	1	Ach Filter
CABLEID	IQUANT	14	Cable ID
DCCALDATE	LABEL	5-7-2017	DC Calibration Date
ACCALDATE	LABEL	12/3/2015	AC Calibration Date
FRAMEWORKVERSION	QUANT	7.01	Framework Version
INSTRUMENTVERSION	LABEL	4.00	Instrument Version
CURVE	TABLE	78
	Pt	T	Vf	Im	Vu	Pwr	Sig	Ach	Temp	IERange	Over
	#	s	V	A	V	W	V	V	deg C	#	bits
	0	0.013333	2.63345E-001	1.01083E-004	0.00000E+000	2.66199E-005	5.99601E-002	2.63435E-001	3.57840E+000	9	...........
	1	0.026667	2.86039E-001	1.01048E-004	0.00000E+000	2.89037E-005	5.99601E-002	2.86099E-001	3.57840E+000	9	...........
	2	0.04	3.07255E-001	1.01413E-004	0.00000E+000	3.11596E-005	5.99601E-002	3.07322E-001	3.57840E+000	9	...........
	3	0.053333	3.27398E-001	1.01599E-004	0.00000E+000	3.32634E-005	5.99601E-002	3.27462E-001	3.57840E+000	9	...........
	4	0.066667	3.46671E-001	1.00789E-004	0.00000E+000	3.49405E-005	5.99601E-002	3.46743E-001	3.57840E+000	9	...........
	5	0.08	3.65243E-001	1.01958E-004	0.00000E+000	3.72393E-005	5.99601E-002	3.65314E-001	3.57840E+000	9	...........
	6	0.093333	3.83196E-001	1.01360E-004	0.00000E+000	3.88406E-005	5.99601E-002	3.83267E-001	3.57840E+000	9	...........
	7	0.106667	4.00615E-001	1.00374E-004	0.00000E+000	4.02113E-005	5.99601E-002	4.00695E-001	3.57840E+000	9	...........
	8	0.12	4.17555E-001	1.01518E-004	0.00000E+000	4.23894E-005	5.99601E-002	4.17646E-001	3.57840E+000	9	...........
	9	0.133333	4.34065E-001	1.01379E-004	0.00000E+000	4.40052E-005	5.99601E-002	4.34149E-001	3.57840E+000	9	...........
	10	0.146667	4.50172E-001	1.01673E-004	0.00000E+000	4.57704E-005	5.99601E-002	4.50259E-001	3.57840E+000	9	...........
	11	0.16	4.65902E-001	1.01013E-004	0.00000E+000	4.70620E-005	5.99601E-002	4.65998E-001	3.57840E+000	9	...........
	12	0.173333	4.81297E-001	1.01087E-004	0.00000E+000	4.86527E-005	5.99601E-002	4.81394E-001	3.57840E+000	9	...........
	13	0.186667	4.96358E-001	1.00963E-004	0.00000E+000	5.01136E-005	5.99601E-002	4.96460E-001	3.57840E+000	9	...........
	14	0.2	5.11101E-001	1.00734E-004	0.00000E+000	5.14855E-005	5.99601E-002	5.11207E-001	3.57840E+000	9	...........
	15	0.213333	5.25548E-001	1.00726E-004	0.00000E+000	5.29364E-005	5.99601E-002	5.25658E-001	3.57840E+000	9	...........
	16	0.226667	5.39432E-001	1.02271E-004	0.00000E+000	5.51684E-005	5.99601E-002	5.39623E-001	3.57840E+000	9	...........
	17	0.24	5.53262E-001	1.00728E-004	0.00000E+000	5.57291E-005	5.99601E-002	5.53462E-001	3.57840E+000	9	...........
	18	0.253333	5.66888E-001	1.01678E-004	0.00000E+000	5.76403E-005	5.99601E-002	5.67080E-001	3.57840E+000	9	...........
	19	0.266667	5.80215E-001	1.01414E-004	0.00000E+000	5.88417E-005	5.99601E-002	5.80437E-001	3.57840E+000	9	...........
	20	0.28	5.93316E-001	1.01143E-004	0.00000E+000	6.00097E-005	5.99601E-002	5.93543E-001	3.57840E+000	9	...........
	21	0.293333	6.06122E-001	1.01967E-004	0.00000E+000	6.18044E-005	5.99601E-002	6.06385E-001	3.57840E+000	9	...........
	22	0.306667	6.18775E-001	1.00632E-004	0.00000E+000	6.22688E-005	5.99601E-002	6.19013E-001	3.57840E+000	9	...........
	23	0.32	6.31077E-001	1.00982E-004	0.00000E+000	6.37277E-005	5.99601E-002	6.31339E-001	3.57840E+000	9	...........
	24	0.333333	6.43203E-001	1.01016E-004	0.00000E+000	6.49736E-005	5.99601E-002	6.43459E-001	3.57840E+000	9	...........
	25	0.346667	6.55080E-001	1.00869E-004	0.00000E+000	6.60772E-005	5.99601E-002	6.55328E-001	3.57840E+000	9	...........
	26	0.36	6.66725E-001	1.01054E-004	0.00000E+000	6.73755E-005	5.99601E-002	6.66960E-001	3.57840E+000	9	...........
	27	0.373333	6.78112E-001	1.00887E-004	0.00000E+000	6.84124E-005	5.99601E-002	6.78374E-001	3.57840E+000	9	...........
	28	0.386667	6.89277E-001	1.00639E-004	0.00000E+000	6.93679E-005	5.99601E-002	6.89564E-001	3.57840E+000	9	...........
	29	0.4	7.00234E-001	1.00054E-004	0.00000E+000	7.00613E-005	5.99601E-002	7.00490E-001	3.57840E+000	9	...........
	30	0.413333	7.10910E-001	1.00167E-004	0.00000E+000	7.12095E-005	5.99601E-002	7.11194E-001	3.57840E+000	9	...........
	31	0.426667	7.21429E-001	1.00932E-004	0.00000E+000	7.28156E-005	5.99601E-002	7.21696E-001	3.57840E+000	9	...........
	32	0.44	7.31672E-001	1.00998E-004	0.00000E+000	7.38974E-005	5.99601E-002	7.31936E-001	3.57840E+000	9	...........
	33	0.453333	7.41677E-001	1.00729E-004	0.00000E+000	7.47085E-005	5.99601E-002	7.41965E-001	3.57840E+000	9	...........
	34	0.466667	7.51462E-001	1.01166E-004	0.00000E+000	7.60222E-005	5.99601E-002	7.51744E-001	3.57840E+000	9	...........
	35	0.48	7.61038E-001	1.00633E-004	0.00000E+000	7.65858E-005	5.99601E-002	7.61330E-001	3.57840E+000	9	...........
	36	0.493333	7.70362E-001	1.01529E-004	0.00000E+000	7.82144E-005	5.99601E-002	7.70677E-001	3.57840E+000	9	...........
	37	0.506667	7.79483E-001	1.00514E-004	0.00000E+000	7.83487E-005	5.99601E-002	7.79781E-001	3.57840E+000	9	...........
	38	0.52	7.88375E-001	1.01138E-004	0.00000E+000	7.97344E-005	5.99601E-002	7.88655E-001	3.57840E+000	9	...........
	39	0.533333	7.97057E-001	1.00683E-004	0.00000E+000	8.02504E-005	5.99601E-002	7.97345E-001	3.57840E+000	9	...........
	40	0.546667	8.05487E-001	1.00291E-004	0.00000E+000	8.07827E-005	5.99601E-002	8.05780E-001	3.57840E+000	9	...........
	41	0.56	8.13716E-001	1.00832E-004	0.00000E+000	8.20489E-005	5.99601E-002	8.14032E-001	3.57840E+000	9	...........
	42	0.573333	8.21729E-001	1.01870E-004	0.00000E+000	8.37096E-005	5.99601E-002	8.22040E-001	3.57840E+000	9	...........
	43	0.586667	8.29541E-001	1.01373E-004	0.00000E+000	8.40931E-005	5.99601E-002	8.29846E-001	3.57840E+000	9	...........
	44	0.6	8.37092E-001	1.00564E-004	0.00000E+000	8.41810E-005	5.99601E-002	8.37412E-001	3.57840E+000	9	...........
	45	0.613333	8.44496E-001	1.01547E-004	0.00000E+000	8.57561E-005	5.99601E-002	8.44814E-001	3.57840E+000	9	...........
	46	0.626667	8.51656E-001	1.00578E-004	0.00000E+000	8.56580E-005	5.99601E-002	8.51972E-001	3.57840E+000	9	...........
	47	0.64	8.58627E-001	1.00924E-004	0.00000E+000	8.66562E-005	5.99601E-002	8.58938E-001	3.57840E+000	9	...........
	48	0.653333	8.65374E-001	1.01610E-004	0.00000E+000	8.79303E-005	5.99601E-002	8.65709E-001	3.57840E+000	9	...........
	49	0.666667	8.71956E-001	1.00737E-004	0.00000E+000	8.78378E-005	5.99601E-002	8.72298E-001	3.57840E+000	9	...........
	50	0.68	8.78326E-001	1.01389E-004	0.00000E+000	8.90524E-005	5.99601E-002	8.78656E-001	3.57840E+000	9	...........
	51	0.693333	8.84498E-001	1.01151E-004	0.00000E+000	8.94681E-005	5.99601E-002	8.84836E-001	3.57840E+000	9	...........
	52	0.706667	8.90469E-001	1.01160E-004	0.00000E+000	9.00795E-005	5.99601E-002	8.90788E-001	3.57840E+000	9	...........
	53	0.72	8.96263E-001	1.00140E-004	0.00000E+000	8.97513E-005	5.99601E-002	8.96625E-001	3.57840E+000	9	...........
	54	0.733333	9.01914E-001	1.01165E-004	0.00000E+000	9.12419E-005	5.99601E-002	9.02263E-001	3.57840E+000	9	...........
	55	0.746667	9.07384E-001	1.01245E-004	0.00000E+000	9.18681E-005	5.99601E-002	9.07734E-001	3.57840E+000	9	...........
	56	0.76	9.12697E-001	1.00325E-004	0.00000E+000	9.15664E-005	5.99601E-002	9.13055E-001	3.57840E+000	9	...........
	57	0.773333	9.17871E-001	1.00925E-004	0.00000E+000	9.26362E-005	5.99601E-002	9.18228E-001	3.57840E+000	9	...........
	58	0.786667	9.22963E-001	1.00461E-004	0.00000E+000	9.27222E-005	5.99601E-002	9.23275E-001	3.57840E+000	9	...........
	59	0.8	9.27851E-001	1.01024E-004	0.00000E+000	9.37353E-005	5.99601E-002	9.28192E-001	3.57840E+000	9	...........
	60	0.813333	9.32619E-001	1.01575E-004	0.00000E+000	9.47310E-005	5.99601E-002	9.32965E-001	3.57840E+000	9	...........
	61	0.826667	9.37308E-001	9.95248E-005	0.00000E+000	9.32854E-005	5.99601E-002	9.37665E-001	3.57840E+000	9	...........
	62	0.84	9.41871E-001	9.98166E-005	0.00000E+000	9.40143E-005	5.99601E-002	9.42220E-001	3.57840E+000	9	...........
	63	0.853333	9.46372E-001	1.01549E-004	0.00000E+000	9.61034E-005	5.99601E-002	9.46710E-001	3.57840E+000	9	...........
	64	0.866667	9.50759E-001	1.01636E-004	0.00000E+000	9.66311E-005	5.99601E-002	9.51104E-001	3.57840E+000	9	...........
	65	0.88	9.55067E-001	1.00775E-004	0.00000E+000	9.62470E-005	5.99601E-002	9.55374E-001	3.57840E+000	9	...........
	66	0.893333	9.59248E-001	1.02083E-004	0.00000E+000	9.79226E-005	5.99601E-002	9.59598E-001	3.57840E+000	9	...........
	67	0.906667	9.63355E-001	1.00704E-004	0.00000E+000	9.70139E-005	5.99601E-002	9.63718E-001	3.57840E+000	9	...........
	68	0.92	9.67402E-001	1.01050E-004	0.00000E+000	9.77561E-005	5.99601E-002	9.67750E-001	3.57840E+000	9	...........
	69	0.933333	9.71364E-001	1.00640E-004	0.00000E+000	9.77577E-005	5.99601E-002	9.71735E-001	3.57840E+000	9	...........
	70	0.946667	9.75282E-001	1.00386E-004	0.00000E+000	9.79051E-005	5.99601E-002	9.75625E-001	3.57840E+000	9	...........
	71	0.96	9.79092E-001	1.01209E-004	0.00000E+000	9.90925E-005	5.99601E-002	9.79415E-001	3.57840E+000	9	...........
	72	0.97333	9.82801E-001	1.01865E-004	0.00000E+000	1.00113E-004	5.99601E-002	9.83145E-001	3.57840E+000	9	...........
	73	0.98667	9.86427E-001	1.00999E-004	0.00000E+000	9.96283E-005	5.99601E-002	9.86771E-001	3.57840E+000	9	...........
	74	1	9.89995E-001	1.00581E-004	0.00000E+000	9.95750E-005	5.99601E-002	9.90324E-001	3.57840E+000	9	...........
	75	1.01333	9.93471E-001	1.01662E-004	0.00000E+000	1.00998E-004	5.99601E-002	9.93794E-001	3.57840E+000	9	...........
	76	1.02667	9.96867E-001	1.01041E-004	0.00000E+000	1.00724E-004	5.99601E-002	9.97176E-001	3.57840E+000	9	...........
	77	1.035	9.99568E-001	1.01138E-004	0.00000E+000	1.01094E-004	5.99601E-002	9.99909E-001	3.57840E+000	9	...........
STARTTIMEOFFSET	QUANT	468.1985	Start Time Offset (s)
