EXPLAIN
TAG	PWR800_CHARGE
TITLE	LABEL	PWR Cyclic Charge Discharge (Cell) - Charge Step	Test &Identifier
DATE	LABEL	12-7-2017	Date
TIME	LABEL	16:42:08	Time
NOTES	NOTES	2	&Notes...
	supercap test cell
	6M KOH
PSTAT	PSTAT	IFC5000-01520	Potentiostat
CAPACITY	QUANT	1.00000E-003	Capacity (A-hr)
CELLTYPE	SELECTOR	1	&Cell Type
WORKINGCONNECTION	SELECTOR	0	&Working Lead
MAXCHARGETIME	VARIABLEANDUNITS	1.00000E+002	s	1.00000E+002	second(s)	Max &Charge Time
CHARGECURRENT	QUANT	1.00000E-004	&Charge Current (A) 
VOLTAGEFINISH	TWOPARAM	F	1.00000E-003	3.60000E+003	&Voltage Finish	 I (A) < 	Max Time(s)
SAMPLETIME	QUANT	1.00000E-002	Sa&mple Period (s)
CHARGESTOPAT1	MULTIPARAM	4	1.00000E+000	Charge Stop At &1	Voltage > Limit	V
CHARGESTOPAT2	MULTIPARAM	0	0.00000E+000	Charge Stop At &2	None	N/A
AESBHCSELECTOR	TOGGLE	F	Save Both Half Cells
IRCOMP	TOGGLE	F	IR &Measure
EOC	QUANT	0	Open Circuit (V)
SEQUENCER	TOGGLE	TRUE	Run as Sequence
PSTATMODEL	IQUANT	53	Pstat Model
PSTATSECTION	LABEL	IFC5000-01520	Pstat Section
PSTATSERIALNO	LABEL	01520	Pstat Serial Number
CTRLMODE	IQUANT	0	Control Mode
ELECTROMETER	IQUANT	1	RE=0 or CS=1
IESTAB	IQUANT	0	I/E Stability
CASPEED	IQUANT	4	Control Amp Speed
CONVENTION	IQUANT	1	Current Convention
ICHRANGE	IQUANT	2	Ich Range
ICHRANGEMODE	TOGGLE	T	Ich Auto Range
ICHOFFSETENABLE	TOGGLE	F	Ich Offset Enable
ICHOFFSET	QUANT	0	Ich Offset (V)
ICHFILTER	IQUANT	1	Ich Filter
VCHRANGE	IQUANT	2	Vch Range
VCHRANGEMODE	TOGGLE	T	Vch Auto Range
VCHOFFSETENABLE	TOGGLE	F	Vch Offset Enable
VCHOFFSET	QUANT	0	Vch Offset (V)
VCHFILTER	IQUANT	1	Vch Filter
IERANGELOWERLIMIT	IQUANT	9	I/E Range Lower Limit
IERANGEMODE	TOGGLE	F	I/E AutoRange
IERANGE	IQUANT	9	I/E Range
ACHSELECT	IQUANT	1	Ach Select
ACHRANGE	IQUANT	2	Ach Range
ACHOFFSETENABLE	TOGGLE	F	Ach Offset Enable
ACHOFFSET	QUANT	0	Ach Offset (V)
ACHFILTER	IQUANT	1	Ach Filter
CABLEID	IQUANT	14	Cable ID
DCCALDATE	LABEL	5-7-2017	DC Calibration Date
ACCALDATE	LABEL	12/3/2015	AC Calibration Date
FRAMEWORKVERSION	QUANT	7.01	Framework Version
INSTRUMENTVERSION	LABEL	4.00	Instrument Version
CURVE	TABLE	75
	Pt	T	Vf	Im	Vu	Pwr	Sig	Ach	Temp	IERange	Over
	#	s	V	A	V	W	V	V	deg C	#	bits
	0	0.013333	2.59511E-001	1.01509E-004	0.00000E+000	2.63426E-005	5.99601E-002	2.59599E-001	3.57640E+000	9	...........
	1	0.026667	2.82555E-001	1.00857E-004	0.00000E+000	2.84978E-005	5.99601E-002	2.82610E-001	3.57640E+000	9	...........
	2	0.04	3.04309E-001	1.01817E-004	0.00000E+000	3.09838E-005	5.99601E-002	3.04373E-001	3.57640E+000	9	...........
	3	0.053333	3.25146E-001	1.00498E-004	0.00000E+000	3.26766E-005	5.99601E-002	3.25213E-001	3.57640E+000	9	...........
	4	0.066667	3.45246E-001	9.92842E-005	0.00000E+000	3.42774E-005	5.99601E-002	3.45316E-001	3.57640E+000	9	...........
	5	0.08	3.64749E-001	1.01318E-004	0.00000E+000	3.69556E-005	5.99601E-002	3.64822E-001	3.57640E+000	9	...........
	6	0.093333	3.83712E-001	1.00494E-004	0.00000E+000	3.85607E-005	5.99601E-002	3.83790E-001	3.57640E+000	9	...........
	7	0.106667	4.02194E-001	1.01500E-004	0.00000E+000	4.08228E-005	5.99601E-002	4.02277E-001	3.57640E+000	9	...........
	8	0.12	4.20227E-001	1.01749E-004	0.00000E+000	4.27577E-005	5.99601E-002	4.20319E-001	3.57640E+000	9	...........
	9	0.133333	4.37856E-001	1.01133E-004	0.00000E+000	4.42819E-005	5.99601E-002	4.37953E-001	3.57640E+000	9	...........
	10	0.146667	4.55089E-001	9.99395E-005	0.00000E+000	4.54814E-005	5.99601E-002	4.55188E-001	3.57640E+000	9	...........
	11	0.16	4.71949E-001	1.01709E-004	0.00000E+000	4.80013E-005	5.99601E-002	4.72049E-001	3.57640E+000	9	...........
	12	0.173333	4.88433E-001	1.02027E-004	0.00000E+000	4.98336E-005	5.99601E-002	4.88540E-001	3.57640E+000	9	...........
	13	0.186667	5.04561E-001	1.02513E-004	0.00000E+000	5.17241E-005	5.99601E-002	5.04673E-001	3.57640E+000	9	...........
	14	0.2	5.20335E-001	1.01647E-004	0.00000E+000	5.28906E-005	5.99601E-002	5.20446E-001	3.57640E+000	9	...........
	15	0.213333	5.35624E-001	1.01752E-004	0.00000E+000	5.45010E-005	5.99601E-002	5.35769E-001	3.57640E+000	9	...........
	16	0.226667	5.50577E-001	1.00418E-004	0.00000E+000	5.52877E-005	5.99601E-002	5.50800E-001	3.57640E+000	9	...........
	17	0.24	5.65355E-001	1.01859E-004	0.00000E+000	5.75863E-005	5.99601E-002	5.65591E-001	3.57640E+000	9	...........
	18	0.253333	5.79786E-001	1.01552E-004	0.00000E+000	5.88786E-005	5.99601E-002	5.80028E-001	3.57640E+000	9	...........
	19	0.266667	5.93911E-001	1.01235E-004	0.00000E+000	6.01243E-005	5.99601E-002	5.94150E-001	3.57640E+000	9	...........
	20	0.28	6.07690E-001	1.01521E-004	0.00000E+000	6.16933E-005	5.99601E-002	6.07978E-001	3.57640E+000	9	...........
	21	0.293333	6.21225E-001	1.01726E-004	0.00000E+000	6.31949E-005	5.99601E-002	6.21428E-001	3.57640E+000	9	...........
	22	0.306667	6.34341E-001	1.02335E-004	0.00000E+000	6.49151E-005	5.99601E-002	6.34568E-001	3.57640E+000	9	...........
	23	0.32	6.47184E-001	1.00029E-004	0.00000E+000	6.47373E-005	5.99601E-002	6.47433E-001	3.57640E+000	9	...........
	24	0.333333	6.59725E-001	1.01933E-004	0.00000E+000	6.72475E-005	5.99601E-002	6.59954E-001	3.57640E+000	9	...........
	25	0.346667	6.71971E-001	1.01528E-004	0.00000E+000	6.82241E-005	5.99601E-002	6.72204E-001	3.57640E+000	9	...........
	26	0.36	6.83888E-001	1.00941E-004	0.00000E+000	6.90322E-005	5.99601E-002	6.84110E-001	3.57640E+000	9	...........
	27	0.373333	6.95501E-001	1.00281E-004	0.00000E+000	6.97457E-005	5.99601E-002	6.95739E-001	3.57640E+000	9	...........
	28	0.386667	7.06816E-001	1.00348E-004	0.00000E+000	7.09276E-005	5.99601E-002	7.07070E-001	3.57640E+000	9	...........
	29	0.4	7.17862E-001	1.01154E-004	0.00000E+000	7.26148E-005	5.99601E-002	7.18094E-001	3.57640E+000	9	...........
	30	0.413333	7.28613E-001	1.00395E-004	0.00000E+000	7.31490E-005	5.99601E-002	7.28838E-001	3.57640E+000	9	...........
	31	0.426667	7.39061E-001	1.01560E-004	0.00000E+000	7.50587E-005	5.99601E-002	7.39300E-001	3.57640E+000	9	...........
	32	0.44	7.49237E-001	1.01017E-004	0.00000E+000	7.56855E-005	5.99601E-002	7.49462E-001	3.57640E+000	9	...........
	33	0.453333	7.59121E-001	1.02143E-004	0.00000E+000	7.75389E-005	5.99601E-002	7.59335E-001	3.57640E+000	9	...........
	34	0.466667	7.68738E-001	1.01313E-004	0.00000E+000	7.78829E-005	5.99601E-002	7.68975E-001	3.57640E+000	9	...........
	35	0.48	7.78095E-001	1.00140E-004	0.00000E+000	7.79181E-005	5.99601E-002	7.78336E-001	3.57640E+000	9	...........
	36	0.493333	7.87174E-001	1.01433E-004	0.00000E+000	7.98450E-005	5.99601E-002	7.87411E-001	3.57640E+000	9	...........
	37	0.506667	7.96012E-001	1.01797E-004	0.00000E+000	8.10318E-005	5.99601E-002	7.96243E-001	3.57640E+000	9	...........
	38	0.52	8.04509E-001	1.00723E-004	0.00000E+000	8.10325E-005	5.99601E-002	8.04782E-001	3.57640E+000	9	...........
	39	0.533333	8.12807E-001	1.01122E-004	0.00000E+000	8.21927E-005	5.99601E-002	8.13088E-001	3.57640E+000	9	...........
	40	0.546667	8.20854E-001	1.00776E-004	0.00000E+000	8.27224E-005	5.99601E-002	8.21155E-001	3.57640E+000	9	...........
	41	0.56	8.28643E-001	1.00863E-004	0.00000E+000	8.35791E-005	5.99601E-002	8.28938E-001	3.57640E+000	9	...........
	42	0.573333	8.36177E-001	1.00950E-004	0.00000E+000	8.44121E-005	5.99601E-002	8.36476E-001	3.57640E+000	9	...........
	43	0.586667	8.43511E-001	1.02948E-004	0.00000E+000	8.68381E-005	5.99601E-002	8.43799E-001	3.57640E+000	9	...........
	44	0.6	8.50588E-001	1.01929E-004	0.00000E+000	8.67000E-005	5.99601E-002	8.50878E-001	3.57640E+000	9	...........
	45	0.613333	8.57431E-001	1.01060E-004	0.00000E+000	8.66515E-005	5.99601E-002	8.57744E-001	3.57640E+000	9	...........
	46	0.626667	8.64083E-001	1.01791E-004	0.00000E+000	8.79558E-005	5.99601E-002	8.64417E-001	3.57640E+000	9	...........
	47	0.64	8.70551E-001	1.01764E-004	0.00000E+000	8.85906E-005	5.99601E-002	8.70861E-001	3.57640E+000	9	...........
	48	0.653333	8.76807E-001	1.00483E-004	0.00000E+000	8.81045E-005	5.99601E-002	8.77106E-001	3.57640E+000	9	...........
	49	0.666667	8.82875E-001	1.00160E-004	0.00000E+000	8.84291E-005	5.99601E-002	8.83186E-001	3.57640E+000	9	...........
	50	0.68	8.88786E-001	1.01455E-004	0.00000E+000	9.01722E-005	5.99601E-002	8.89092E-001	3.57640E+000	9	...........
	51	0.693333	8.94527E-001	1.03411E-004	0.00000E+000	9.25040E-005	5.99601E-002	8.94873E-001	3.57640E+000	9	...........
	52	0.706667	9.00104E-001	1.00464E-004	0.00000E+000	9.04277E-005	5.99601E-002	9.00452E-001	3.57640E+000	9	...........
	53	0.72	9.05589E-001	1.02630E-004	0.00000E+000	9.29402E-005	5.99601E-002	9.05912E-001	3.57640E+000	9	...........
	54	0.733333	9.10959E-001	1.01280E-004	0.00000E+000	9.22623E-005	5.99601E-002	9.11228E-001	3.57640E+000	9	...........
	55	0.746667	9.16155E-001	1.00725E-004	0.00000E+000	9.22798E-005	5.99601E-002	9.16450E-001	3.57640E+000	9	...........
	56	0.76	9.21328E-001	1.00575E-004	0.00000E+000	9.26626E-005	5.99601E-002	9.21582E-001	3.57640E+000	9	...........
	57	0.773333	9.26360E-001	1.01533E-004	0.00000E+000	9.40557E-005	5.99601E-002	9.26619E-001	3.57640E+000	9	...........
	58	0.786667	9.31301E-001	1.00211E-004	0.00000E+000	9.33270E-005	5.99601E-002	9.31550E-001	3.57640E+000	9	...........
	59	0.8	9.36151E-001	1.01220E-004	0.00000E+000	9.47572E-005	5.99601E-002	9.36410E-001	3.57640E+000	9	...........
	60	0.813333	9.40914E-001	1.01104E-004	0.00000E+000	9.51305E-005	5.99601E-002	9.41195E-001	3.57640E+000	9	...........
	61	0.826667	9.45617E-001	1.01682E-004	0.00000E+000	9.61518E-005	5.99601E-002	9.45906E-001	3.57640E+000	9	...........
	62	0.84	9.50256E-001	1.00771E-004	0.00000E+000	9.57582E-005	5.99601E-002	9.50543E-001	3.57640E+000	9	...........
	63	0.853333	9.54782E-001	1.00826E-004	0.00000E+000	9.62670E-005	5.99601E-002	9.55071E-001	3.57640E+000	9	...........
	64	0.866667	9.59252E-001	1.00610E-004	0.00000E+000	9.65108E-005	5.99601E-002	9.59551E-001	3.57696E+000	9	...........
	65	0.88	9.63620E-001	1.00609E-004	0.00000E+000	9.69493E-005	5.99601E-002	9.63956E-001	3.57790E+000	9	...........
	66	0.893333	9.67940E-001	1.00329E-004	0.00000E+000	9.71127E-005	5.99601E-002	9.68260E-001	3.57790E+000	9	...........
	67	0.906667	9.72185E-001	9.95321E-005	0.00000E+000	9.67636E-005	5.99601E-002	9.72533E-001	3.57790E+000	9	...........
	68	0.92	9.76346E-001	1.01334E-004	0.00000E+000	9.89366E-005	5.99601E-002	9.76696E-001	3.57790E+000	9	...........
	69	0.933333	9.80421E-001	1.00007E-004	0.00000E+000	9.80492E-005	5.99601E-002	9.80769E-001	3.57790E+000	9	...........
	70	0.946667	9.84428E-001	1.00206E-004	0.00000E+000	9.86458E-005	5.99601E-002	9.84766E-001	3.57790E+000	9	...........
	71	0.96	9.88335E-001	1.01692E-004	0.00000E+000	1.00506E-004	5.99601E-002	9.88690E-001	3.57790E+000	9	...........
	72	0.97333	9.92161E-001	1.00592E-004	0.00000E+000	9.98031E-005	5.99601E-002	9.92501E-001	3.57790E+000	9	...........
	73	0.98667	9.95918E-001	1.00588E-004	0.00000E+000	1.00177E-004	5.99601E-002	9.96245E-001	3.57790E+000	9	...........
	74	0.99667	9.99139E-001	9.98645E-005	0.00000E+000	9.97785E-005	5.99601E-002	9.99479E-001	3.57790E+000	9	...........
STARTTIMEOFFSET	QUANT	1369.371	Start Time Offset (s)
