EXPLAIN
TAG	PWR800_CHARGE
TITLE	LABEL	PWR Cyclic Charge Discharge (Cell) - Charge Step	Test &Identifier
DATE	LABEL	12-7-2017	Date
TIME	LABEL	16:22:27	Time
NOTES	NOTES	2	&Notes...
	supercap test cell
	6M KOH
PSTAT	PSTAT	IFC5000-01520	Potentiostat
CAPACITY	QUANT	1.00000E-003	Capacity (A-hr)
CELLTYPE	SELECTOR	1	&Cell Type
WORKINGCONNECTION	SELECTOR	0	&Working Lead
MAXCHARGETIME	VARIABLEANDUNITS	1.00000E+002	s	1.00000E+002	second(s)	Max &Charge Time
CHARGECURRENT	QUANT	1.00000E-004	&Charge Current (A) 
VOLTAGEFINISH	TWOPARAM	F	1.00000E-003	3.60000E+003	&Voltage Finish	 I (A) < 	Max Time(s)
SAMPLETIME	QUANT	1.00000E-002	Sa&mple Period (s)
CHARGESTOPAT1	MULTIPARAM	4	1.00000E+000	Charge Stop At &1	Voltage > Limit	V
CHARGESTOPAT2	MULTIPARAM	0	0.00000E+000	Charge Stop At &2	None	N/A
AESBHCSELECTOR	TOGGLE	F	Save Both Half Cells
IRCOMP	TOGGLE	F	IR &Measure
EOC	QUANT	0	Open Circuit (V)
SEQUENCER	TOGGLE	TRUE	Run as Sequence
PSTATMODEL	IQUANT	53	Pstat Model
PSTATSECTION	LABEL	IFC5000-01520	Pstat Section
PSTATSERIALNO	LABEL	01520	Pstat Serial Number
CTRLMODE	IQUANT	0	Control Mode
ELECTROMETER	IQUANT	1	RE=0 or CS=1
IESTAB	IQUANT	0	I/E Stability
CASPEED	IQUANT	4	Control Amp Speed
CONVENTION	IQUANT	1	Current Convention
ICHRANGE	IQUANT	2	Ich Range
ICHRANGEMODE	TOGGLE	T	Ich Auto Range
ICHOFFSETENABLE	TOGGLE	F	Ich Offset Enable
ICHOFFSET	QUANT	0	Ich Offset (V)
ICHFILTER	IQUANT	1	Ich Filter
VCHRANGE	IQUANT	2	Vch Range
VCHRANGEMODE	TOGGLE	T	Vch Auto Range
VCHOFFSETENABLE	TOGGLE	F	Vch Offset Enable
VCHOFFSET	QUANT	0	Vch Offset (V)
VCHFILTER	IQUANT	1	Vch Filter
IERANGELOWERLIMIT	IQUANT	9	I/E Range Lower Limit
IERANGEMODE	TOGGLE	F	I/E AutoRange
IERANGE	IQUANT	9	I/E Range
ACHSELECT	IQUANT	1	Ach Select
ACHRANGE	IQUANT	2	Ach Range
ACHOFFSETENABLE	TOGGLE	F	Ach Offset Enable
ACHOFFSET	QUANT	0	Ach Offset (V)
ACHFILTER	IQUANT	1	Ach Filter
CABLEID	IQUANT	14	Cable ID
DCCALDATE	LABEL	5-7-2017	DC Calibration Date
ACCALDATE	LABEL	12/3/2015	AC Calibration Date
FRAMEWORKVERSION	QUANT	7.01	Framework Version
INSTRUMENTVERSION	LABEL	4.00	Instrument Version
CURVE	TABLE	78
	Pt	T	Vf	Im	Vu	Pwr	Sig	Ach	Temp	IERange	Over
	#	s	V	A	V	W	V	V	deg C	#	bits
	0	0.013333	2.60845E-001	1.01070E-004	0.00000E+000	2.63636E-005	5.99601E-002	2.60927E-001	3.57760E+000	9	...........
	1	0.026667	2.83638E-001	1.00674E-004	0.00000E+000	2.85550E-005	5.99601E-002	2.83700E-001	3.57760E+000	9	...........
	2	0.04	3.04985E-001	1.01025E-004	0.00000E+000	3.08112E-005	5.99601E-002	3.05051E-001	3.57760E+000	9	...........
	3	0.053333	3.25268E-001	1.00592E-004	0.00000E+000	3.27193E-005	5.99601E-002	3.25341E-001	3.57760E+000	9	...........
	4	0.066667	3.44705E-001	1.00799E-004	0.00000E+000	3.47460E-005	5.99601E-002	3.44782E-001	3.57760E+000	9	...........
	5	0.08	3.63454E-001	1.00864E-004	0.00000E+000	3.66593E-005	5.99601E-002	3.63529E-001	3.57760E+000	9	...........
	6	0.093333	3.81599E-001	1.01096E-004	0.00000E+000	3.85781E-005	5.99601E-002	3.81675E-001	3.57760E+000	9	...........
	7	0.106667	3.99213E-001	1.00097E-004	0.00000E+000	3.99600E-005	5.99601E-002	3.99296E-001	3.57760E+000	9	...........
	8	0.12	4.16352E-001	1.01181E-004	0.00000E+000	4.21271E-005	5.99601E-002	4.16438E-001	3.57760E+000	9	...........
	9	0.133333	4.33059E-001	1.00824E-004	0.00000E+000	4.36628E-005	5.99601E-002	4.33152E-001	3.57760E+000	9	...........
	10	0.146667	4.49373E-001	1.01447E-004	0.00000E+000	4.55875E-005	5.99601E-002	4.49467E-001	3.57760E+000	9	...........
	11	0.16	4.65304E-001	1.01021E-004	0.00000E+000	4.70055E-005	5.99601E-002	4.65412E-001	3.57760E+000	9	...........
	12	0.173333	4.80887E-001	1.01770E-004	0.00000E+000	4.89400E-005	5.99601E-002	4.80994E-001	3.57760E+000	9	...........
	13	0.186667	4.96128E-001	1.00733E-004	0.00000E+000	4.99767E-005	5.99601E-002	4.96232E-001	3.57760E+000	9	...........
	14	0.2	5.11050E-001	9.99999E-005	0.00000E+000	5.11050E-005	5.99601E-002	5.11164E-001	3.57760E+000	9	...........
	15	0.213333	5.25683E-001	1.00966E-004	0.00000E+000	5.30760E-005	5.99601E-002	5.25792E-001	3.57760E+000	9	...........
	16	0.226667	5.39720E-001	1.01506E-004	0.00000E+000	5.47851E-005	5.99601E-002	5.39948E-001	3.57760E+000	9	...........
	17	0.24	5.53725E-001	1.00298E-004	0.00000E+000	5.55374E-005	5.99601E-002	5.53961E-001	3.57760E+000	9	...........
	18	0.253333	5.67505E-001	1.00329E-004	0.00000E+000	5.69373E-005	5.99601E-002	5.67752E-001	3.57760E+000	9	...........
	19	0.266667	5.80984E-001	1.01248E-004	0.00000E+000	5.88235E-005	5.99601E-002	5.81231E-001	3.57760E+000	9	...........
	20	0.28	5.94221E-001	1.01413E-004	0.00000E+000	6.02616E-005	5.99601E-002	5.94463E-001	3.57760E+000	9	...........
	21	0.293333	6.07146E-001	1.01336E-004	0.00000E+000	6.15255E-005	5.99601E-002	6.07411E-001	3.57760E+000	9	...........
	22	0.306667	6.19918E-001	1.00297E-004	0.00000E+000	6.21758E-005	5.99601E-002	6.20141E-001	3.57760E+000	9	...........
	23	0.32	6.32359E-001	1.01190E-004	0.00000E+000	6.39882E-005	5.99601E-002	6.32598E-001	3.57760E+000	9	...........
	24	0.333333	6.44580E-001	1.00710E-004	0.00000E+000	6.49159E-005	5.99601E-002	6.44821E-001	3.57760E+000	9	...........
	25	0.346667	6.56548E-001	1.01650E-004	0.00000E+000	6.67383E-005	5.99601E-002	6.56799E-001	3.57760E+000	9	...........
	26	0.36	6.68278E-001	1.02426E-004	0.00000E+000	6.84494E-005	5.99601E-002	6.68534E-001	3.57760E+000	9	...........
	27	0.373333	6.79744E-001	1.01270E-004	0.00000E+000	6.88376E-005	5.99601E-002	6.80013E-001	3.57760E+000	9	...........
	28	0.386667	6.90964E-001	1.00300E-004	0.00000E+000	6.93037E-005	5.99601E-002	6.91257E-001	3.57760E+000	9	...........
	29	0.4	7.01956E-001	1.00941E-004	0.00000E+000	7.08560E-005	5.99601E-002	7.02238E-001	3.57760E+000	9	...........
	30	0.413333	7.12707E-001	1.01562E-004	0.00000E+000	7.23838E-005	5.99601E-002	7.12989E-001	3.57760E+000	9	...........
	31	0.426667	7.23281E-001	1.01384E-004	0.00000E+000	7.33288E-005	5.99601E-002	7.23515E-001	3.57760E+000	9	...........
	32	0.44	7.33513E-001	9.97749E-005	0.00000E+000	7.31861E-005	5.99601E-002	7.33796E-001	3.57760E+000	9	...........
	33	0.453333	7.43582E-001	1.00652E-004	0.00000E+000	7.48432E-005	5.99601E-002	7.43846E-001	3.57760E+000	9	...........
	34	0.466667	7.53369E-001	1.01542E-004	0.00000E+000	7.64985E-005	5.99601E-002	7.53662E-001	3.57760E+000	9	...........
	35	0.48	7.62957E-001	1.00514E-004	0.00000E+000	7.66876E-005	5.99601E-002	7.63230E-001	3.57760E+000	9	...........
	36	0.493333	7.72291E-001	1.00784E-004	0.00000E+000	7.78349E-005	5.99601E-002	7.72585E-001	3.57760E+000	9	...........
	37	0.506667	7.81400E-001	1.02032E-004	0.00000E+000	7.97275E-005	5.99601E-002	7.81684E-001	3.57760E+000	9	...........
	38	0.52	7.90262E-001	1.00909E-004	0.00000E+000	7.97450E-005	5.99601E-002	7.90562E-001	3.57760E+000	9	...........
	39	0.533333	7.98922E-001	1.00823E-004	0.00000E+000	8.05497E-005	5.99601E-002	7.99213E-001	3.57760E+000	9	...........
	40	0.546667	8.07326E-001	1.01448E-004	0.00000E+000	8.19017E-005	5.99601E-002	8.07640E-001	3.57760E+000	9	...........
	41	0.56	8.15515E-001	1.00718E-004	0.00000E+000	8.21369E-005	5.99601E-002	8.15853E-001	3.57760E+000	9	...........
	42	0.573333	8.23515E-001	1.01086E-004	0.00000E+000	8.32454E-005	5.99601E-002	8.23842E-001	3.57760E+000	9	...........
	43	0.586667	8.31255E-001	1.01316E-004	0.00000E+000	8.42193E-005	5.99601E-002	8.31598E-001	3.57760E+000	9	...........
	44	0.6	8.38814E-001	1.01240E-004	0.00000E+000	8.49213E-005	5.99601E-002	8.39147E-001	3.57760E+000	9	...........
	45	0.613333	8.46149E-001	9.99551E-005	0.00000E+000	8.45770E-005	5.99601E-002	8.46502E-001	3.57788E+000	9	...........
	46	0.626667	8.53269E-001	1.00937E-004	0.00000E+000	8.61261E-005	5.99601E-002	8.53587E-001	3.57980E+000	9	...........
	47	0.64	8.60183E-001	1.00849E-004	0.00000E+000	8.67487E-005	5.99601E-002	8.60517E-001	3.57980E+000	9	...........
	48	0.653333	8.66866E-001	1.00524E-004	0.00000E+000	8.71408E-005	5.99601E-002	8.67204E-001	3.57980E+000	9	...........
	49	0.666667	8.73389E-001	1.01519E-004	0.00000E+000	8.86656E-005	5.99601E-002	8.73731E-001	3.57980E+000	9	...........
	50	0.68	8.79682E-001	9.97384E-005	0.00000E+000	8.77380E-005	5.99601E-002	8.80021E-001	3.57980E+000	9	...........
	51	0.693333	8.85815E-001	1.01153E-004	0.00000E+000	8.96031E-005	5.99601E-002	8.86139E-001	3.57980E+000	9	...........
	52	0.706667	8.91714E-001	1.00277E-004	0.00000E+000	8.94184E-005	5.99601E-002	8.92045E-001	3.57980E+000	9	...........
	53	0.72	8.97452E-001	1.00754E-004	0.00000E+000	9.04221E-005	5.99601E-002	8.97804E-001	3.57980E+000	9	...........
	54	0.733333	9.03038E-001	1.01086E-004	0.00000E+000	9.12841E-005	5.99601E-002	9.03390E-001	3.57980E+000	9	...........
	55	0.746667	9.08465E-001	1.00923E-004	0.00000E+000	9.16850E-005	5.99601E-002	9.08822E-001	3.57980E+000	9	...........
	56	0.76	9.13749E-001	1.00917E-004	0.00000E+000	9.22126E-005	5.99601E-002	9.14092E-001	3.57980E+000	9	...........
	57	0.773333	9.18889E-001	9.98822E-005	0.00000E+000	9.17806E-005	5.99601E-002	9.19219E-001	3.57980E+000	9	...........
	58	0.786667	9.23930E-001	1.01658E-004	0.00000E+000	9.39245E-005	5.99601E-002	9.24250E-001	3.57980E+000	9	...........
	59	0.8	9.28811E-001	1.00282E-004	0.00000E+000	9.31433E-005	5.99601E-002	9.29144E-001	3.57980E+000	9	...........
	60	0.813333	9.33579E-001	1.01153E-004	0.00000E+000	9.44346E-005	5.99601E-002	9.33914E-001	3.57980E+000	9	...........
	61	0.826667	9.38218E-001	1.01563E-004	0.00000E+000	9.52880E-005	5.99601E-002	9.38559E-001	3.57980E+000	9	...........
	62	0.84	9.42781E-001	1.02261E-004	0.00000E+000	9.64096E-005	5.99601E-002	9.43116E-001	3.57980E+000	9	...........
	63	0.853333	9.47264E-001	1.00826E-004	0.00000E+000	9.55090E-005	5.99601E-002	9.47595E-001	3.57980E+000	9	...........
	64	0.866667	9.51654E-001	1.00551E-004	0.00000E+000	9.56899E-005	5.99601E-002	9.51981E-001	3.57980E+000	9	...........
	65	0.88	9.55940E-001	1.00820E-004	0.00000E+000	9.63777E-005	5.99601E-002	9.56254E-001	3.57980E+000	9	...........
	66	0.893333	9.60129E-001	1.01955E-004	0.00000E+000	9.78895E-005	5.99601E-002	9.60491E-001	3.57980E+000	9	...........
	67	0.906667	9.64254E-001	1.00840E-004	0.00000E+000	9.72351E-005	5.99601E-002	9.64619E-001	3.57980E+000	9	...........
	68	0.92	9.68286E-001	1.01587E-004	0.00000E+000	9.83650E-005	5.99601E-002	9.68658E-001	3.57980E+000	9	...........
	69	0.933333	9.72293E-001	1.01797E-004	0.00000E+000	9.89767E-005	5.99601E-002	9.72673E-001	3.57980E+000	9	...........
	70	0.946667	9.76210E-001	1.01629E-004	0.00000E+000	9.92116E-005	5.99601E-002	9.76561E-001	3.57980E+000	9	...........
	71	0.96	9.80012E-001	1.01549E-004	0.00000E+000	9.95195E-005	5.99601E-002	9.80359E-001	3.57980E+000	9	...........
	72	0.97333	9.83748E-001	1.00719E-004	0.00000E+000	9.90819E-005	5.99601E-002	9.84097E-001	3.57980E+000	9	...........
	73	0.98667	9.87398E-001	1.00582E-004	0.00000E+000	9.93148E-005	5.99601E-002	9.87751E-001	3.57980E+000	9	...........
	74	1	9.90959E-001	1.01225E-004	0.00000E+000	1.00310E-004	5.99601E-002	9.91310E-001	3.57980E+000	9	...........
	75	1.01333	9.94441E-001	1.01514E-004	0.00000E+000	1.00950E-004	5.99601E-002	9.94794E-001	3.57980E+000	9	...........
	76	1.02667	9.97826E-001	1.00873E-004	0.00000E+000	1.00654E-004	5.99601E-002	9.98216E-001	3.57980E+000	9	...........
	77	1.03	9.99901E-001	1.03048E-004	0.00000E+000	1.03038E-004	5.99601E-002	1.00034E+000	3.57980E+000	9	...........
STARTTIMEOFFSET	QUANT	529.5451	Start Time Offset (s)
