EXPLAIN
TAG	PWR800_CHARGE
TITLE	LABEL	PWR Cyclic Charge Discharge (Cell) - Charge Step	Test &Identifier
DATE	LABEL	12-7-2017	Date
TIME	LABEL	16:14:42	Time
NOTES	NOTES	2	&Notes...
	supercap test cell
	6M KOH
PSTAT	PSTAT	IFC5000-01520	Potentiostat
CAPACITY	QUANT	1.00000E-003	Capacity (A-hr)
CELLTYPE	SELECTOR	1	&Cell Type
WORKINGCONNECTION	SELECTOR	0	&Working Lead
MAXCHARGETIME	VARIABLEANDUNITS	1.00000E+002	s	1.00000E+002	second(s)	Max &Charge Time
CHARGECURRENT	QUANT	1.00000E-004	&Charge Current (A) 
VOLTAGEFINISH	TWOPARAM	F	1.00000E-003	3.60000E+003	&Voltage Finish	 I (A) < 	Max Time(s)
SAMPLETIME	QUANT	1.00000E-002	Sa&mple Period (s)
CHARGESTOPAT1	MULTIPARAM	4	1.00000E+000	Charge Stop At &1	Voltage > Limit	V
CHARGESTOPAT2	MULTIPARAM	0	0.00000E+000	Charge Stop At &2	None	N/A
AESBHCSELECTOR	TOGGLE	F	Save Both Half Cells
IRCOMP	TOGGLE	F	IR &Measure
EOC	QUANT	0	Open Circuit (V)
SEQUENCER	TOGGLE	TRUE	Run as Sequence
PSTATMODEL	IQUANT	53	Pstat Model
PSTATSECTION	LABEL	IFC5000-01520	Pstat Section
PSTATSERIALNO	LABEL	01520	Pstat Serial Number
CTRLMODE	IQUANT	0	Control Mode
ELECTROMETER	IQUANT	1	RE=0 or CS=1
IESTAB	IQUANT	0	I/E Stability
CASPEED	IQUANT	4	Control Amp Speed
CONVENTION	IQUANT	1	Current Convention
ICHRANGE	IQUANT	2	Ich Range
ICHRANGEMODE	TOGGLE	T	Ich Auto Range
ICHOFFSETENABLE	TOGGLE	F	Ich Offset Enable
ICHOFFSET	QUANT	0	Ich Offset (V)
ICHFILTER	IQUANT	1	Ich Filter
VCHRANGE	IQUANT	2	Vch Range
VCHRANGEMODE	TOGGLE	T	Vch Auto Range
VCHOFFSETENABLE	TOGGLE	F	Vch Offset Enable
VCHOFFSET	QUANT	0	Vch Offset (V)
VCHFILTER	IQUANT	1	Vch Filter
IERANGELOWERLIMIT	IQUANT	9	I/E Range Lower Limit
IERANGEMODE	TOGGLE	F	I/E AutoRange
IERANGE	IQUANT	9	I/E Range
ACHSELECT	IQUANT	1	Ach Select
ACHRANGE	IQUANT	2	Ach Range
ACHOFFSETENABLE	TOGGLE	F	Ach Offset Enable
ACHOFFSET	QUANT	0	Ach Offset (V)
ACHFILTER	IQUANT	1	Ach Filter
CABLEID	IQUANT	14	Cable ID
DCCALDATE	LABEL	5-7-2017	DC Calibration Date
ACCALDATE	LABEL	12/3/2015	AC Calibration Date
FRAMEWORKVERSION	QUANT	7.01	Framework Version
INSTRUMENTVERSION	LABEL	4.00	Instrument Version
CURVE	TABLE	80
	Pt	T	Vf	Im	Vu	Pwr	Sig	Ach	Temp	IERange	Over
	#	s	V	A	V	W	V	V	deg C	#	bits
	0	0.013333	2.61529E-001	1.01868E-004	0.00000E+000	2.66414E-005	5.99601E-002	2.61603E-001	3.57720E+000	9	...........
	1	0.026667	2.84189E-001	1.00151E-004	0.00000E+000	2.84618E-005	5.99601E-002	2.84247E-001	3.57736E+000	9	...........
	2	0.04	3.05263E-001	1.00397E-004	0.00000E+000	3.06475E-005	5.99601E-002	3.05327E-001	3.57740E+000	9	...........
	3	0.053333	3.25128E-001	1.00798E-004	0.00000E+000	3.27723E-005	5.99601E-002	3.25200E-001	3.57740E+000	9	...........
	4	0.066667	3.43999E-001	1.01245E-004	0.00000E+000	3.48281E-005	5.99601E-002	3.44075E-001	3.57740E+000	9	...........
	5	0.08	3.62040E-001	1.00386E-004	0.00000E+000	3.63440E-005	5.99601E-002	3.62115E-001	3.57740E+000	9	...........
	6	0.093333	3.79357E-001	1.01145E-004	0.00000E+000	3.83700E-005	5.99601E-002	3.79443E-001	3.57740E+000	9	...........
	7	0.106667	3.96058E-001	1.00029E-004	0.00000E+000	3.96174E-005	5.99601E-002	3.96138E-001	3.57740E+000	9	...........
	8	0.12	4.12222E-001	1.00529E-004	0.00000E+000	4.14403E-005	5.99601E-002	4.12312E-001	3.57740E+000	9	...........
	9	0.133333	4.27916E-001	1.00662E-004	0.00000E+000	4.30747E-005	5.99601E-002	4.28007E-001	3.57740E+000	9	...........
	10	0.146667	4.43165E-001	1.00624E-004	0.00000E+000	4.45930E-005	5.99601E-002	4.43264E-001	3.57740E+000	9	...........
	11	0.16	4.58031E-001	1.00897E-004	0.00000E+000	4.62140E-005	5.99601E-002	4.58132E-001	3.57740E+000	9	...........
	12	0.173333	4.72539E-001	1.01096E-004	0.00000E+000	4.77718E-005	5.99601E-002	4.72645E-001	3.57740E+000	9	...........
	13	0.186667	4.86722E-001	1.00639E-004	0.00000E+000	4.89830E-005	5.99601E-002	4.86829E-001	3.57740E+000	9	...........
	14	0.2	5.00597E-001	1.00858E-004	0.00000E+000	5.04894E-005	5.99601E-002	5.00708E-001	3.57740E+000	9	...........
	15	0.213333	5.14198E-001	1.00583E-004	0.00000E+000	5.17197E-005	5.99601E-002	5.14313E-001	3.57740E+000	9	...........
	16	0.226667	5.27536E-001	1.01618E-004	0.00000E+000	5.36072E-005	5.99601E-002	5.27654E-001	3.57740E+000	9	...........
	17	0.24	5.40296E-001	1.00954E-004	0.00000E+000	5.45452E-005	5.99601E-002	5.40549E-001	3.57740E+000	9	...........
	18	0.253333	5.53141E-001	1.01293E-004	0.00000E+000	5.60292E-005	5.99601E-002	5.53369E-001	3.57740E+000	9	...........
	19	0.266667	5.65757E-001	1.00640E-004	0.00000E+000	5.69376E-005	5.99601E-002	5.66027E-001	3.57740E+000	9	...........
	20	0.28	5.78145E-001	1.01339E-004	0.00000E+000	5.85885E-005	5.99601E-002	5.78387E-001	3.57740E+000	9	...........
	21	0.293333	5.90341E-001	1.00889E-004	0.00000E+000	5.95587E-005	5.99601E-002	5.90571E-001	3.57740E+000	9	...........
	22	0.306667	6.02309E-001	1.00808E-004	0.00000E+000	6.07178E-005	5.99601E-002	6.02551E-001	3.57740E+000	9	...........
	23	0.32	6.14080E-001	1.01103E-004	0.00000E+000	6.20855E-005	5.99601E-002	6.14331E-001	3.57740E+000	9	...........
	24	0.333333	6.25700E-001	1.00178E-004	0.00000E+000	6.26815E-005	5.99601E-002	6.25903E-001	3.57740E+000	9	...........
	25	0.346667	6.37083E-001	1.00989E-004	0.00000E+000	6.43382E-005	5.99601E-002	6.37286E-001	3.57740E+000	9	...........
	26	0.36	6.48292E-001	1.00813E-004	0.00000E+000	6.53560E-005	5.99601E-002	6.48496E-001	3.57740E+000	9	...........
	27	0.373333	6.59306E-001	1.00748E-004	0.00000E+000	6.64238E-005	5.99601E-002	6.59523E-001	3.57740E+000	9	...........
	28	0.386667	6.70183E-001	1.01428E-004	0.00000E+000	6.79755E-005	5.99601E-002	6.70379E-001	3.57740E+000	9	...........
	29	0.4	6.80821E-001	1.01229E-004	0.00000E+000	6.89190E-005	5.99601E-002	6.81057E-001	3.57740E+000	9	...........
	30	0.413333	6.91288E-001	1.01254E-004	0.00000E+000	6.99959E-005	5.99601E-002	6.91543E-001	3.57740E+000	9	...........
	31	0.426667	7.01573E-001	1.01415E-004	0.00000E+000	7.11499E-005	5.99601E-002	7.01847E-001	3.57740E+000	9	...........
	32	0.44	7.11677E-001	1.00747E-004	0.00000E+000	7.16993E-005	5.99601E-002	7.11950E-001	3.57740E+000	9	...........
	33	0.453333	7.21668E-001	1.01325E-004	0.00000E+000	7.31232E-005	5.99601E-002	7.21893E-001	3.57740E+000	9	...........
	34	0.466667	7.31365E-001	1.00333E-004	0.00000E+000	7.33803E-005	5.99601E-002	7.31626E-001	3.57740E+000	9	...........
	35	0.48	7.40949E-001	1.00843E-004	0.00000E+000	7.47194E-005	5.99601E-002	7.41196E-001	3.57740E+000	9	...........
	36	0.493333	7.50336E-001	1.01541E-004	0.00000E+000	7.61898E-005	5.99601E-002	7.50611E-001	3.57740E+000	9	...........
	37	0.506667	7.59547E-001	1.00623E-004	0.00000E+000	7.64279E-005	5.99601E-002	7.59809E-001	3.57740E+000	9	...........
	38	0.52	7.68567E-001	1.01028E-004	0.00000E+000	7.76470E-005	5.99601E-002	7.68860E-001	3.57740E+000	9	...........
	39	0.533333	7.77429E-001	1.00869E-004	0.00000E+000	7.84184E-005	5.99601E-002	7.77701E-001	3.57740E+000	9	...........
	40	0.546667	7.86093E-001	1.00633E-004	0.00000E+000	7.91072E-005	5.99601E-002	7.86354E-001	3.57740E+000	9	...........
	41	0.56	7.94585E-001	1.01228E-004	0.00000E+000	8.04345E-005	5.99601E-002	7.94854E-001	3.57740E+000	9	...........
	42	0.573333	8.02873E-001	1.01686E-004	0.00000E+000	8.16407E-005	5.99601E-002	8.03142E-001	3.57740E+000	9	...........
	43	0.586667	8.10959E-001	1.01565E-004	0.00000E+000	8.23649E-005	5.99601E-002	8.11260E-001	3.57740E+000	9	...........
	44	0.6	8.18894E-001	1.00917E-004	0.00000E+000	8.26402E-005	5.99601E-002	8.19200E-001	3.57740E+000	9	...........
	45	0.613333	8.26633E-001	1.00949E-004	0.00000E+000	8.34479E-005	5.99601E-002	8.26941E-001	3.57740E+000	9	...........
	46	0.626667	8.34179E-001	1.00248E-004	0.00000E+000	8.36246E-005	5.99601E-002	8.34495E-001	3.57740E+000	9	...........
	47	0.64	8.41531E-001	1.00613E-004	0.00000E+000	8.46686E-005	5.99601E-002	8.41881E-001	3.57740E+000	9	...........
	48	0.653333	8.48765E-001	1.01290E-004	0.00000E+000	8.59712E-005	5.99601E-002	8.49098E-001	3.57740E+000	9	...........
	49	0.666667	8.55764E-001	1.00526E-004	0.00000E+000	8.60266E-005	5.99601E-002	8.56112E-001	3.57740E+000	9	...........
	50	0.68	8.62615E-001	1.01038E-004	0.00000E+000	8.71566E-005	5.99601E-002	8.62932E-001	3.57740E+000	9	...........
	51	0.693333	8.69283E-001	1.00690E-004	0.00000E+000	8.75278E-005	5.99601E-002	8.69616E-001	3.57740E+000	9	...........
	52	0.706667	8.75790E-001	1.00490E-004	0.00000E+000	8.80078E-005	5.99601E-002	8.76117E-001	3.57740E+000	9	...........
	53	0.72	8.82124E-001	1.00166E-004	0.00000E+000	8.83584E-005	5.99601E-002	8.82424E-001	3.57740E+000	9	...........
	54	0.733333	8.88265E-001	1.01774E-004	0.00000E+000	9.04025E-005	5.99601E-002	8.88552E-001	3.57740E+000	9	...........
	55	0.746667	8.94246E-001	1.01637E-004	0.00000E+000	9.08882E-005	5.99601E-002	8.94537E-001	3.57740E+000	9	...........
	56	0.76	9.00043E-001	1.01131E-004	0.00000E+000	9.10226E-005	5.99601E-002	9.00338E-001	3.57740E+000	9	...........
	57	0.773333	9.05701E-001	1.01212E-004	0.00000E+000	9.16675E-005	5.99601E-002	9.05994E-001	3.57740E+000	9	...........
	58	0.786667	9.11217E-001	1.01487E-004	0.00000E+000	9.24764E-005	5.99601E-002	9.11499E-001	3.57740E+000	9	...........
	59	0.8	9.16525E-001	1.01501E-004	0.00000E+000	9.30285E-005	5.99601E-002	9.16860E-001	3.57740E+000	9	...........
	60	0.813333	9.21772E-001	1.01072E-004	0.00000E+000	9.31654E-005	5.99601E-002	9.22060E-001	3.57740E+000	9	...........
	61	0.826667	9.26813E-001	1.01338E-004	0.00000E+000	9.39211E-005	5.99601E-002	9.27123E-001	3.57740E+000	9	...........
	62	0.84	9.31727E-001	1.01156E-004	0.00000E+000	9.42502E-005	5.99601E-002	9.32030E-001	3.57740E+000	9	...........
	63	0.853333	9.36489E-001	1.00584E-004	0.00000E+000	9.41962E-005	5.99601E-002	9.36809E-001	3.57740E+000	9	...........
	64	0.866667	9.41123E-001	1.00055E-004	0.00000E+000	9.41642E-005	5.99601E-002	9.41468E-001	3.57740E+000	9	...........
	65	0.88	9.45636E-001	1.00373E-004	0.00000E+000	9.49162E-005	5.99601E-002	9.45993E-001	3.57740E+000	9	...........
	66	0.893333	9.50070E-001	1.01763E-004	0.00000E+000	9.66818E-005	5.99601E-002	9.50401E-001	3.57740E+000	9	...........
	67	0.906667	9.54350E-001	1.00280E-004	0.00000E+000	9.57024E-005	5.99601E-002	9.54689E-001	3.57740E+000	9	...........
	68	0.92	9.58542E-001	1.00182E-004	0.00000E+000	9.60289E-005	5.99601E-002	9.58911E-001	3.57740E+000	9	...........
	69	0.933333	9.62606E-001	1.00567E-004	0.00000E+000	9.68061E-005	5.99601E-002	9.62986E-001	3.57740E+000	9	...........
	70	0.946667	9.66631E-001	1.00592E-004	0.00000E+000	9.72351E-005	5.99601E-002	9.66975E-001	3.57740E+000	9	...........
	71	0.96	9.70533E-001	1.01533E-004	0.00000E+000	9.85406E-005	5.99601E-002	9.70930E-001	3.57740E+000	9	...........
	72	0.97333	9.74432E-001	1.00895E-004	0.00000E+000	9.83152E-005	5.99601E-002	9.74761E-001	3.57740E+000	9	...........
	73	0.98667	9.78147E-001	1.01229E-004	0.00000E+000	9.90172E-005	5.99601E-002	9.78511E-001	3.57740E+000	9	...........
	74	1	9.81771E-001	1.01236E-004	0.00000E+000	9.93901E-005	5.99601E-002	9.82143E-001	3.57740E+000	9	...........
	75	1.01333	9.85339E-001	1.00434E-004	0.00000E+000	9.89620E-005	5.99601E-002	9.85716E-001	3.57740E+000	9	...........
	76	1.02667	9.88844E-001	1.01174E-004	0.00000E+000	1.00045E-004	5.99601E-002	9.89194E-001	3.57771E+000	9	...........
	77	1.04	9.92204E-001	1.01140E-004	0.00000E+000	1.00351E-004	5.99601E-002	9.92577E-001	3.57780E+000	9	...........
	78	1.05333	9.95498E-001	1.00284E-004	0.00000E+000	9.98329E-005	5.99601E-002	9.95862E-001	3.57780E+000	9	...........
	79	1.06667	9.98721E-001	1.00973E-004	0.00000E+000	1.00844E-004	5.99601E-002	9.99099E-001	3.57780E+000	9	...........
STARTTIMEOFFSET	QUANT	198.2533	Start Time Offset (s)
