EXPLAIN
TAG	PWR800_CHARGE
TITLE	LABEL	PWR Cyclic Charge Discharge (Cell) - Charge Step	Test &Identifier
DATE	LABEL	12-7-2017	Date
TIME	LABEL	16:32:43	Time
NOTES	NOTES	2	&Notes...
	supercap test cell
	6M KOH
PSTAT	PSTAT	IFC5000-01520	Potentiostat
CAPACITY	QUANT	1.00000E-003	Capacity (A-hr)
CELLTYPE	SELECTOR	1	&Cell Type
WORKINGCONNECTION	SELECTOR	0	&Working Lead
MAXCHARGETIME	VARIABLEANDUNITS	1.00000E+002	s	1.00000E+002	second(s)	Max &Charge Time
CHARGECURRENT	QUANT	1.00000E-004	&Charge Current (A) 
VOLTAGEFINISH	TWOPARAM	F	1.00000E-003	3.60000E+003	&Voltage Finish	 I (A) < 	Max Time(s)
SAMPLETIME	QUANT	1.00000E-002	Sa&mple Period (s)
CHARGESTOPAT1	MULTIPARAM	4	1.00000E+000	Charge Stop At &1	Voltage > Limit	V
CHARGESTOPAT2	MULTIPARAM	0	0.00000E+000	Charge Stop At &2	None	N/A
AESBHCSELECTOR	TOGGLE	F	Save Both Half Cells
IRCOMP	TOGGLE	F	IR &Measure
EOC	QUANT	0	Open Circuit (V)
SEQUENCER	TOGGLE	TRUE	Run as Sequence
PSTATMODEL	IQUANT	53	Pstat Model
PSTATSECTION	LABEL	IFC5000-01520	Pstat Section
PSTATSERIALNO	LABEL	01520	Pstat Serial Number
CTRLMODE	IQUANT	0	Control Mode
ELECTROMETER	IQUANT	1	RE=0 or CS=1
IESTAB	IQUANT	0	I/E Stability
CASPEED	IQUANT	4	Control Amp Speed
CONVENTION	IQUANT	1	Current Convention
ICHRANGE	IQUANT	2	Ich Range
ICHRANGEMODE	TOGGLE	T	Ich Auto Range
ICHOFFSETENABLE	TOGGLE	F	Ich Offset Enable
ICHOFFSET	QUANT	0	Ich Offset (V)
ICHFILTER	IQUANT	1	Ich Filter
VCHRANGE	IQUANT	2	Vch Range
VCHRANGEMODE	TOGGLE	T	Vch Auto Range
VCHOFFSETENABLE	TOGGLE	F	Vch Offset Enable
VCHOFFSET	QUANT	0	Vch Offset (V)
VCHFILTER	IQUANT	1	Vch Filter
IERANGELOWERLIMIT	IQUANT	9	I/E Range Lower Limit
IERANGEMODE	TOGGLE	F	I/E AutoRange
IERANGE	IQUANT	9	I/E Range
ACHSELECT	IQUANT	1	Ach Select
ACHRANGE	IQUANT	2	Ach Range
ACHOFFSETENABLE	TOGGLE	F	Ach Offset Enable
ACHOFFSET	QUANT	0	Ach Offset (V)
ACHFILTER	IQUANT	1	Ach Filter
CABLEID	IQUANT	14	Cable ID
DCCALDATE	LABEL	5-7-2017	DC Calibration Date
ACCALDATE	LABEL	12/3/2015	AC Calibration Date
FRAMEWORKVERSION	QUANT	7.01	Framework Version
INSTRUMENTVERSION	LABEL	4.00	Instrument Version
CURVE	TABLE	76
	Pt	T	Vf	Im	Vu	Pwr	Sig	Ach	Temp	IERange	Over
	#	s	V	A	V	W	V	V	deg C	#	bits
	0	0.013333	2.71580E-001	1.00943E-004	0.00000E+000	2.74140E-005	5.99601E-002	2.71665E-001	3.57690E+000	9	...........
	1	0.026667	2.93803E-001	1.01160E-004	0.00000E+000	2.97210E-005	5.99601E-002	2.93864E-001	3.57690E+000	9	...........
	2	0.04	3.14889E-001	1.01161E-004	0.00000E+000	3.18543E-005	5.99601E-002	3.14955E-001	3.57690E+000	9	...........
	3	0.053333	3.35122E-001	1.01468E-004	0.00000E+000	3.40041E-005	5.99601E-002	3.35195E-001	3.57690E+000	9	...........
	4	0.066667	3.54664E-001	1.01063E-004	0.00000E+000	3.58433E-005	5.99601E-002	3.54740E-001	3.57690E+000	9	...........
	5	0.08	3.73617E-001	1.00679E-004	0.00000E+000	3.76155E-005	5.99601E-002	3.73689E-001	3.57690E+000	9	...........
	6	0.093333	3.92053E-001	1.01052E-004	0.00000E+000	3.96179E-005	5.99601E-002	3.92130E-001	3.57690E+000	9	...........
	7	0.106667	4.10017E-001	1.02020E-004	0.00000E+000	4.18300E-005	5.99601E-002	4.10097E-001	3.57690E+000	9	...........
	8	0.12	4.27553E-001	1.01186E-004	0.00000E+000	4.32622E-005	5.99601E-002	4.27636E-001	3.57690E+000	9	...........
	9	0.133333	4.44681E-001	1.01852E-004	0.00000E+000	4.52918E-005	5.99601E-002	4.44770E-001	3.57690E+000	9	...........
	10	0.146667	4.61427E-001	1.00654E-004	0.00000E+000	4.64446E-005	5.99601E-002	4.61526E-001	3.57690E+000	9	...........
	11	0.16	4.77806E-001	1.01130E-004	0.00000E+000	4.83207E-005	5.99601E-002	4.77900E-001	3.57690E+000	9	...........
	12	0.173333	4.93821E-001	1.01231E-004	0.00000E+000	4.99902E-005	5.99601E-002	4.93918E-001	3.57690E+000	9	...........
	13	0.186667	5.09493E-001	1.01328E-004	0.00000E+000	5.16260E-005	5.99601E-002	5.09601E-001	3.57690E+000	9	...........
	14	0.2	5.24833E-001	1.00870E-004	0.00000E+000	5.29399E-005	5.99601E-002	5.24948E-001	3.57690E+000	9	...........
	15	0.213333	5.39569E-001	1.01105E-004	0.00000E+000	5.45533E-005	5.99601E-002	5.39791E-001	3.57690E+000	9	...........
	16	0.226667	5.54226E-001	1.02111E-004	0.00000E+000	5.65925E-005	5.99601E-002	5.54462E-001	3.57690E+000	9	...........
	17	0.24	5.68623E-001	1.01293E-004	0.00000E+000	5.75975E-005	5.99601E-002	5.68873E-001	3.57690E+000	9	...........
	18	0.253333	5.82689E-001	1.00759E-004	0.00000E+000	5.87115E-005	5.99601E-002	5.82928E-001	3.57690E+000	9	...........
	19	0.266667	5.96472E-001	1.00717E-004	0.00000E+000	6.00747E-005	5.99601E-002	5.96735E-001	3.57690E+000	9	...........
	20	0.28	6.09931E-001	1.01264E-004	0.00000E+000	6.17639E-005	5.99601E-002	6.10188E-001	3.57690E+000	9	...........
	21	0.293333	6.23143E-001	1.00452E-004	0.00000E+000	6.25960E-005	5.99601E-002	6.23393E-001	3.57690E+000	9	...........
	22	0.306667	6.36021E-001	1.01368E-004	0.00000E+000	6.44722E-005	5.99601E-002	6.36263E-001	3.57690E+000	9	...........
	23	0.32	6.48622E-001	1.01601E-004	0.00000E+000	6.59009E-005	5.99601E-002	6.48877E-001	3.57690E+000	9	...........
	24	0.333333	6.60916E-001	1.01341E-004	0.00000E+000	6.69777E-005	5.99601E-002	6.61172E-001	3.57690E+000	9	...........
	25	0.346667	6.72935E-001	1.00444E-004	0.00000E+000	6.75921E-005	5.99601E-002	6.73194E-001	3.57690E+000	9	...........
	26	0.36	6.84649E-001	1.00957E-004	0.00000E+000	6.91204E-005	5.99601E-002	6.84904E-001	3.57690E+000	9	...........
	27	0.373333	6.96126E-001	1.02049E-004	0.00000E+000	7.10392E-005	5.99601E-002	6.96388E-001	3.57690E+000	9	...........
	28	0.386667	7.07268E-001	1.01200E-004	0.00000E+000	7.15756E-005	5.99601E-002	7.07533E-001	3.57690E+000	9	...........
	29	0.4	7.18183E-001	1.00937E-004	0.00000E+000	7.24909E-005	5.99601E-002	7.18446E-001	3.57690E+000	9	...........
	30	0.413333	7.28812E-001	1.01570E-004	0.00000E+000	7.40255E-005	5.99601E-002	7.29086E-001	3.57690E+000	9	...........
	31	0.426667	7.39153E-001	1.00807E-004	0.00000E+000	7.45121E-005	5.99601E-002	7.39405E-001	3.57690E+000	9	...........
	32	0.44	7.49245E-001	1.00541E-004	0.00000E+000	7.53295E-005	5.99601E-002	7.49496E-001	3.57690E+000	9	...........
	33	0.453333	7.59082E-001	1.00407E-004	0.00000E+000	7.62174E-005	5.99601E-002	7.59329E-001	3.57690E+000	9	...........
	34	0.466667	7.68617E-001	1.00628E-004	0.00000E+000	7.73445E-005	5.99601E-002	7.68910E-001	3.57690E+000	9	...........
	35	0.48	7.77921E-001	1.00897E-004	0.00000E+000	7.84899E-005	5.99601E-002	7.78206E-001	3.57690E+000	9	...........
	36	0.493333	7.86956E-001	1.00884E-004	0.00000E+000	7.93917E-005	5.99601E-002	7.87225E-001	3.57690E+000	9	...........
	37	0.506667	7.95754E-001	1.02255E-004	0.00000E+000	8.13695E-005	5.99601E-002	7.96025E-001	3.57690E+000	9	...........
	38	0.52	8.04279E-001	1.01472E-004	0.00000E+000	8.16119E-005	5.99601E-002	8.04562E-001	3.57690E+000	9	...........
	39	0.533333	8.12563E-001	1.01282E-004	0.00000E+000	8.22984E-005	5.99601E-002	8.12848E-001	3.57690E+000	9	...........
	40	0.546667	8.20607E-001	1.03329E-004	0.00000E+000	8.47923E-005	5.99601E-002	8.20913E-001	3.57690E+000	9	...........
	41	0.56	8.28414E-001	1.02443E-004	0.00000E+000	8.48653E-005	5.99601E-002	8.28703E-001	3.57690E+000	9	...........
	42	0.573333	8.35943E-001	9.96321E-005	0.00000E+000	8.32868E-005	5.99601E-002	8.36262E-001	3.57690E+000	9	...........
	43	0.586667	8.43298E-001	1.01591E-004	0.00000E+000	8.56714E-005	5.99601E-002	8.43632E-001	3.57690E+000	9	...........
	44	0.6	8.50408E-001	9.96519E-005	0.00000E+000	8.47448E-005	5.99601E-002	8.50737E-001	3.57690E+000	9	...........
	45	0.613333	8.57305E-001	1.01065E-004	0.00000E+000	8.66433E-005	5.99601E-002	8.57623E-001	3.57690E+000	9	...........
	46	0.626667	8.63962E-001	1.01393E-004	0.00000E+000	8.75996E-005	5.99601E-002	8.64309E-001	3.57690E+000	9	...........
	47	0.64	8.70424E-001	1.01818E-004	0.00000E+000	8.86249E-005	5.99601E-002	8.70767E-001	3.57690E+000	9	...........
	48	0.653333	8.76708E-001	1.01236E-004	0.00000E+000	8.87541E-005	5.99601E-002	8.77048E-001	3.57690E+000	9	...........
	49	0.666667	8.82798E-001	1.02148E-004	0.00000E+000	9.01763E-005	5.99601E-002	8.83122E-001	3.57690E+000	9	...........
	50	0.68	8.88690E-001	9.99645E-005	0.00000E+000	8.88374E-005	5.99601E-002	8.89022E-001	3.57690E+000	9	...........
	51	0.693333	8.94450E-001	1.01365E-004	0.00000E+000	9.06657E-005	5.99601E-002	8.94792E-001	3.57690E+000	9	...........
	52	0.706667	9.00027E-001	1.00174E-004	0.00000E+000	9.01592E-005	5.99601E-002	9.00378E-001	3.57690E+000	9	...........
	53	0.72	9.05482E-001	1.01380E-004	0.00000E+000	9.17982E-005	5.99601E-002	9.05827E-001	3.57690E+000	9	...........
	54	0.733333	9.10812E-001	1.00041E-004	0.00000E+000	9.11181E-005	5.99601E-002	9.11133E-001	3.57690E+000	9	...........
	55	0.746667	9.15990E-001	1.01057E-004	0.00000E+000	9.25676E-005	5.99601E-002	9.16332E-001	3.57690E+000	9	...........
	56	0.76	9.21109E-001	1.01583E-004	0.00000E+000	9.35686E-005	5.99601E-002	9.21413E-001	3.57690E+000	9	...........
	57	0.773333	9.26104E-001	1.01166E-004	0.00000E+000	9.36900E-005	5.99601E-002	9.26389E-001	3.57690E+000	9	...........
	58	0.786667	9.30957E-001	1.01797E-004	0.00000E+000	9.47688E-005	5.99601E-002	9.31255E-001	3.57690E+000	9	...........
	59	0.8	9.35754E-001	1.01416E-004	0.00000E+000	9.49002E-005	5.99601E-002	9.36039E-001	3.57690E+000	9	...........
	60	0.813333	9.40417E-001	1.01749E-004	0.00000E+000	9.56867E-005	5.99601E-002	9.40725E-001	3.57690E+000	9	...........
	61	0.826667	9.45031E-001	1.01597E-004	0.00000E+000	9.60124E-005	5.99601E-002	9.45325E-001	3.57780E+000	9	...........
	62	0.84	9.49574E-001	1.00126E-004	0.00000E+000	9.50770E-005	5.99601E-002	9.49861E-001	3.57810E+000	9	...........
	63	0.853333	9.54019E-001	1.01563E-004	0.00000E+000	9.68928E-005	5.99601E-002	9.54314E-001	3.57810E+000	9	...........
	64	0.866667	9.58372E-001	1.01839E-004	0.00000E+000	9.75995E-005	5.99601E-002	9.58684E-001	3.57810E+000	9	...........
	65	0.88	9.62641E-001	1.01342E-004	0.00000E+000	9.75558E-005	5.99601E-002	9.62988E-001	3.57810E+000	9	...........
	66	0.893333	9.66874E-001	1.01537E-004	0.00000E+000	9.81732E-005	5.99601E-002	9.67213E-001	3.57810E+000	9	...........
	67	0.906667	9.70997E-001	1.00047E-004	0.00000E+000	9.71451E-005	5.99601E-002	9.71376E-001	3.57810E+000	9	...........
	68	0.92	9.75093E-001	1.00669E-004	0.00000E+000	9.81615E-005	5.99601E-002	9.75443E-001	3.57810E+000	9	...........
	69	0.933333	9.79060E-001	1.00797E-004	0.00000E+000	9.86862E-005	5.99601E-002	9.79416E-001	3.57810E+000	9	...........
	70	0.946667	9.82970E-001	9.98926E-005	0.00000E+000	9.81914E-005	5.99601E-002	9.83306E-001	3.57810E+000	9	...........
	71	0.96	9.86812E-001	1.01141E-004	0.00000E+000	9.98070E-005	5.99601E-002	9.87131E-001	3.57810E+000	9	...........
	72	0.97333	9.90550E-001	1.01875E-004	0.00000E+000	1.00913E-004	5.99601E-002	9.90889E-001	3.57810E+000	9	...........
	73	0.98667	9.94196E-001	1.01462E-004	0.00000E+000	1.00873E-004	5.99601E-002	9.94534E-001	3.57810E+000	9	...........
	74	1	9.97809E-001	1.01354E-004	0.00000E+000	1.01132E-004	5.99601E-002	9.98141E-001	3.57810E+000	9	...........
	75	1.00333	9.99991E-001	9.92477E-005	0.00000E+000	9.92468E-005	5.99601E-002	1.00033E+000	3.57810E+000	9	...........
STARTTIMEOFFSET	QUANT	969.39	Start Time Offset (s)
