EXPLAIN
TAG	PWR800_CHARGE
TITLE	LABEL	PWR Cyclic Charge Discharge (Cell) - Charge Step	Test &Identifier
DATE	LABEL	12-7-2017	Date
TIME	LABEL	16:31:15	Time
NOTES	NOTES	2	&Notes...
	supercap test cell
	6M KOH
PSTAT	PSTAT	IFC5000-01520	Potentiostat
CAPACITY	QUANT	1.00000E-003	Capacity (A-hr)
CELLTYPE	SELECTOR	1	&Cell Type
WORKINGCONNECTION	SELECTOR	0	&Working Lead
MAXCHARGETIME	VARIABLEANDUNITS	1.00000E+002	s	1.00000E+002	second(s)	Max &Charge Time
CHARGECURRENT	QUANT	1.00000E-004	&Charge Current (A) 
VOLTAGEFINISH	TWOPARAM	F	1.00000E-003	3.60000E+003	&Voltage Finish	 I (A) < 	Max Time(s)
SAMPLETIME	QUANT	1.00000E-002	Sa&mple Period (s)
CHARGESTOPAT1	MULTIPARAM	4	1.00000E+000	Charge Stop At &1	Voltage > Limit	V
CHARGESTOPAT2	MULTIPARAM	0	0.00000E+000	Charge Stop At &2	None	N/A
AESBHCSELECTOR	TOGGLE	F	Save Both Half Cells
IRCOMP	TOGGLE	F	IR &Measure
EOC	QUANT	0	Open Circuit (V)
SEQUENCER	TOGGLE	TRUE	Run as Sequence
PSTATMODEL	IQUANT	53	Pstat Model
PSTATSECTION	LABEL	IFC5000-01520	Pstat Section
PSTATSERIALNO	LABEL	01520	Pstat Serial Number
CTRLMODE	IQUANT	0	Control Mode
ELECTROMETER	IQUANT	1	RE=0 or CS=1
IESTAB	IQUANT	0	I/E Stability
CASPEED	IQUANT	4	Control Amp Speed
CONVENTION	IQUANT	1	Current Convention
ICHRANGE	IQUANT	2	Ich Range
ICHRANGEMODE	TOGGLE	T	Ich Auto Range
ICHOFFSETENABLE	TOGGLE	F	Ich Offset Enable
ICHOFFSET	QUANT	0	Ich Offset (V)
ICHFILTER	IQUANT	1	Ich Filter
VCHRANGE	IQUANT	2	Vch Range
VCHRANGEMODE	TOGGLE	T	Vch Auto Range
VCHOFFSETENABLE	TOGGLE	F	Vch Offset Enable
VCHOFFSET	QUANT	0	Vch Offset (V)
VCHFILTER	IQUANT	1	Vch Filter
IERANGELOWERLIMIT	IQUANT	9	I/E Range Lower Limit
IERANGEMODE	TOGGLE	F	I/E AutoRange
IERANGE	IQUANT	9	I/E Range
ACHSELECT	IQUANT	1	Ach Select
ACHRANGE	IQUANT	2	Ach Range
ACHOFFSETENABLE	TOGGLE	F	Ach Offset Enable
ACHOFFSET	QUANT	0	Ach Offset (V)
ACHFILTER	IQUANT	1	Ach Filter
CABLEID	IQUANT	14	Cable ID
DCCALDATE	LABEL	5-7-2017	DC Calibration Date
ACCALDATE	LABEL	12/3/2015	AC Calibration Date
FRAMEWORKVERSION	QUANT	7.01	Framework Version
INSTRUMENTVERSION	LABEL	4.00	Instrument Version
CURVE	TABLE	76
	Pt	T	Vf	Im	Vu	Pwr	Sig	Ach	Temp	IERange	Over
	#	s	V	A	V	W	V	V	deg C	#	bits
	0	0.013333	2.58097E-001	1.00320E-004	0.00000E+000	2.58922E-005	5.99601E-002	2.58183E-001	3.57690E+000	9	...........
	1	0.026667	2.81021E-001	1.00771E-004	0.00000E+000	2.83188E-005	5.99601E-002	2.81084E-001	3.57690E+000	9	...........
	2	0.04	3.02613E-001	1.01543E-004	0.00000E+000	3.07282E-005	5.99601E-002	3.02673E-001	3.57690E+000	9	...........
	3	0.053333	3.23231E-001	1.00451E-004	0.00000E+000	3.24689E-005	5.99601E-002	3.23298E-001	3.57690E+000	9	...........
	4	0.066667	3.43089E-001	1.00516E-004	0.00000E+000	3.44858E-005	5.99601E-002	3.43155E-001	3.57690E+000	9	...........
	5	0.08	3.62309E-001	1.01133E-004	0.00000E+000	3.66416E-005	5.99601E-002	3.62384E-001	3.57690E+000	9	...........
	6	0.093333	3.80974E-001	1.01040E-004	0.00000E+000	3.84936E-005	5.99601E-002	3.81055E-001	3.57690E+000	9	...........
	7	0.106667	3.99152E-001	1.01269E-004	0.00000E+000	4.04217E-005	5.99601E-002	3.99232E-001	3.57690E+000	9	...........
	8	0.12	4.16877E-001	1.01666E-004	0.00000E+000	4.23821E-005	5.99601E-002	4.16966E-001	3.57690E+000	9	...........
	9	0.133333	4.34177E-001	1.01253E-004	0.00000E+000	4.39619E-005	5.99601E-002	4.34274E-001	3.57690E+000	9	...........
	10	0.146667	4.51085E-001	1.01303E-004	0.00000E+000	4.56964E-005	5.99601E-002	4.51182E-001	3.57690E+000	9	...........
	11	0.16	4.67623E-001	1.02100E-004	0.00000E+000	4.77445E-005	5.99601E-002	4.67728E-001	3.57690E+000	9	...........
	12	0.173333	4.83793E-001	1.00043E-004	0.00000E+000	4.83999E-005	5.99601E-002	4.83902E-001	3.57690E+000	9	...........
	13	0.186667	4.99610E-001	1.01419E-004	0.00000E+000	5.06700E-005	5.99601E-002	4.99733E-001	3.57690E+000	9	...........
	14	0.2	5.15105E-001	1.00954E-004	0.00000E+000	5.20021E-005	5.99601E-002	5.15224E-001	3.57690E+000	9	...........
	15	0.213333	5.30183E-001	9.96926E-005	0.00000E+000	5.28553E-005	5.99601E-002	5.30343E-001	3.57690E+000	9	...........
	16	0.226667	5.44795E-001	1.00763E-004	0.00000E+000	5.48950E-005	5.99601E-002	5.45061E-001	3.57690E+000	9	...........
	17	0.24	5.59336E-001	1.00962E-004	0.00000E+000	5.64714E-005	5.99601E-002	5.59585E-001	3.57690E+000	9	...........
	18	0.253333	5.73548E-001	1.00477E-004	0.00000E+000	5.76285E-005	5.99601E-002	5.73805E-001	3.57742E+000	9	...........
	19	0.266667	5.87472E-001	1.02123E-004	0.00000E+000	5.99946E-005	5.99601E-002	5.87722E-001	3.57750E+000	9	...........
	20	0.28	6.01092E-001	1.00682E-004	0.00000E+000	6.05194E-005	5.99601E-002	6.01357E-001	3.57750E+000	9	...........
	21	0.293333	6.14422E-001	1.01274E-004	0.00000E+000	6.22251E-005	5.99601E-002	6.14661E-001	3.57750E+000	9	...........
	22	0.306667	6.27452E-001	1.01232E-004	0.00000E+000	6.35185E-005	5.99601E-002	6.27686E-001	3.57750E+000	9	...........
	23	0.32	6.40223E-001	1.01030E-004	0.00000E+000	6.46820E-005	5.99601E-002	6.40436E-001	3.57750E+000	9	...........
	24	0.333333	6.52670E-001	1.00358E-004	0.00000E+000	6.55009E-005	5.99601E-002	6.52934E-001	3.57750E+000	9	...........
	25	0.346667	6.64872E-001	1.01178E-004	0.00000E+000	6.72706E-005	5.99601E-002	6.65115E-001	3.57750E+000	9	...........
	26	0.36	6.76765E-001	1.02102E-004	0.00000E+000	6.90994E-005	5.99601E-002	6.77017E-001	3.57750E+000	9	...........
	27	0.373333	6.88372E-001	1.00692E-004	0.00000E+000	6.93134E-005	5.99601E-002	6.88612E-001	3.57750E+000	9	...........
	28	0.386667	6.99715E-001	9.99072E-005	0.00000E+000	6.99066E-005	5.99601E-002	6.99938E-001	3.57750E+000	9	...........
	29	0.4	7.10770E-001	1.01747E-004	0.00000E+000	7.23189E-005	5.99601E-002	7.11011E-001	3.57750E+000	9	...........
	30	0.413333	7.21589E-001	1.02699E-004	0.00000E+000	7.41068E-005	5.99601E-002	7.21808E-001	3.57750E+000	9	...........
	31	0.426667	7.32081E-001	1.00138E-004	0.00000E+000	7.33095E-005	5.99601E-002	7.32330E-001	3.57750E+000	9	...........
	32	0.44	7.42352E-001	9.99624E-005	0.00000E+000	7.42073E-005	5.99601E-002	7.42605E-001	3.57750E+000	9	...........
	33	0.453333	7.52334E-001	1.00863E-004	0.00000E+000	7.58824E-005	5.99601E-002	7.52599E-001	3.57750E+000	9	...........
	34	0.466667	7.62084E-001	1.01668E-004	0.00000E+000	7.74796E-005	5.99601E-002	7.62340E-001	3.57750E+000	9	...........
	35	0.48	7.71568E-001	1.01259E-004	0.00000E+000	7.81278E-005	5.99601E-002	7.71807E-001	3.57750E+000	9	...........
	36	0.493333	7.80781E-001	1.01354E-004	0.00000E+000	7.91356E-005	5.99601E-002	7.81027E-001	3.57750E+000	9	...........
	37	0.506667	7.89736E-001	1.00205E-004	0.00000E+000	7.91356E-005	5.99601E-002	7.90007E-001	3.57750E+000	9	...........
	38	0.52	7.98489E-001	1.00194E-004	0.00000E+000	8.00036E-005	5.99601E-002	7.98723E-001	3.57750E+000	9	...........
	39	0.533333	8.06925E-001	1.00951E-004	0.00000E+000	8.14600E-005	5.99601E-002	8.07178E-001	3.57750E+000	9	...........
	40	0.546667	8.15140E-001	1.01234E-004	0.00000E+000	8.25195E-005	5.99601E-002	8.15395E-001	3.57750E+000	9	...........
	41	0.56	8.23154E-001	1.02489E-004	0.00000E+000	8.43643E-005	5.99601E-002	8.23393E-001	3.57750E+000	9	...........
	42	0.573333	8.30877E-001	1.00828E-004	0.00000E+000	8.37759E-005	5.99601E-002	8.31132E-001	3.57750E+000	9	...........
	43	0.586667	8.38365E-001	1.01080E-004	0.00000E+000	8.47422E-005	5.99601E-002	8.38632E-001	3.57750E+000	9	...........
	44	0.6	8.45659E-001	1.01265E-004	0.00000E+000	8.56355E-005	5.99601E-002	8.45941E-001	3.57750E+000	9	...........
	45	0.613333	8.52713E-001	1.02354E-004	0.00000E+000	8.72782E-005	5.99601E-002	8.52984E-001	3.57750E+000	9	...........
	46	0.626667	8.59529E-001	1.00132E-004	0.00000E+000	8.60666E-005	5.99601E-002	8.59817E-001	3.57750E+000	9	...........
	47	0.64	8.66143E-001	1.00179E-004	0.00000E+000	8.67694E-005	5.99601E-002	8.66449E-001	3.57750E+000	9	...........
	48	0.653333	8.72591E-001	1.01002E-004	0.00000E+000	8.81337E-005	5.99601E-002	8.72893E-001	3.57750E+000	9	...........
	49	0.666667	8.78789E-001	1.02014E-004	0.00000E+000	8.96487E-005	5.99601E-002	8.79093E-001	3.57750E+000	9	...........
	50	0.68	8.84845E-001	1.00678E-004	0.00000E+000	8.90846E-005	5.99601E-002	8.85157E-001	3.57750E+000	9	...........
	51	0.693333	8.90701E-001	1.03235E-004	0.00000E+000	9.19515E-005	5.99601E-002	8.91015E-001	3.57750E+000	9	...........
	52	0.706667	8.96429E-001	1.00603E-004	0.00000E+000	9.01836E-005	5.99601E-002	8.96739E-001	3.57750E+000	9	...........
	53	0.72	9.01956E-001	1.00463E-004	0.00000E+000	9.06128E-005	5.99601E-002	9.02260E-001	3.57750E+000	9	...........
	54	0.733333	9.07351E-001	1.00127E-004	0.00000E+000	9.08503E-005	5.99601E-002	9.07689E-001	3.57750E+000	9	...........
	55	0.746667	9.12620E-001	1.00428E-004	0.00000E+000	9.16527E-005	5.99601E-002	9.12954E-001	3.57750E+000	9	...........
	56	0.76	9.17782E-001	1.00386E-004	0.00000E+000	9.21329E-005	5.99601E-002	9.18115E-001	3.57750E+000	9	...........
	57	0.773333	9.22886E-001	1.01171E-004	0.00000E+000	9.33693E-005	5.99601E-002	9.23162E-001	3.57750E+000	9	...........
	58	0.786667	9.27794E-001	1.01312E-004	0.00000E+000	9.39964E-005	5.99601E-002	9.28088E-001	3.57750E+000	9	...........
	59	0.8	9.32617E-001	1.00440E-004	0.00000E+000	9.36717E-005	5.99601E-002	9.32930E-001	3.57750E+000	9	...........
	60	0.813333	9.37344E-001	1.00579E-004	0.00000E+000	9.42773E-005	5.99601E-002	9.37693E-001	3.57750E+000	9	...........
	61	0.826667	9.41980E-001	1.01219E-004	0.00000E+000	9.53462E-005	5.99601E-002	9.42290E-001	3.57750E+000	9	...........
	62	0.84	9.46558E-001	1.01439E-004	0.00000E+000	9.60176E-005	5.99601E-002	9.46883E-001	3.57750E+000	9	...........
	63	0.853333	9.51063E-001	1.00597E-004	0.00000E+000	9.56740E-005	5.99601E-002	9.51385E-001	3.57750E+000	9	...........
	64	0.866667	9.55481E-001	1.02550E-004	0.00000E+000	9.79850E-005	5.99601E-002	9.55785E-001	3.57750E+000	9	...........
	65	0.88	9.59792E-001	1.00496E-004	0.00000E+000	9.64552E-005	5.99601E-002	9.60133E-001	3.57750E+000	9	...........
	66	0.893333	9.64023E-001	1.01673E-004	0.00000E+000	9.80153E-005	5.99601E-002	9.64391E-001	3.57750E+000	9	...........
	67	0.906667	9.68194E-001	1.01691E-004	0.00000E+000	9.84565E-005	5.99601E-002	9.68551E-001	3.57750E+000	9	...........
	68	0.92	9.72317E-001	1.01944E-004	0.00000E+000	9.91220E-005	5.99601E-002	9.72674E-001	3.57750E+000	9	...........
	69	0.933333	9.76355E-001	1.00733E-004	0.00000E+000	9.83515E-005	5.99601E-002	9.76699E-001	3.57750E+000	9	...........
	70	0.946667	9.80287E-001	1.00497E-004	0.00000E+000	9.85159E-005	5.99601E-002	9.80621E-001	3.57750E+000	9	...........
	71	0.96	9.84139E-001	9.98739E-005	0.00000E+000	9.82898E-005	5.99601E-002	9.84485E-001	3.57750E+000	9	...........
	72	0.97333	9.87924E-001	1.01395E-004	0.00000E+000	1.00171E-004	5.99601E-002	9.88291E-001	3.57750E+000	9	...........
	73	0.98667	9.91610E-001	1.00693E-004	0.00000E+000	9.98480E-005	5.99601E-002	9.91986E-001	3.57750E+000	9	...........
	74	1	9.95223E-001	1.01525E-004	0.00000E+000	1.01040E-004	5.99601E-002	9.95602E-001	3.57750E+000	9	...........
	75	1.01333	9.98778E-001	1.01697E-004	0.00000E+000	1.01573E-004	5.99601E-002	9.99157E-001	3.57750E+000	9	...........
STARTTIMEOFFSET	QUANT	906.8953	Start Time Offset (s)
