EXPLAIN
TAG	PWR800_CHARGE
TITLE	LABEL	PWR Cyclic Charge Discharge (Cell) - Charge Step	Test &Identifier
DATE	LABEL	12-7-2017	Date
TIME	LABEL	16:14:31	Time
NOTES	NOTES	2	&Notes...
	supercap test cell
	6M KOH
PSTAT	PSTAT	IFC5000-01520	Potentiostat
CAPACITY	QUANT	1.00000E-003	Capacity (A-hr)
CELLTYPE	SELECTOR	1	&Cell Type
WORKINGCONNECTION	SELECTOR	0	&Working Lead
MAXCHARGETIME	VARIABLEANDUNITS	1.00000E+002	s	1.00000E+002	second(s)	Max &Charge Time
CHARGECURRENT	QUANT	1.00000E-004	&Charge Current (A) 
VOLTAGEFINISH	TWOPARAM	F	1.00000E-003	3.60000E+003	&Voltage Finish	 I (A) < 	Max Time(s)
SAMPLETIME	QUANT	1.00000E-002	Sa&mple Period (s)
CHARGESTOPAT1	MULTIPARAM	4	1.00000E+000	Charge Stop At &1	Voltage > Limit	V
CHARGESTOPAT2	MULTIPARAM	0	0.00000E+000	Charge Stop At &2	None	N/A
AESBHCSELECTOR	TOGGLE	F	Save Both Half Cells
IRCOMP	TOGGLE	F	IR &Measure
EOC	QUANT	0	Open Circuit (V)
SEQUENCER	TOGGLE	TRUE	Run as Sequence
PSTATMODEL	IQUANT	53	Pstat Model
PSTATSECTION	LABEL	IFC5000-01520	Pstat Section
PSTATSERIALNO	LABEL	01520	Pstat Serial Number
CTRLMODE	IQUANT	0	Control Mode
ELECTROMETER	IQUANT	1	RE=0 or CS=1
IESTAB	IQUANT	0	I/E Stability
CASPEED	IQUANT	4	Control Amp Speed
CONVENTION	IQUANT	1	Current Convention
ICHRANGE	IQUANT	2	Ich Range
ICHRANGEMODE	TOGGLE	T	Ich Auto Range
ICHOFFSETENABLE	TOGGLE	F	Ich Offset Enable
ICHOFFSET	QUANT	0	Ich Offset (V)
ICHFILTER	IQUANT	1	Ich Filter
VCHRANGE	IQUANT	2	Vch Range
VCHRANGEMODE	TOGGLE	T	Vch Auto Range
VCHOFFSETENABLE	TOGGLE	F	Vch Offset Enable
VCHOFFSET	QUANT	0	Vch Offset (V)
VCHFILTER	IQUANT	1	Vch Filter
IERANGELOWERLIMIT	IQUANT	9	I/E Range Lower Limit
IERANGEMODE	TOGGLE	F	I/E AutoRange
IERANGE	IQUANT	9	I/E Range
ACHSELECT	IQUANT	1	Ach Select
ACHRANGE	IQUANT	2	Ach Range
ACHOFFSETENABLE	TOGGLE	F	Ach Offset Enable
ACHOFFSET	QUANT	0	Ach Offset (V)
ACHFILTER	IQUANT	1	Ach Filter
CABLEID	IQUANT	14	Cable ID
DCCALDATE	LABEL	5-7-2017	DC Calibration Date
ACCALDATE	LABEL	12/3/2015	AC Calibration Date
FRAMEWORKVERSION	QUANT	7.01	Framework Version
INSTRUMENTVERSION	LABEL	4.00	Instrument Version
CURVE	TABLE	81
	Pt	T	Vf	Im	Vu	Pwr	Sig	Ach	Temp	IERange	Over
	#	s	V	A	V	W	V	V	deg C	#	bits
	0	0.013333	2.59268E-001	1.01184E-004	0.00000E+000	2.62336E-005	5.99601E-002	2.59343E-001	3.57870E+000	9	...........
	1	0.026667	2.82023E-001	1.00628E-004	0.00000E+000	2.83794E-005	5.99601E-002	2.82084E-001	3.57870E+000	9	...........
	2	0.04	3.03176E-001	1.00233E-004	0.00000E+000	3.03884E-005	5.99601E-002	3.03238E-001	3.57870E+000	9	...........
	3	0.053333	3.23121E-001	1.01063E-004	0.00000E+000	3.26555E-005	5.99601E-002	3.23187E-001	3.57870E+000	9	...........
	4	0.066667	3.42061E-001	1.00989E-004	0.00000E+000	3.45443E-005	5.99601E-002	3.42125E-001	3.57870E+000	9	...........
	5	0.08	3.60158E-001	1.00505E-004	0.00000E+000	3.61978E-005	5.99601E-002	3.60226E-001	3.57870E+000	9	...........
	6	0.093333	3.77526E-001	1.01320E-004	0.00000E+000	3.82510E-005	5.99601E-002	3.77601E-001	3.57870E+000	9	...........
	7	0.106667	3.94281E-001	1.01500E-004	0.00000E+000	4.00196E-005	5.99601E-002	3.94355E-001	3.57870E+000	9	...........
	8	0.12	4.10476E-001	1.00793E-004	0.00000E+000	4.13730E-005	5.99601E-002	4.10561E-001	3.57870E+000	9	...........
	9	0.133333	4.26184E-001	1.00769E-004	0.00000E+000	4.29461E-005	5.99601E-002	4.26277E-001	3.57870E+000	9	...........
	10	0.146667	4.41449E-001	1.00543E-004	0.00000E+000	4.43845E-005	5.99601E-002	4.41548E-001	3.57870E+000	9	...........
	11	0.16	4.56329E-001	1.00247E-004	0.00000E+000	4.57456E-005	5.99601E-002	4.56430E-001	3.57870E+000	9	...........
	12	0.173333	4.70847E-001	1.01321E-004	0.00000E+000	4.77067E-005	5.99601E-002	4.70950E-001	3.57870E+000	9	...........
	13	0.186667	4.85035E-001	1.00840E-004	0.00000E+000	4.89108E-005	5.99601E-002	4.85147E-001	3.57870E+000	9	...........
	14	0.2	4.98927E-001	1.01149E-004	0.00000E+000	5.04660E-005	5.99601E-002	4.99037E-001	3.57870E+000	9	...........
	15	0.213333	5.12531E-001	1.00407E-004	0.00000E+000	5.14619E-005	5.99601E-002	5.12642E-001	3.57870E+000	9	...........
	16	0.226667	5.25859E-001	1.00480E-004	0.00000E+000	5.28384E-005	5.99601E-002	5.25974E-001	3.57870E+000	9	...........
	17	0.24	5.38661E-001	1.01058E-004	0.00000E+000	5.44362E-005	5.99601E-002	5.38886E-001	3.57870E+000	9	...........
	18	0.253333	5.51463E-001	1.01273E-004	0.00000E+000	5.58483E-005	5.99601E-002	5.51694E-001	3.57870E+000	9	...........
	19	0.266667	5.64091E-001	1.01736E-004	0.00000E+000	5.73882E-005	5.99601E-002	5.64341E-001	3.57870E+000	9	...........
	20	0.28	5.76481E-001	1.00107E-004	0.00000E+000	5.77099E-005	5.99601E-002	5.76730E-001	3.57870E+000	9	...........
	21	0.293333	5.88660E-001	1.00582E-004	0.00000E+000	5.92088E-005	5.99601E-002	5.88925E-001	3.57870E+000	9	...........
	22	0.306667	6.00631E-001	1.00075E-004	0.00000E+000	6.01081E-005	5.99601E-002	6.00900E-001	3.57870E+000	9	...........
	23	0.32	6.12394E-001	1.01125E-004	0.00000E+000	6.19284E-005	5.99601E-002	6.12692E-001	3.57870E+000	9	...........
	24	0.333333	6.24036E-001	1.00510E-004	0.00000E+000	6.27221E-005	5.99601E-002	6.24268E-001	3.57870E+000	9	...........
	25	0.346667	6.35400E-001	1.00195E-004	0.00000E+000	6.36637E-005	5.99601E-002	6.35677E-001	3.57870E+000	9	...........
	26	0.36	6.46640E-001	1.00956E-004	0.00000E+000	6.52825E-005	5.99601E-002	6.46892E-001	3.57870E+000	9	...........
	27	0.373333	6.57656E-001	1.01077E-004	0.00000E+000	6.64740E-005	5.99601E-002	6.57878E-001	3.57870E+000	9	...........
	28	0.386667	6.68502E-001	1.01573E-004	0.00000E+000	6.79019E-005	5.99601E-002	6.68755E-001	3.57870E+000	9	...........
	29	0.4	6.79160E-001	1.01270E-004	0.00000E+000	6.87785E-005	5.99601E-002	6.79395E-001	3.57870E+000	9	...........
	30	0.413333	6.89640E-001	1.01469E-004	0.00000E+000	6.99771E-005	5.99601E-002	6.89888E-001	3.57870E+000	9	...........
	31	0.426667	6.99953E-001	1.00685E-004	0.00000E+000	7.04751E-005	5.99601E-002	7.00193E-001	3.57870E+000	9	...........
	32	0.44	7.10055E-001	1.01540E-004	0.00000E+000	7.20989E-005	5.99601E-002	7.10305E-001	3.57870E+000	9	...........
	33	0.453333	7.20030E-001	1.01730E-004	0.00000E+000	7.32490E-005	5.99601E-002	7.20291E-001	3.57870E+000	9	...........
	34	0.466667	7.29802E-001	1.00699E-004	0.00000E+000	7.34904E-005	5.99601E-002	7.30054E-001	3.57870E+000	9	...........
	35	0.48	7.39376E-001	1.00916E-004	0.00000E+000	7.46147E-005	5.99601E-002	7.39651E-001	3.57870E+000	9	...........
	36	0.493333	7.48811E-001	1.01494E-004	0.00000E+000	7.59998E-005	5.99601E-002	7.49080E-001	3.57870E+000	9	...........
	37	0.506667	7.58048E-001	1.00821E-004	0.00000E+000	7.64271E-005	5.99601E-002	7.58291E-001	3.57870E+000	9	...........
	38	0.52	7.67104E-001	1.00165E-004	0.00000E+000	7.68366E-005	5.99601E-002	7.67370E-001	3.57870E+000	9	...........
	39	0.533333	7.75959E-001	1.00666E-004	0.00000E+000	7.81125E-005	5.99601E-002	7.76241E-001	3.57870E+000	9	...........
	40	0.546667	7.84659E-001	1.00303E-004	0.00000E+000	7.87037E-005	5.99601E-002	7.84945E-001	3.57870E+000	9	...........
	41	0.56	7.93165E-001	1.01674E-004	0.00000E+000	8.06444E-005	5.99601E-002	7.93449E-001	3.57870E+000	9	...........
	42	0.573333	8.01494E-001	1.00468E-004	0.00000E+000	8.05243E-005	5.99601E-002	8.01766E-001	3.57870E+000	9	...........
	43	0.586667	8.09589E-001	1.01145E-004	0.00000E+000	8.18859E-005	5.99601E-002	8.09898E-001	3.57870E+000	9	...........
	44	0.6	8.17570E-001	1.01644E-004	0.00000E+000	8.31011E-005	5.99601E-002	8.17852E-001	3.57870E+000	9	...........
	45	0.613333	8.25319E-001	1.00632E-004	0.00000E+000	8.30538E-005	5.99601E-002	8.25602E-001	3.57870E+000	9	...........
	46	0.626667	8.32898E-001	1.00933E-004	0.00000E+000	8.40673E-005	5.99601E-002	8.33206E-001	3.57870E+000	9	...........
	47	0.64	8.40291E-001	1.00801E-004	0.00000E+000	8.47023E-005	5.99601E-002	8.40603E-001	3.57870E+000	9	...........
	48	0.653333	8.47566E-001	1.01337E-004	0.00000E+000	8.58895E-005	5.99601E-002	8.47862E-001	3.57870E+000	9	...........
	49	0.666667	8.54580E-001	1.00838E-004	0.00000E+000	8.61738E-005	5.99601E-002	8.54908E-001	3.57870E+000	9	...........
	50	0.68	8.61474E-001	1.01726E-004	0.00000E+000	8.76345E-005	5.99601E-002	8.61811E-001	3.57870E+000	9	...........
	51	0.693333	8.68185E-001	1.01694E-004	0.00000E+000	8.82892E-005	5.99601E-002	8.68528E-001	3.57870E+000	9	...........
	52	0.706667	8.74735E-001	1.01144E-004	0.00000E+000	8.84741E-005	5.99601E-002	8.75093E-001	3.57870E+000	9	...........
	53	0.72	8.81086E-001	1.00794E-004	0.00000E+000	8.88080E-005	5.99601E-002	8.81427E-001	3.57870E+000	9	...........
	54	0.733333	8.87282E-001	1.00316E-004	0.00000E+000	8.90082E-005	5.99601E-002	8.87589E-001	3.57870E+000	9	...........
	55	0.746667	8.93290E-001	1.00677E-004	0.00000E+000	8.99339E-005	5.99601E-002	8.93608E-001	3.57870E+000	9	...........
	56	0.76	8.99154E-001	1.00439E-004	0.00000E+000	9.03097E-005	5.99601E-002	8.99465E-001	3.57870E+000	9	...........
	57	0.773333	9.04843E-001	1.00474E-004	0.00000E+000	9.09132E-005	5.99601E-002	9.05169E-001	3.57870E+000	9	...........
	58	0.786667	9.10384E-001	1.01033E-004	0.00000E+000	9.19793E-005	5.99601E-002	9.10700E-001	3.57870E+000	9	...........
	59	0.8	9.15736E-001	1.00187E-004	0.00000E+000	9.17453E-005	5.99601E-002	9.16072E-001	3.57870E+000	9	...........
	60	0.813333	9.20993E-001	1.00422E-004	0.00000E+000	9.24879E-005	5.99601E-002	9.21318E-001	3.57870E+000	9	...........
	61	0.826667	9.26099E-001	1.01374E-004	0.00000E+000	9.38825E-005	5.99601E-002	9.26422E-001	3.57870E+000	9	...........
	62	0.84	9.31015E-001	9.99176E-005	0.00000E+000	9.30248E-005	5.99601E-002	9.31315E-001	3.57870E+000	9	...........
	63	0.853333	9.35816E-001	1.00749E-004	0.00000E+000	9.42826E-005	5.99601E-002	9.36128E-001	3.57870E+000	9	...........
	64	0.866667	9.40465E-001	1.00559E-004	0.00000E+000	9.45726E-005	5.99601E-002	9.40785E-001	3.57870E+000	9	...........
	65	0.88	9.44999E-001	1.00695E-004	0.00000E+000	9.51566E-005	5.99601E-002	9.45323E-001	3.57870E+000	9	...........
	66	0.893333	9.49470E-001	1.00758E-004	0.00000E+000	9.56671E-005	5.99601E-002	9.49783E-001	3.57870E+000	9	...........
	67	0.906667	9.53788E-001	1.01461E-004	0.00000E+000	9.67719E-005	5.99601E-002	9.54135E-001	3.57870E+000	9	...........
	68	0.92	9.58002E-001	1.01538E-004	0.00000E+000	9.72733E-005	5.99601E-002	9.58348E-001	3.57870E+000	9	...........
	69	0.933333	9.62105E-001	1.01288E-004	0.00000E+000	9.74494E-005	5.99601E-002	9.62466E-001	3.57870E+000	9	...........
	70	0.946667	9.66128E-001	1.00830E-004	0.00000E+000	9.74150E-005	5.99601E-002	9.66490E-001	3.57870E+000	9	...........
	71	0.96	9.70030E-001	1.00976E-004	0.00000E+000	9.79499E-005	5.99601E-002	9.70440E-001	3.57870E+000	9	...........
	72	0.97333	9.73933E-001	1.00798E-004	0.00000E+000	9.81705E-005	5.99601E-002	9.74270E-001	3.57870E+000	9	...........
	73	0.98667	9.77683E-001	1.00923E-004	0.00000E+000	9.86707E-005	5.99601E-002	9.78030E-001	3.57870E+000	9	...........
	74	1	9.81352E-001	1.01253E-004	0.00000E+000	9.93651E-005	5.99601E-002	9.81700E-001	3.57870E+000	9	...........
	75	1.01333	9.84918E-001	1.00305E-004	0.00000E+000	9.87924E-005	5.99601E-002	9.85277E-001	3.57870E+000	9	...........
	76	1.02667	9.88414E-001	1.01453E-004	0.00000E+000	1.00278E-004	5.99601E-002	9.88780E-001	3.57870E+000	9	...........
	77	1.04	9.91808E-001	1.00881E-004	0.00000E+000	1.00055E-004	5.99601E-002	9.92147E-001	3.57870E+000	9	...........
	78	1.05333	9.95097E-001	1.01771E-004	0.00000E+000	1.01272E-004	5.99601E-002	9.95482E-001	3.57870E+000	9	...........
	79	1.06667	9.98338E-001	1.01434E-004	0.00000E+000	1.01265E-004	5.99601E-002	9.98709E-001	3.57870E+000	9	...........
	80	1.06833	1.00010E+000	1.00540E-004	0.00000E+000	1.00549E-004	5.99601E-002	1.00048E+000	3.57870E+000	9	...........
STARTTIMEOFFSET	QUANT	190.16	Start Time Offset (s)
