EXPLAIN
TAG	PWR800_CHARGE
TITLE	LABEL	PWR Cyclic Charge Discharge (Cell) - Charge Step	Test &Identifier
DATE	LABEL	12-7-2017	Date
TIME	LABEL	16:29:47	Time
NOTES	NOTES	2	&Notes...
	supercap test cell
	6M KOH
PSTAT	PSTAT	IFC5000-01520	Potentiostat
CAPACITY	QUANT	1.00000E-003	Capacity (A-hr)
CELLTYPE	SELECTOR	1	&Cell Type
WORKINGCONNECTION	SELECTOR	0	&Working Lead
MAXCHARGETIME	VARIABLEANDUNITS	1.00000E+002	s	1.00000E+002	second(s)	Max &Charge Time
CHARGECURRENT	QUANT	1.00000E-004	&Charge Current (A) 
VOLTAGEFINISH	TWOPARAM	F	1.00000E-003	3.60000E+003	&Voltage Finish	 I (A) < 	Max Time(s)
SAMPLETIME	QUANT	1.00000E-002	Sa&mple Period (s)
CHARGESTOPAT1	MULTIPARAM	4	1.00000E+000	Charge Stop At &1	Voltage > Limit	V
CHARGESTOPAT2	MULTIPARAM	0	0.00000E+000	Charge Stop At &2	None	N/A
AESBHCSELECTOR	TOGGLE	F	Save Both Half Cells
IRCOMP	TOGGLE	F	IR &Measure
EOC	QUANT	0	Open Circuit (V)
SEQUENCER	TOGGLE	TRUE	Run as Sequence
PSTATMODEL	IQUANT	53	Pstat Model
PSTATSECTION	LABEL	IFC5000-01520	Pstat Section
PSTATSERIALNO	LABEL	01520	Pstat Serial Number
CTRLMODE	IQUANT	0	Control Mode
ELECTROMETER	IQUANT	1	RE=0 or CS=1
IESTAB	IQUANT	0	I/E Stability
CASPEED	IQUANT	4	Control Amp Speed
CONVENTION	IQUANT	1	Current Convention
ICHRANGE	IQUANT	2	Ich Range
ICHRANGEMODE	TOGGLE	T	Ich Auto Range
ICHOFFSETENABLE	TOGGLE	F	Ich Offset Enable
ICHOFFSET	QUANT	0	Ich Offset (V)
ICHFILTER	IQUANT	1	Ich Filter
VCHRANGE	IQUANT	2	Vch Range
VCHRANGEMODE	TOGGLE	T	Vch Auto Range
VCHOFFSETENABLE	TOGGLE	F	Vch Offset Enable
VCHOFFSET	QUANT	0	Vch Offset (V)
VCHFILTER	IQUANT	1	Vch Filter
IERANGELOWERLIMIT	IQUANT	9	I/E Range Lower Limit
IERANGEMODE	TOGGLE	F	I/E AutoRange
IERANGE	IQUANT	9	I/E Range
ACHSELECT	IQUANT	1	Ach Select
ACHRANGE	IQUANT	2	Ach Range
ACHOFFSETENABLE	TOGGLE	F	Ach Offset Enable
ACHOFFSET	QUANT	0	Ach Offset (V)
ACHFILTER	IQUANT	1	Ach Filter
CABLEID	IQUANT	14	Cable ID
DCCALDATE	LABEL	5-7-2017	DC Calibration Date
ACCALDATE	LABEL	12/3/2015	AC Calibration Date
FRAMEWORKVERSION	QUANT	7.01	Framework Version
INSTRUMENTVERSION	LABEL	4.00	Instrument Version
CURVE	TABLE	77
	Pt	T	Vf	Im	Vu	Pwr	Sig	Ach	Temp	IERange	Over
	#	s	V	A	V	W	V	V	deg C	#	bits
	0	0.013333	2.61474E-001	1.01079E-004	0.00000E+000	2.64296E-005	5.99601E-002	2.61551E-001	3.57670E+000	9	...........
	1	0.026667	2.84290E-001	1.00419E-004	0.00000E+000	2.85481E-005	5.99601E-002	2.84353E-001	3.57670E+000	9	...........
	2	0.04	3.05763E-001	1.01743E-004	0.00000E+000	3.11092E-005	5.99601E-002	3.05827E-001	3.57670E+000	9	...........
	3	0.053333	3.26257E-001	9.99843E-005	0.00000E+000	3.26206E-005	5.99601E-002	3.26330E-001	3.57670E+000	9	...........
	4	0.066667	3.45984E-001	1.01640E-004	0.00000E+000	3.51658E-005	5.99601E-002	3.46059E-001	3.57670E+000	9	...........
	5	0.08	3.65062E-001	1.01685E-004	0.00000E+000	3.71212E-005	5.99601E-002	3.65142E-001	3.57670E+000	9	...........
	6	0.093333	3.83586E-001	1.01662E-004	0.00000E+000	3.89961E-005	5.99601E-002	3.83663E-001	3.57670E+000	9	...........
	7	0.106667	4.01610E-001	1.01575E-004	0.00000E+000	4.07936E-005	5.99601E-002	4.01696E-001	3.57670E+000	9	...........
	8	0.12	4.19183E-001	1.02258E-004	0.00000E+000	4.28647E-005	5.99601E-002	4.19272E-001	3.57701E+000	9	...........
	9	0.133333	4.36341E-001	1.00289E-004	0.00000E+000	4.37600E-005	5.99601E-002	4.36430E-001	3.57720E+000	9	...........
	10	0.146667	4.53111E-001	1.00506E-004	0.00000E+000	4.55405E-005	5.99601E-002	4.53204E-001	3.57720E+000	9	...........
	11	0.16	4.69504E-001	1.00814E-004	0.00000E+000	4.73324E-005	5.99601E-002	4.69601E-001	3.57720E+000	9	...........
	12	0.173333	4.85537E-001	1.00508E-004	0.00000E+000	4.88006E-005	5.99601E-002	4.85636E-001	3.57720E+000	9	...........
	13	0.186667	5.01210E-001	1.00620E-004	0.00000E+000	5.04317E-005	5.99601E-002	5.01326E-001	3.57720E+000	9	...........
	14	0.2	5.16563E-001	1.00536E-004	0.00000E+000	5.19334E-005	5.99601E-002	5.16676E-001	3.57720E+000	9	...........
	15	0.213333	5.31515E-001	1.01496E-004	0.00000E+000	5.39467E-005	5.99601E-002	5.31640E-001	3.57720E+000	9	...........
	16	0.226667	5.46017E-001	1.01831E-004	0.00000E+000	5.56012E-005	5.99601E-002	5.46249E-001	3.57720E+000	9	...........
	17	0.24	5.60385E-001	1.00916E-004	0.00000E+000	5.65516E-005	5.99601E-002	5.60669E-001	3.57720E+000	9	...........
	18	0.253333	5.74521E-001	1.01533E-004	0.00000E+000	5.83326E-005	5.99601E-002	5.74761E-001	3.57720E+000	9	...........
	19	0.266667	5.88316E-001	1.01247E-004	0.00000E+000	5.95653E-005	5.99601E-002	5.88602E-001	3.57720E+000	9	...........
	20	0.28	6.01828E-001	1.00265E-004	0.00000E+000	6.03420E-005	5.99601E-002	6.02128E-001	3.57720E+000	9	...........
	21	0.293333	6.15079E-001	1.01712E-004	0.00000E+000	6.25607E-005	5.99601E-002	6.15384E-001	3.57720E+000	9	...........
	22	0.306667	6.28039E-001	1.01594E-004	0.00000E+000	6.38050E-005	5.99601E-002	6.28322E-001	3.57720E+000	9	...........
	23	0.32	6.40713E-001	1.00791E-004	0.00000E+000	6.45779E-005	5.99601E-002	6.40977E-001	3.57720E+000	9	...........
	24	0.333333	6.53104E-001	1.00565E-004	0.00000E+000	6.56792E-005	5.99601E-002	6.53360E-001	3.57720E+000	9	...........
	25	0.346667	6.65186E-001	1.01060E-004	0.00000E+000	6.72234E-005	5.99601E-002	6.65465E-001	3.57720E+000	9	...........
	26	0.36	6.77029E-001	1.00522E-004	0.00000E+000	6.80563E-005	5.99601E-002	6.77289E-001	3.57720E+000	9	...........
	27	0.373333	6.88586E-001	1.01783E-004	0.00000E+000	7.00861E-005	5.99601E-002	6.88848E-001	3.57720E+000	9	...........
	28	0.386667	6.99834E-001	1.01419E-004	0.00000E+000	7.09764E-005	5.99601E-002	7.00132E-001	3.57720E+000	9	...........
	29	0.4	7.10849E-001	1.01777E-004	0.00000E+000	7.23484E-005	5.99601E-002	7.11141E-001	3.57720E+000	9	...........
	30	0.413333	7.21646E-001	1.01177E-004	0.00000E+000	7.30141E-005	5.99601E-002	7.21919E-001	3.57720E+000	9	...........
	31	0.426667	7.32099E-001	1.00721E-004	0.00000E+000	7.37377E-005	5.99601E-002	7.32403E-001	3.57720E+000	9	...........
	32	0.44	7.42332E-001	1.01510E-004	0.00000E+000	7.53538E-005	5.99601E-002	7.42610E-001	3.57720E+000	9	...........
	33	0.453333	7.52297E-001	1.01452E-004	0.00000E+000	7.63223E-005	5.99601E-002	7.52586E-001	3.57720E+000	9	...........
	34	0.466667	7.62001E-001	1.00120E-004	0.00000E+000	7.62913E-005	5.99601E-002	7.62277E-001	3.57720E+000	9	...........
	35	0.48	7.71452E-001	1.01808E-004	0.00000E+000	7.85396E-005	5.99601E-002	7.71759E-001	3.57720E+000	9	...........
	36	0.493333	7.80696E-001	1.00926E-004	0.00000E+000	7.87927E-005	5.99601E-002	7.80969E-001	3.57720E+000	9	...........
	37	0.506667	7.89620E-001	1.01512E-004	0.00000E+000	8.01556E-005	5.99601E-002	7.89920E-001	3.57720E+000	9	...........
	38	0.52	7.98355E-001	1.00775E-004	0.00000E+000	8.04543E-005	5.99601E-002	7.98634E-001	3.57720E+000	9	...........
	39	0.533333	8.06796E-001	1.00298E-004	0.00000E+000	8.09199E-005	5.99601E-002	8.07107E-001	3.57720E+000	9	...........
	40	0.546667	8.15026E-001	1.01442E-004	0.00000E+000	8.26778E-005	5.99601E-002	8.15283E-001	3.57720E+000	9	...........
	41	0.56	8.23012E-001	1.00809E-004	0.00000E+000	8.29674E-005	5.99601E-002	8.23288E-001	3.57720E+000	9	...........
	42	0.573333	8.30736E-001	1.00765E-004	0.00000E+000	8.37088E-005	5.99601E-002	8.31018E-001	3.57720E+000	9	...........
	43	0.586667	8.38242E-001	1.01290E-004	0.00000E+000	8.49054E-005	5.99601E-002	8.38549E-001	3.57720E+000	9	...........
	44	0.6	8.45548E-001	1.01227E-004	0.00000E+000	8.55925E-005	5.99601E-002	8.45862E-001	3.57720E+000	9	...........
	45	0.613333	8.52598E-001	1.00443E-004	0.00000E+000	8.56372E-005	5.99601E-002	8.52913E-001	3.57720E+000	9	...........
	46	0.626667	8.59429E-001	9.98124E-005	0.00000E+000	8.57817E-005	5.99601E-002	8.59757E-001	3.57720E+000	9	...........
	47	0.64	8.66053E-001	1.01943E-004	0.00000E+000	8.82880E-005	5.99601E-002	8.66382E-001	3.57720E+000	9	...........
	48	0.653333	8.72524E-001	1.00690E-004	0.00000E+000	8.78541E-005	5.99601E-002	8.72841E-001	3.57720E+000	9	...........
	49	0.666667	8.78746E-001	1.00858E-004	0.00000E+000	8.86290E-005	5.99601E-002	8.79056E-001	3.57720E+000	9	...........
	50	0.68	8.84795E-001	1.02181E-004	0.00000E+000	9.04088E-005	5.99601E-002	8.85114E-001	3.57720E+000	9	...........
	51	0.693333	8.90647E-001	1.00470E-004	0.00000E+000	8.94831E-005	5.99601E-002	8.90959E-001	3.57720E+000	9	...........
	52	0.706667	8.96345E-001	1.01335E-004	0.00000E+000	9.08308E-005	5.99601E-002	8.96670E-001	3.57720E+000	9	...........
	53	0.72	9.01888E-001	1.01543E-004	0.00000E+000	9.15804E-005	5.99601E-002	9.02242E-001	3.57720E+000	9	...........
	54	0.733333	9.07313E-001	1.00972E-004	0.00000E+000	9.16132E-005	5.99601E-002	9.07640E-001	3.57720E+000	9	...........
	55	0.746667	9.12572E-001	1.01266E-004	0.00000E+000	9.24124E-005	5.99601E-002	9.12885E-001	3.57720E+000	9	...........
	56	0.76	9.17706E-001	1.01295E-004	0.00000E+000	9.29590E-005	5.99601E-002	9.18034E-001	3.57720E+000	9	...........
	57	0.773333	9.22784E-001	1.00969E-004	0.00000E+000	9.31724E-005	5.99601E-002	9.23069E-001	3.57720E+000	9	...........
	58	0.786667	9.27717E-001	1.00196E-004	0.00000E+000	9.29533E-005	5.99601E-002	9.27981E-001	3.57720E+000	9	...........
	59	0.8	9.32515E-001	9.98051E-005	0.00000E+000	9.30697E-005	5.99601E-002	9.32805E-001	3.57720E+000	9	...........
	60	0.813333	9.37228E-001	1.00305E-004	0.00000E+000	9.40088E-005	5.99601E-002	9.37543E-001	3.57720E+000	9	...........
	61	0.826667	9.41860E-001	1.00952E-004	0.00000E+000	9.50828E-005	5.99601E-002	9.42173E-001	3.57720E+000	9	...........
	62	0.84	9.46425E-001	1.00924E-004	0.00000E+000	9.55171E-005	5.99601E-002	9.46740E-001	3.57720E+000	9	...........
	63	0.853333	9.50912E-001	1.00504E-004	0.00000E+000	9.55706E-005	5.99601E-002	9.51214E-001	3.57720E+000	9	...........
	64	0.866667	9.55274E-001	1.00123E-004	0.00000E+000	9.56448E-005	5.99601E-002	9.55594E-001	3.57720E+000	9	...........
	65	0.88	9.59572E-001	1.00821E-004	0.00000E+000	9.67450E-005	5.99601E-002	9.59930E-001	3.57720E+000	9	...........
	66	0.893333	9.63804E-001	1.00988E-004	0.00000E+000	9.73323E-005	5.99601E-002	9.64163E-001	3.57720E+000	9	...........
	67	0.906667	9.67952E-001	1.02098E-004	0.00000E+000	9.88262E-005	5.99601E-002	9.68305E-001	3.57720E+000	9	...........
	68	0.92	9.72039E-001	1.00721E-004	0.00000E+000	9.79047E-005	5.99601E-002	9.72393E-001	3.57720E+000	9	...........
	69	0.933333	9.76090E-001	1.01711E-004	0.00000E+000	9.92788E-005	5.99601E-002	9.76405E-001	3.57720E+000	9	...........
	70	0.946667	9.80000E-001	1.00448E-004	0.00000E+000	9.84390E-005	5.99601E-002	9.80304E-001	3.57720E+000	9	...........
	71	0.96	9.83848E-001	1.01355E-004	0.00000E+000	9.97183E-005	5.99601E-002	9.84142E-001	3.57720E+000	9	...........
	72	0.97333	9.87606E-001	1.00850E-004	0.00000E+000	9.96002E-005	5.99601E-002	9.87917E-001	3.57720E+000	9	...........
	73	0.98667	9.91270E-001	1.01060E-004	0.00000E+000	1.00177E-004	5.99601E-002	9.91585E-001	3.57720E+000	9	...........
	74	1	9.94870E-001	1.02374E-004	0.00000E+000	1.01849E-004	5.99601E-002	9.95184E-001	3.57720E+000	9	...........
	75	1.01333	9.98412E-001	9.95665E-005	0.00000E+000	9.94084E-005	5.99601E-002	9.98727E-001	3.57720E+000	9	...........
	76	1.015	1.00034E+000	9.76807E-005	0.00000E+000	9.77135E-005	5.99601E-002	1.00064E+000	3.57720E+000	9	...........
STARTTIMEOFFSET	QUANT	844.2972	Start Time Offset (s)
