EXPLAIN
TAG	PWR800_CHARGE
TITLE	LABEL	PWR Cyclic Charge Discharge (Cell) - Charge Step	Test &Identifier
DATE	LABEL	12-7-2017	Date
TIME	LABEL	16:54:40	Time
NOTES	NOTES	2	&Notes...
	supercap test cell
	6M KOH
PSTAT	PSTAT	IFC5000-01520	Potentiostat
CAPACITY	QUANT	1.00000E-003	Capacity (A-hr)
CELLTYPE	SELECTOR	1	&Cell Type
WORKINGCONNECTION	SELECTOR	0	&Working Lead
MAXCHARGETIME	VARIABLEANDUNITS	1.00000E+002	s	1.00000E+002	second(s)	Max &Charge Time
CHARGECURRENT	QUANT	1.00000E-004	&Charge Current (A) 
VOLTAGEFINISH	TWOPARAM	F	1.00000E-003	3.60000E+003	&Voltage Finish	 I (A) < 	Max Time(s)
SAMPLETIME	QUANT	1.00000E-002	Sa&mple Period (s)
CHARGESTOPAT1	MULTIPARAM	4	1.00000E+000	Charge Stop At &1	Voltage > Limit	V
CHARGESTOPAT2	MULTIPARAM	0	0.00000E+000	Charge Stop At &2	None	N/A
AESBHCSELECTOR	TOGGLE	F	Save Both Half Cells
IRCOMP	TOGGLE	F	IR &Measure
EOC	QUANT	0	Open Circuit (V)
SEQUENCER	TOGGLE	TRUE	Run as Sequence
PSTATMODEL	IQUANT	53	Pstat Model
PSTATSECTION	LABEL	IFC5000-01520	Pstat Section
PSTATSERIALNO	LABEL	01520	Pstat Serial Number
CTRLMODE	IQUANT	0	Control Mode
ELECTROMETER	IQUANT	1	RE=0 or CS=1
IESTAB	IQUANT	0	I/E Stability
CASPEED	IQUANT	4	Control Amp Speed
CONVENTION	IQUANT	1	Current Convention
ICHRANGE	IQUANT	2	Ich Range
ICHRANGEMODE	TOGGLE	T	Ich Auto Range
ICHOFFSETENABLE	TOGGLE	F	Ich Offset Enable
ICHOFFSET	QUANT	0	Ich Offset (V)
ICHFILTER	IQUANT	1	Ich Filter
VCHRANGE	IQUANT	2	Vch Range
VCHRANGEMODE	TOGGLE	T	Vch Auto Range
VCHOFFSETENABLE	TOGGLE	F	Vch Offset Enable
VCHOFFSET	QUANT	0	Vch Offset (V)
VCHFILTER	IQUANT	1	Vch Filter
IERANGELOWERLIMIT	IQUANT	9	I/E Range Lower Limit
IERANGEMODE	TOGGLE	F	I/E AutoRange
IERANGE	IQUANT	9	I/E Range
ACHSELECT	IQUANT	1	Ach Select
ACHRANGE	IQUANT	2	Ach Range
ACHOFFSETENABLE	TOGGLE	F	Ach Offset Enable
ACHOFFSET	QUANT	0	Ach Offset (V)
ACHFILTER	IQUANT	1	Ach Filter
CABLEID	IQUANT	14	Cable ID
DCCALDATE	LABEL	5-7-2017	DC Calibration Date
ACCALDATE	LABEL	12/3/2015	AC Calibration Date
FRAMEWORKVERSION	QUANT	7.01	Framework Version
INSTRUMENTVERSION	LABEL	4.00	Instrument Version
CURVE	TABLE	74
	Pt	T	Vf	Im	Vu	Pwr	Sig	Ach	Temp	IERange	Over
	#	s	V	A	V	W	V	V	deg C	#	bits
	0	0.013333	2.59036E-001	1.00262E-004	0.00000E+000	2.59716E-005	5.99601E-002	2.59112E-001	3.57640E+000	9	...........
	1	0.026667	2.82123E-001	1.00999E-004	0.00000E+000	2.84941E-005	5.99601E-002	2.82185E-001	3.57640E+000	9	...........
	2	0.04	3.03994E-001	1.02096E-004	0.00000E+000	3.10366E-005	5.99601E-002	3.04059E-001	3.57640E+000	9	...........
	3	0.053333	3.24976E-001	9.97832E-005	0.00000E+000	3.24271E-005	5.99601E-002	3.25047E-001	3.57640E+000	9	...........
	4	0.066667	3.45266E-001	1.00992E-004	0.00000E+000	3.48690E-005	5.99601E-002	3.45336E-001	3.57640E+000	9	...........
	5	0.08	3.64954E-001	9.98364E-005	0.00000E+000	3.64357E-005	5.99601E-002	3.65032E-001	3.57640E+000	9	...........
	6	0.093333	3.84138E-001	1.00813E-004	0.00000E+000	3.87260E-005	5.99601E-002	3.84212E-001	3.57640E+000	9	...........
	7	0.106667	4.02842E-001	1.00662E-004	0.00000E+000	4.05507E-005	5.99601E-002	4.02922E-001	3.57640E+000	9	...........
	8	0.12	4.21115E-001	9.96592E-005	0.00000E+000	4.19680E-005	5.99601E-002	4.21200E-001	3.57640E+000	9	...........
	9	0.133333	4.38973E-001	9.96905E-005	0.00000E+000	4.37614E-005	5.99601E-002	4.39059E-001	3.57640E+000	9	...........
	10	0.146667	4.56438E-001	1.01672E-004	0.00000E+000	4.64071E-005	5.99601E-002	4.56535E-001	3.57640E+000	9	...........
	11	0.16	4.73528E-001	1.02453E-004	0.00000E+000	4.85142E-005	5.99601E-002	4.73625E-001	3.57640E+000	9	...........
	12	0.173333	4.90241E-001	1.01095E-004	0.00000E+000	4.95608E-005	5.99601E-002	4.90346E-001	3.57640E+000	9	...........
	13	0.186667	5.06601E-001	1.01182E-004	0.00000E+000	5.12591E-005	5.99601E-002	5.06711E-001	3.57640E+000	9	...........
	14	0.2	5.22602E-001	1.00297E-004	0.00000E+000	5.24154E-005	5.99601E-002	5.22713E-001	3.57640E+000	9	...........
	15	0.213333	5.38020E-001	1.01366E-004	0.00000E+000	5.45368E-005	5.99601E-002	5.38238E-001	3.57640E+000	9	...........
	16	0.226667	5.53253E-001	9.99708E-005	0.00000E+000	5.53092E-005	5.99601E-002	5.53500E-001	3.57640E+000	9	...........
	17	0.24	5.68209E-001	1.02514E-004	0.00000E+000	5.82494E-005	5.99601E-002	5.68487E-001	3.57640E+000	9	...........
	18	0.253333	5.82813E-001	1.00803E-004	0.00000E+000	5.87494E-005	5.99601E-002	5.83078E-001	3.57640E+000	9	...........
	19	0.266667	5.97090E-001	1.00525E-004	0.00000E+000	6.00225E-005	5.99601E-002	5.97366E-001	3.57640E+000	9	...........
	20	0.28	6.11006E-001	1.00822E-004	0.00000E+000	6.16028E-005	5.99601E-002	6.11293E-001	3.57640E+000	9	...........
	21	0.293333	6.24632E-001	1.00299E-004	0.00000E+000	6.26500E-005	5.99601E-002	6.24886E-001	3.57640E+000	9	...........
	22	0.306667	6.37863E-001	9.91560E-005	0.00000E+000	6.32480E-005	5.99601E-002	6.38143E-001	3.57640E+000	9	...........
	23	0.32	6.50822E-001	1.00119E-004	0.00000E+000	6.51594E-005	5.99601E-002	6.51089E-001	3.57640E+000	9	...........
	24	0.333333	6.63425E-001	1.00416E-004	0.00000E+000	6.66183E-005	5.99601E-002	6.63688E-001	3.57640E+000	9	...........
	25	0.346667	6.75730E-001	1.00275E-004	0.00000E+000	6.77588E-005	5.99601E-002	6.75980E-001	3.57640E+000	9	...........
	26	0.36	6.87702E-001	1.01065E-004	0.00000E+000	6.95024E-005	5.99601E-002	6.87952E-001	3.57640E+000	9	...........
	27	0.373333	6.99370E-001	1.00438E-004	0.00000E+000	7.02430E-005	5.99601E-002	6.99600E-001	3.57640E+000	9	...........
	28	0.386667	7.10689E-001	1.00666E-004	0.00000E+000	7.15420E-005	5.99601E-002	7.10948E-001	3.57640E+000	9	...........
	29	0.4	7.21777E-001	1.01163E-004	0.00000E+000	7.30169E-005	5.99601E-002	7.22026E-001	3.57640E+000	9	...........
	30	0.413333	7.32498E-001	1.01594E-004	0.00000E+000	7.44175E-005	5.99601E-002	7.32750E-001	3.57640E+000	9	...........
	31	0.426667	7.42937E-001	1.01180E-004	0.00000E+000	7.51707E-005	5.99601E-002	7.43201E-001	3.57640E+000	9	...........
	32	0.44	7.53120E-001	1.01125E-004	0.00000E+000	7.61594E-005	5.99601E-002	7.53350E-001	3.57640E+000	9	...........
	33	0.453333	7.62965E-001	1.01166E-004	0.00000E+000	7.71859E-005	5.99601E-002	7.63209E-001	3.57640E+000	9	...........
	34	0.466667	7.72573E-001	1.02332E-004	0.00000E+000	7.90587E-005	5.99601E-002	7.72821E-001	3.57640E+000	9	...........
	35	0.48	7.81848E-001	1.01041E-004	0.00000E+000	7.89985E-005	5.99601E-002	7.82116E-001	3.57640E+000	9	...........
	36	0.493333	7.90889E-001	1.00812E-004	0.00000E+000	7.97307E-005	5.99601E-002	7.91149E-001	3.57640E+000	9	...........
	37	0.506667	7.99654E-001	1.00796E-004	0.00000E+000	8.06019E-005	5.99601E-002	7.99937E-001	3.57640E+000	9	...........
	38	0.52	8.08119E-001	1.00823E-004	0.00000E+000	8.14770E-005	5.99601E-002	8.08421E-001	3.57640E+000	9	...........
	39	0.533333	8.16343E-001	1.02555E-004	0.00000E+000	8.37198E-005	5.99601E-002	8.16656E-001	3.57640E+000	9	...........
	40	0.546667	8.24336E-001	1.01533E-004	0.00000E+000	8.36969E-005	5.99601E-002	8.24643E-001	3.57640E+000	9	...........
	41	0.56	8.32046E-001	1.01074E-004	0.00000E+000	8.40984E-005	5.99601E-002	8.32348E-001	3.57640E+000	9	...........
	42	0.573333	8.39502E-001	1.00793E-004	0.00000E+000	8.46157E-005	5.99601E-002	8.39811E-001	3.57640E+000	9	...........
	43	0.586667	8.46782E-001	1.00327E-004	0.00000E+000	8.49552E-005	5.99601E-002	8.47068E-001	3.57640E+000	9	...........
	44	0.6	8.53782E-001	1.01114E-004	0.00000E+000	8.63291E-005	5.99601E-002	8.54057E-001	3.57640E+000	9	...........
	45	0.613333	8.60583E-001	1.00327E-004	0.00000E+000	8.63398E-005	5.99601E-002	8.60877E-001	3.57640E+000	9	...........
	46	0.626667	8.67186E-001	1.01111E-004	0.00000E+000	8.76816E-005	5.99601E-002	8.67451E-001	3.57640E+000	9	...........
	47	0.64	8.73612E-001	1.01818E-004	0.00000E+000	8.89494E-005	5.99601E-002	8.73888E-001	3.57640E+000	9	...........
	48	0.653333	8.79808E-001	1.02274E-004	0.00000E+000	8.99818E-005	5.99601E-002	8.80084E-001	3.57640E+000	9	...........
	49	0.666667	8.85875E-001	1.00743E-004	0.00000E+000	8.92455E-005	5.99601E-002	8.86143E-001	3.57640E+000	9	...........
	50	0.68	8.91753E-001	9.94394E-005	0.00000E+000	8.86754E-005	5.99601E-002	8.92030E-001	3.57640E+000	9	...........
	51	0.693333	8.97498E-001	1.00421E-004	0.00000E+000	9.01275E-005	5.99601E-002	8.97818E-001	3.57640E+000	9	...........
	52	0.706667	9.03084E-001	1.00041E-004	0.00000E+000	9.03450E-005	5.99601E-002	9.03398E-001	3.57640E+000	9	...........
	53	0.72	9.08578E-001	9.99666E-005	0.00000E+000	9.08275E-005	5.99601E-002	9.08875E-001	3.57640E+000	9	...........
	54	0.733333	9.13942E-001	1.01237E-004	0.00000E+000	9.25244E-005	5.99601E-002	9.14233E-001	3.57640E+000	9	...........
	55	0.746667	9.19214E-001	1.00416E-004	0.00000E+000	9.23034E-005	5.99601E-002	9.19487E-001	3.57640E+000	9	...........
	56	0.76	9.24381E-001	1.00037E-004	0.00000E+000	9.24727E-005	5.99601E-002	9.24640E-001	3.57640E+000	9	...........
	57	0.773333	9.29465E-001	1.00133E-004	0.00000E+000	9.30704E-005	5.99601E-002	9.29737E-001	3.57640E+000	9	...........
	58	0.786667	9.34422E-001	1.01277E-004	0.00000E+000	9.46357E-005	5.99601E-002	9.34690E-001	3.57675E+000	9	...........
	59	0.8	9.39331E-001	1.00150E-004	0.00000E+000	9.40740E-005	5.99601E-002	9.39584E-001	3.57780E+000	9	...........
	60	0.813333	9.44140E-001	1.01282E-004	0.00000E+000	9.56249E-005	5.99601E-002	9.44436E-001	3.57780E+000	9	...........
	61	0.826667	9.48952E-001	1.00489E-004	0.00000E+000	9.53589E-005	5.99601E-002	9.49233E-001	3.57780E+000	9	...........
	62	0.84	9.53611E-001	1.00944E-004	0.00000E+000	9.62612E-005	5.99601E-002	9.53901E-001	3.57780E+000	9	...........
	63	0.853333	9.58182E-001	1.01273E-004	0.00000E+000	9.70380E-005	5.99601E-002	9.58506E-001	3.57780E+000	9	...........
	64	0.866667	9.62683E-001	1.00858E-004	0.00000E+000	9.70948E-005	5.99601E-002	9.63056E-001	3.57780E+000	9	...........
	65	0.88	9.67140E-001	1.01596E-004	0.00000E+000	9.82577E-005	5.99601E-002	9.67509E-001	3.57780E+000	9	...........
	66	0.893333	9.71527E-001	1.00710E-004	0.00000E+000	9.78429E-005	5.99601E-002	9.71910E-001	3.57780E+000	9	...........
	67	0.906667	9.75850E-001	1.01132E-004	0.00000E+000	9.86901E-005	5.99601E-002	9.76233E-001	3.57780E+000	9	...........
	68	0.92	9.80075E-001	1.01018E-004	0.00000E+000	9.90051E-005	5.99601E-002	9.80426E-001	3.57780E+000	9	...........
	69	0.933333	9.84181E-001	1.00510E-004	0.00000E+000	9.89205E-005	5.99601E-002	9.84580E-001	3.57780E+000	9	...........
	70	0.946667	9.88254E-001	1.00838E-004	0.00000E+000	9.96532E-005	5.99601E-002	9.88629E-001	3.57780E+000	9	...........
	71	0.96	9.92209E-001	1.00118E-004	0.00000E+000	9.93377E-005	5.99601E-002	9.92565E-001	3.57780E+000	9	...........
	72	0.97333	9.96101E-001	1.00646E-004	0.00000E+000	1.00253E-004	5.99601E-002	9.96472E-001	3.57780E+000	9	...........
	73	0.98167	9.99218E-001	1.02523E-004	0.00000E+000	1.02443E-004	5.99601E-002	9.99575E-001	3.57780E+000	9	...........
STARTTIMEOFFSET	QUANT	1901.469	Start Time Offset (s)
