EXPLAIN
TAG	PWR800_CHARGE
TITLE	LABEL	PWR Cyclic Charge Discharge (Cell) - Charge Step	Test &Identifier
DATE	LABEL	12-7-2017	Date
TIME	LABEL	16:31:48	Time
NOTES	NOTES	2	&Notes...
	supercap test cell
	6M KOH
PSTAT	PSTAT	IFC5000-01520	Potentiostat
CAPACITY	QUANT	1.00000E-003	Capacity (A-hr)
CELLTYPE	SELECTOR	1	&Cell Type
WORKINGCONNECTION	SELECTOR	0	&Working Lead
MAXCHARGETIME	VARIABLEANDUNITS	1.00000E+002	s	1.00000E+002	second(s)	Max &Charge Time
CHARGECURRENT	QUANT	1.00000E-004	&Charge Current (A) 
VOLTAGEFINISH	TWOPARAM	F	1.00000E-003	3.60000E+003	&Voltage Finish	 I (A) < 	Max Time(s)
SAMPLETIME	QUANT	1.00000E-002	Sa&mple Period (s)
CHARGESTOPAT1	MULTIPARAM	4	1.00000E+000	Charge Stop At &1	Voltage > Limit	V
CHARGESTOPAT2	MULTIPARAM	0	0.00000E+000	Charge Stop At &2	None	N/A
AESBHCSELECTOR	TOGGLE	F	Save Both Half Cells
IRCOMP	TOGGLE	F	IR &Measure
EOC	QUANT	0	Open Circuit (V)
SEQUENCER	TOGGLE	TRUE	Run as Sequence
PSTATMODEL	IQUANT	53	Pstat Model
PSTATSECTION	LABEL	IFC5000-01520	Pstat Section
PSTATSERIALNO	LABEL	01520	Pstat Serial Number
CTRLMODE	IQUANT	0	Control Mode
ELECTROMETER	IQUANT	1	RE=0 or CS=1
IESTAB	IQUANT	0	I/E Stability
CASPEED	IQUANT	4	Control Amp Speed
CONVENTION	IQUANT	1	Current Convention
ICHRANGE	IQUANT	2	Ich Range
ICHRANGEMODE	TOGGLE	T	Ich Auto Range
ICHOFFSETENABLE	TOGGLE	F	Ich Offset Enable
ICHOFFSET	QUANT	0	Ich Offset (V)
ICHFILTER	IQUANT	1	Ich Filter
VCHRANGE	IQUANT	2	Vch Range
VCHRANGEMODE	TOGGLE	T	Vch Auto Range
VCHOFFSETENABLE	TOGGLE	F	Vch Offset Enable
VCHOFFSET	QUANT	0	Vch Offset (V)
VCHFILTER	IQUANT	1	Vch Filter
IERANGELOWERLIMIT	IQUANT	9	I/E Range Lower Limit
IERANGEMODE	TOGGLE	F	I/E AutoRange
IERANGE	IQUANT	9	I/E Range
ACHSELECT	IQUANT	1	Ach Select
ACHRANGE	IQUANT	2	Ach Range
ACHOFFSETENABLE	TOGGLE	F	Ach Offset Enable
ACHOFFSET	QUANT	0	Ach Offset (V)
ACHFILTER	IQUANT	1	Ach Filter
CABLEID	IQUANT	14	Cable ID
DCCALDATE	LABEL	5-7-2017	DC Calibration Date
ACCALDATE	LABEL	12/3/2015	AC Calibration Date
FRAMEWORKVERSION	QUANT	7.01	Framework Version
INSTRUMENTVERSION	LABEL	4.00	Instrument Version
CURVE	TABLE	76
	Pt	T	Vf	Im	Vu	Pwr	Sig	Ach	Temp	IERange	Over
	#	s	V	A	V	W	V	V	deg C	#	bits
	0	0.013333	2.58975E-001	1.01466E-004	0.00000E+000	2.62771E-005	5.99601E-002	2.59037E-001	3.57670E+000	9	...........
	1	0.026667	2.81853E-001	1.00569E-004	0.00000E+000	2.83456E-005	5.99601E-002	2.81913E-001	3.57670E+000	9	...........
	2	0.04	3.03412E-001	1.01142E-004	0.00000E+000	3.06877E-005	5.99601E-002	3.03476E-001	3.57670E+000	9	...........
	3	0.053333	3.24019E-001	1.02532E-004	0.00000E+000	3.32223E-005	5.99601E-002	3.24085E-001	3.57670E+000	9	...........
	4	0.066667	3.43862E-001	1.01472E-004	0.00000E+000	3.48924E-005	5.99601E-002	3.43933E-001	3.57670E+000	9	...........
	5	0.08	3.63074E-001	1.00687E-004	0.00000E+000	3.65566E-005	5.99601E-002	3.63144E-001	3.57670E+000	9	...........
	6	0.093333	3.81727E-001	1.01416E-004	0.00000E+000	3.87132E-005	5.99601E-002	3.81798E-001	3.57670E+000	9	...........
	7	0.106667	3.99892E-001	1.01338E-004	0.00000E+000	4.05241E-005	5.99601E-002	3.99965E-001	3.57670E+000	9	...........
	8	0.12	4.17607E-001	1.01195E-004	0.00000E+000	4.22598E-005	5.99601E-002	4.17692E-001	3.57670E+000	9	...........
	9	0.133333	4.34909E-001	1.00996E-004	0.00000E+000	4.39240E-005	5.99601E-002	4.34999E-001	3.57670E+000	9	...........
	10	0.146667	4.51822E-001	1.00822E-004	0.00000E+000	4.55536E-005	5.99601E-002	4.51910E-001	3.57670E+000	9	...........
	11	0.16	4.68349E-001	1.01072E-004	0.00000E+000	4.73370E-005	5.99601E-002	4.68448E-001	3.57670E+000	9	...........
	12	0.173333	4.84519E-001	1.01467E-004	0.00000E+000	4.91627E-005	5.99601E-002	4.84620E-001	3.57670E+000	9	...........
	13	0.186667	5.00342E-001	9.96457E-005	0.00000E+000	4.98570E-005	5.99601E-002	5.00445E-001	3.57670E+000	9	...........
	14	0.2	5.15828E-001	1.01868E-004	0.00000E+000	5.25464E-005	5.99601E-002	5.15935E-001	3.57670E+000	9	...........
	15	0.213333	5.30909E-001	1.01151E-004	0.00000E+000	5.37021E-005	5.99601E-002	5.31049E-001	3.57670E+000	9	...........
	16	0.226667	5.45532E-001	1.00640E-004	0.00000E+000	5.49021E-005	5.99601E-002	5.45737E-001	3.57670E+000	9	...........
	17	0.24	5.60065E-001	1.00901E-004	0.00000E+000	5.65112E-005	5.99601E-002	5.60252E-001	3.57670E+000	9	...........
	18	0.253333	5.74276E-001	1.00707E-004	0.00000E+000	5.78338E-005	5.99601E-002	5.74478E-001	3.57670E+000	9	...........
	19	0.266667	5.88184E-001	9.99332E-005	0.00000E+000	5.87791E-005	5.99601E-002	5.88403E-001	3.57670E+000	9	...........
	20	0.28	6.01783E-001	1.01070E-004	0.00000E+000	6.08221E-005	5.99601E-002	6.02015E-001	3.57670E+000	9	...........
	21	0.293333	6.15121E-001	9.96686E-005	0.00000E+000	6.13083E-005	5.99601E-002	6.15341E-001	3.57670E+000	9	...........
	22	0.306667	6.28159E-001	1.00868E-004	0.00000E+000	6.33610E-005	5.99601E-002	6.28357E-001	3.57670E+000	9	...........
	23	0.32	6.40880E-001	1.00217E-004	0.00000E+000	6.42268E-005	5.99601E-002	6.41101E-001	3.57670E+000	9	...........
	24	0.333333	6.53320E-001	1.01492E-004	0.00000E+000	6.63067E-005	5.99601E-002	6.53533E-001	3.57670E+000	9	...........
	25	0.346667	6.65489E-001	1.01486E-004	0.00000E+000	6.75375E-005	5.99601E-002	6.65719E-001	3.57670E+000	9	...........
	26	0.36	6.77353E-001	1.00767E-004	0.00000E+000	6.82547E-005	5.99601E-002	6.77593E-001	3.57670E+000	9	...........
	27	0.373333	6.88926E-001	1.01032E-004	0.00000E+000	6.96039E-005	5.99601E-002	6.89188E-001	3.57670E+000	9	...........
	28	0.386667	7.00256E-001	1.01200E-004	0.00000E+000	7.08661E-005	5.99601E-002	7.00508E-001	3.57670E+000	9	...........
	29	0.4	7.11269E-001	1.00430E-004	0.00000E+000	7.14329E-005	5.99601E-002	7.11536E-001	3.57670E+000	9	...........
	30	0.413333	7.22093E-001	1.00443E-004	0.00000E+000	7.25290E-005	5.99601E-002	7.22330E-001	3.57670E+000	9	...........
	31	0.426667	7.32558E-001	1.00755E-004	0.00000E+000	7.38091E-005	5.99601E-002	7.32808E-001	3.57670E+000	9	...........
	32	0.44	7.42811E-001	1.01718E-004	0.00000E+000	7.55572E-005	5.99601E-002	7.43041E-001	3.57670E+000	9	...........
	33	0.453333	7.52776E-001	1.00849E-004	0.00000E+000	7.59167E-005	5.99601E-002	7.53030E-001	3.57670E+000	9	...........
	34	0.466667	7.62450E-001	1.01685E-004	0.00000E+000	7.75294E-005	5.99601E-002	7.62715E-001	3.57670E+000	9	...........
	35	0.48	7.71920E-001	1.01373E-004	0.00000E+000	7.82520E-005	5.99601E-002	7.72187E-001	3.57670E+000	9	...........
	36	0.493333	7.81110E-001	1.00496E-004	0.00000E+000	7.84983E-005	5.99601E-002	7.81367E-001	3.57670E+000	9	...........
	37	0.506667	7.90025E-001	1.01192E-004	0.00000E+000	7.99440E-005	5.99601E-002	7.90306E-001	3.57670E+000	9	...........
	38	0.52	7.98750E-001	1.01007E-004	0.00000E+000	8.06797E-005	5.99601E-002	7.99008E-001	3.57670E+000	9	...........
	39	0.533333	8.07161E-001	1.02128E-004	0.00000E+000	8.24341E-005	5.99601E-002	8.07443E-001	3.57670E+000	9	...........
	40	0.546667	8.15330E-001	9.98249E-005	0.00000E+000	8.13903E-005	5.99601E-002	8.15648E-001	3.57670E+000	9	...........
	41	0.56	8.23301E-001	1.00710E-004	0.00000E+000	8.29150E-005	5.99601E-002	8.23625E-001	3.57670E+000	9	...........
	42	0.573333	8.30992E-001	1.00303E-004	0.00000E+000	8.33511E-005	5.99601E-002	8.31316E-001	3.57670E+000	9	...........
	43	0.586667	8.38473E-001	1.02067E-004	0.00000E+000	8.55804E-005	5.99601E-002	8.38793E-001	3.57670E+000	9	...........
	44	0.6	8.45730E-001	1.02231E-004	0.00000E+000	8.64595E-005	5.99601E-002	8.46047E-001	3.57670E+000	9	...........
	45	0.613333	8.52750E-001	1.01016E-004	0.00000E+000	8.61412E-005	5.99601E-002	8.53072E-001	3.57670E+000	9	...........
	46	0.626667	8.59534E-001	1.02562E-004	0.00000E+000	8.81555E-005	5.99601E-002	8.59863E-001	3.57670E+000	9	...........
	47	0.64	8.66133E-001	1.01718E-004	0.00000E+000	8.81013E-005	5.99601E-002	8.66444E-001	3.57670E+000	9	...........
	48	0.653333	8.72559E-001	1.00469E-004	0.00000E+000	8.76649E-005	5.99601E-002	8.72871E-001	3.57670E+000	9	...........
	49	0.666667	8.78749E-001	1.00719E-004	0.00000E+000	8.85065E-005	5.99601E-002	8.79036E-001	3.57670E+000	9	...........
	50	0.68	8.84772E-001	1.00496E-004	0.00000E+000	8.89159E-005	5.99601E-002	8.85065E-001	3.57670E+000	9	...........
	51	0.693333	8.90612E-001	1.01002E-004	0.00000E+000	8.99538E-005	5.99601E-002	8.90904E-001	3.57670E+000	9	...........
	52	0.706667	8.96301E-001	1.01294E-004	0.00000E+000	9.07899E-005	5.99601E-002	8.96603E-001	3.57670E+000	9	...........
	53	0.72	9.01829E-001	9.97728E-005	0.00000E+000	8.99780E-005	5.99601E-002	9.02115E-001	3.57670E+000	9	...........
	54	0.733333	9.07241E-001	1.02130E-004	0.00000E+000	9.26561E-005	5.99601E-002	9.07532E-001	3.57670E+000	9	...........
	55	0.746667	9.12507E-001	1.01445E-004	0.00000E+000	9.25693E-005	5.99601E-002	9.12790E-001	3.57734E+000	9	...........
	56	0.76	9.17633E-001	1.01327E-004	0.00000E+000	9.29813E-005	5.99601E-002	9.17963E-001	3.57810E+000	9	...........
	57	0.773333	9.22730E-001	1.00863E-004	0.00000E+000	9.30689E-005	5.99601E-002	9.23008E-001	3.57810E+000	9	...........
	58	0.786667	9.27659E-001	1.01967E-004	0.00000E+000	9.45907E-005	5.99601E-002	9.27925E-001	3.57810E+000	9	...........
	59	0.8	9.32479E-001	1.01527E-004	0.00000E+000	9.46721E-005	5.99601E-002	9.32760E-001	3.57810E+000	9	...........
	60	0.813333	9.37224E-001	1.00467E-004	0.00000E+000	9.41598E-005	5.99601E-002	9.37517E-001	3.57810E+000	9	...........
	61	0.826667	9.41847E-001	1.01126E-004	0.00000E+000	9.52454E-005	5.99601E-002	9.42145E-001	3.57810E+000	9	...........
	62	0.84	9.46431E-001	1.01124E-004	0.00000E+000	9.57070E-005	5.99601E-002	9.46763E-001	3.57810E+000	9	...........
	63	0.853333	9.50939E-001	1.00614E-004	0.00000E+000	9.56774E-005	5.99601E-002	9.51228E-001	3.57810E+000	9	...........
	64	0.866667	9.55344E-001	9.99447E-005	0.00000E+000	9.54816E-005	5.99601E-002	9.55644E-001	3.57810E+000	9	...........
	65	0.88	9.59672E-001	1.00657E-004	0.00000E+000	9.65981E-005	5.99601E-002	9.60003E-001	3.57810E+000	9	...........
	66	0.893333	9.63915E-001	1.01053E-004	0.00000E+000	9.74068E-005	5.99601E-002	9.64260E-001	3.57810E+000	9	...........
	67	0.906667	9.68094E-001	1.00896E-004	0.00000E+000	9.76768E-005	5.99601E-002	9.68449E-001	3.57810E+000	9	...........
	68	0.92	9.72217E-001	1.01732E-004	0.00000E+000	9.89051E-005	5.99601E-002	9.72571E-001	3.57810E+000	9	...........
	69	0.933333	9.76255E-001	1.01146E-004	0.00000E+000	9.87443E-005	5.99601E-002	9.76590E-001	3.57810E+000	9	...........
	70	0.946667	9.80209E-001	1.01746E-004	0.00000E+000	9.97324E-005	5.99601E-002	9.80535E-001	3.57810E+000	9	...........
	71	0.96	9.84076E-001	1.01274E-004	0.00000E+000	9.96615E-005	5.99601E-002	9.84405E-001	3.57810E+000	9	...........
	72	0.97333	9.87875E-001	1.00962E-004	0.00000E+000	9.97375E-005	5.99601E-002	9.88195E-001	3.57810E+000	9	...........
	73	0.98667	9.91564E-001	1.00592E-004	0.00000E+000	9.97431E-005	5.99601E-002	9.91902E-001	3.57810E+000	9	...........
	74	1	9.95196E-001	1.01378E-004	0.00000E+000	1.00891E-004	5.99601E-002	9.95537E-001	3.57810E+000	9	...........
	75	1.01333	9.98758E-001	1.01037E-004	0.00000E+000	1.00911E-004	5.99601E-002	9.99095E-001	3.57810E+000	9	...........
STARTTIMEOFFSET	QUANT	930.3118	Start Time Offset (s)
