EXPLAIN
TAG	PWR800_CHARGE
TITLE	LABEL	PWR Cyclic Charge Discharge (Cell) - Charge Step	Test &Identifier
DATE	LABEL	12-7-2017	Date
TIME	LABEL	16:51:53	Time
NOTES	NOTES	2	&Notes...
	supercap test cell
	6M KOH
PSTAT	PSTAT	IFC5000-01520	Potentiostat
CAPACITY	QUANT	1.00000E-003	Capacity (A-hr)
CELLTYPE	SELECTOR	1	&Cell Type
WORKINGCONNECTION	SELECTOR	0	&Working Lead
MAXCHARGETIME	VARIABLEANDUNITS	1.00000E+002	s	1.00000E+002	second(s)	Max &Charge Time
CHARGECURRENT	QUANT	1.00000E-004	&Charge Current (A) 
VOLTAGEFINISH	TWOPARAM	F	1.00000E-003	3.60000E+003	&Voltage Finish	 I (A) < 	Max Time(s)
SAMPLETIME	QUANT	1.00000E-002	Sa&mple Period (s)
CHARGESTOPAT1	MULTIPARAM	4	1.00000E+000	Charge Stop At &1	Voltage > Limit	V
CHARGESTOPAT2	MULTIPARAM	0	0.00000E+000	Charge Stop At &2	None	N/A
AESBHCSELECTOR	TOGGLE	F	Save Both Half Cells
IRCOMP	TOGGLE	F	IR &Measure
EOC	QUANT	0	Open Circuit (V)
SEQUENCER	TOGGLE	TRUE	Run as Sequence
PSTATMODEL	IQUANT	53	Pstat Model
PSTATSECTION	LABEL	IFC5000-01520	Pstat Section
PSTATSERIALNO	LABEL	01520	Pstat Serial Number
CTRLMODE	IQUANT	0	Control Mode
ELECTROMETER	IQUANT	1	RE=0 or CS=1
IESTAB	IQUANT	0	I/E Stability
CASPEED	IQUANT	4	Control Amp Speed
CONVENTION	IQUANT	1	Current Convention
ICHRANGE	IQUANT	2	Ich Range
ICHRANGEMODE	TOGGLE	T	Ich Auto Range
ICHOFFSETENABLE	TOGGLE	F	Ich Offset Enable
ICHOFFSET	QUANT	0	Ich Offset (V)
ICHFILTER	IQUANT	1	Ich Filter
VCHRANGE	IQUANT	2	Vch Range
VCHRANGEMODE	TOGGLE	T	Vch Auto Range
VCHOFFSETENABLE	TOGGLE	F	Vch Offset Enable
VCHOFFSET	QUANT	0	Vch Offset (V)
VCHFILTER	IQUANT	1	Vch Filter
IERANGELOWERLIMIT	IQUANT	9	I/E Range Lower Limit
IERANGEMODE	TOGGLE	F	I/E AutoRange
IERANGE	IQUANT	9	I/E Range
ACHSELECT	IQUANT	1	Ach Select
ACHRANGE	IQUANT	2	Ach Range
ACHOFFSETENABLE	TOGGLE	F	Ach Offset Enable
ACHOFFSET	QUANT	0	Ach Offset (V)
ACHFILTER	IQUANT	1	Ach Filter
CABLEID	IQUANT	14	Cable ID
DCCALDATE	LABEL	5-7-2017	DC Calibration Date
ACCALDATE	LABEL	12/3/2015	AC Calibration Date
FRAMEWORKVERSION	QUANT	7.01	Framework Version
INSTRUMENTVERSION	LABEL	4.00	Instrument Version
CURVE	TABLE	74
	Pt	T	Vf	Im	Vu	Pwr	Sig	Ach	Temp	IERange	Over
	#	s	V	A	V	W	V	V	deg C	#	bits
	0	0.013333	2.55916E-001	1.02039E-004	0.00000E+000	2.61133E-005	5.99601E-002	2.56000E-001	3.57770E+000	9	...........
	1	0.026667	2.79081E-001	1.01324E-004	0.00000E+000	2.82776E-005	5.99601E-002	2.79142E-001	3.57770E+000	9	...........
	2	0.04	3.01006E-001	1.00971E-004	0.00000E+000	3.03929E-005	5.99601E-002	3.01071E-001	3.57770E+000	9	...........
	3	0.053333	3.22043E-001	1.00959E-004	0.00000E+000	3.25133E-005	5.99601E-002	3.22108E-001	3.57770E+000	9	...........
	4	0.066667	3.42369E-001	1.01172E-004	0.00000E+000	3.46382E-005	5.99601E-002	3.42438E-001	3.57770E+000	9	...........
	5	0.08	3.62102E-001	1.01110E-004	0.00000E+000	3.66119E-005	5.99601E-002	3.62171E-001	3.57770E+000	9	...........
	6	0.093333	3.81313E-001	1.01373E-004	0.00000E+000	3.86548E-005	5.99601E-002	3.81391E-001	3.57770E+000	9	...........
	7	0.106667	4.00055E-001	1.02290E-004	0.00000E+000	4.09216E-005	5.99601E-002	4.00133E-001	3.57770E+000	9	...........
	8	0.12	4.18361E-001	1.00965E-004	0.00000E+000	4.22397E-005	5.99601E-002	4.18445E-001	3.57770E+000	9	...........
	9	0.133333	4.36256E-001	1.01082E-004	0.00000E+000	4.40978E-005	5.99601E-002	4.36344E-001	3.57770E+000	9	...........
	10	0.146667	4.53755E-001	9.96561E-005	0.00000E+000	4.52195E-005	5.99601E-002	4.53847E-001	3.57770E+000	9	...........
	11	0.16	4.70877E-001	1.00222E-004	0.00000E+000	4.71922E-005	5.99601E-002	4.70973E-001	3.57770E+000	9	...........
	12	0.173333	4.87636E-001	1.00817E-004	0.00000E+000	4.91619E-005	5.99601E-002	4.87734E-001	3.57770E+000	9	...........
	13	0.186667	5.04026E-001	1.00002E-004	0.00000E+000	5.04036E-005	5.99601E-002	5.04132E-001	3.57770E+000	9	...........
	14	0.2	5.20062E-001	1.01504E-004	0.00000E+000	5.27886E-005	5.99601E-002	5.20173E-001	3.57770E+000	9	...........
	15	0.213333	5.35614E-001	1.00306E-004	0.00000E+000	5.37254E-005	5.99601E-002	5.35731E-001	3.57770E+000	9	...........
	16	0.226667	5.50817E-001	1.02069E-004	0.00000E+000	5.62214E-005	5.99601E-002	5.50994E-001	3.57770E+000	9	...........
	17	0.24	5.65786E-001	1.00492E-004	0.00000E+000	5.68567E-005	5.99601E-002	5.65975E-001	3.57770E+000	9	...........
	18	0.253333	5.80420E-001	1.00654E-004	0.00000E+000	5.84217E-005	5.99601E-002	5.80597E-001	3.57770E+000	9	...........
	19	0.266667	5.94739E-001	1.01582E-004	0.00000E+000	6.04145E-005	5.99601E-002	5.94946E-001	3.57770E+000	9	...........
	20	0.28	6.08680E-001	1.00376E-004	0.00000E+000	6.10969E-005	5.99601E-002	6.08909E-001	3.57770E+000	9	...........
	21	0.293333	6.22370E-001	1.00492E-004	0.00000E+000	6.25430E-005	5.99601E-002	6.22561E-001	3.57770E+000	9	...........
	22	0.306667	6.35644E-001	1.02845E-004	0.00000E+000	6.53730E-005	5.99601E-002	6.35852E-001	3.57770E+000	9	...........
	23	0.32	6.48632E-001	1.01209E-004	0.00000E+000	6.56471E-005	5.99601E-002	6.48851E-001	3.57770E+000	9	...........
	24	0.333333	6.61280E-001	1.01789E-004	0.00000E+000	6.73109E-005	5.99601E-002	6.61493E-001	3.57770E+000	9	...........
	25	0.346667	6.73635E-001	1.01316E-004	0.00000E+000	6.82499E-005	5.99601E-002	6.73848E-001	3.57770E+000	9	...........
	26	0.36	6.85636E-001	1.00753E-004	0.00000E+000	6.90800E-005	5.99601E-002	6.85850E-001	3.57770E+000	9	...........
	27	0.373333	6.97348E-001	1.01191E-004	0.00000E+000	7.05652E-005	5.99601E-002	6.97568E-001	3.57770E+000	9	...........
	28	0.386667	7.08722E-001	1.01265E-004	0.00000E+000	7.17686E-005	5.99601E-002	7.08956E-001	3.57770E+000	9	...........
	29	0.4	7.19850E-001	1.01212E-004	0.00000E+000	7.28572E-005	5.99601E-002	7.20069E-001	3.57770E+000	9	...........
	30	0.413333	7.30611E-001	1.00489E-004	0.00000E+000	7.34181E-005	5.99601E-002	7.30876E-001	3.57770E+000	9	...........
	31	0.426667	7.41117E-001	1.00011E-004	0.00000E+000	7.41201E-005	5.99601E-002	7.41361E-001	3.57770E+000	9	...........
	32	0.44	7.51307E-001	1.00996E-004	0.00000E+000	7.58789E-005	5.99601E-002	7.51579E-001	3.57770E+000	9	...........
	33	0.453333	7.61233E-001	1.01565E-004	0.00000E+000	7.73145E-005	5.99601E-002	7.61481E-001	3.57770E+000	9	...........
	34	0.466667	7.70868E-001	1.02007E-004	0.00000E+000	7.86336E-005	5.99601E-002	7.71144E-001	3.57729E+000	9	...........
	35	0.48	7.80210E-001	1.01220E-004	0.00000E+000	7.89728E-005	5.99601E-002	7.80490E-001	3.57660E+000	9	...........
	36	0.493333	7.89287E-001	1.01723E-004	0.00000E+000	8.02888E-005	5.99601E-002	7.89574E-001	3.57660E+000	9	...........
	37	0.506667	7.98119E-001	1.01303E-004	0.00000E+000	8.08521E-005	5.99601E-002	7.98382E-001	3.57660E+000	9	...........
	38	0.52	8.06671E-001	1.01694E-004	0.00000E+000	8.20336E-005	5.99601E-002	8.06916E-001	3.57660E+000	9	...........
	39	0.533333	8.14901E-001	1.00424E-004	0.00000E+000	8.18356E-005	5.99601E-002	8.15190E-001	3.57660E+000	9	...........
	40	0.546667	8.22929E-001	1.01307E-004	0.00000E+000	8.33689E-005	5.99601E-002	8.23230E-001	3.57660E+000	9	...........
	41	0.56	8.30700E-001	9.98603E-005	0.00000E+000	8.29539E-005	5.99601E-002	8.30961E-001	3.57660E+000	9	...........
	42	0.573333	8.38205E-001	1.01672E-004	0.00000E+000	8.52221E-005	5.99601E-002	8.38488E-001	3.57660E+000	9	...........
	43	0.586667	8.45508E-001	1.00361E-004	0.00000E+000	8.48564E-005	5.99601E-002	8.45792E-001	3.57660E+000	9	...........
	44	0.6	8.52544E-001	1.00987E-004	0.00000E+000	8.60955E-005	5.99601E-002	8.52856E-001	3.57660E+000	9	...........
	45	0.613333	8.59392E-001	1.01304E-004	0.00000E+000	8.70601E-005	5.99601E-002	8.59692E-001	3.57660E+000	9	...........
	46	0.626667	8.66012E-001	1.01028E-004	0.00000E+000	8.74916E-005	5.99601E-002	8.66311E-001	3.57660E+000	9	...........
	47	0.64	8.72481E-001	1.00331E-004	0.00000E+000	8.75371E-005	5.99601E-002	8.72771E-001	3.57660E+000	9	...........
	48	0.653333	8.78709E-001	1.00720E-004	0.00000E+000	8.85034E-005	5.99601E-002	8.79001E-001	3.57660E+000	9	...........
	49	0.666667	8.84800E-001	9.97801E-005	0.00000E+000	8.82854E-005	5.99601E-002	8.85073E-001	3.57660E+000	9	...........
	50	0.68	8.90696E-001	1.01042E-004	0.00000E+000	8.99975E-005	5.99601E-002	8.90973E-001	3.57660E+000	9	...........
	51	0.693333	8.96459E-001	1.01936E-004	0.00000E+000	9.13812E-005	5.99601E-002	8.96749E-001	3.57660E+000	9	...........
	52	0.706667	9.02082E-001	9.99489E-005	0.00000E+000	9.01621E-005	5.99601E-002	9.02370E-001	3.57660E+000	9	...........
	53	0.72	9.07577E-001	1.02265E-004	0.00000E+000	9.28133E-005	5.99601E-002	9.07880E-001	3.57660E+000	9	...........
	54	0.733333	9.12940E-001	1.02430E-004	0.00000E+000	9.35121E-005	5.99601E-002	9.13250E-001	3.57660E+000	9	...........
	55	0.746667	9.18210E-001	1.02224E-004	0.00000E+000	9.38634E-005	5.99601E-002	9.18514E-001	3.57660E+000	9	...........
	56	0.76	9.23439E-001	1.00849E-004	0.00000E+000	9.31280E-005	5.99601E-002	9.23707E-001	3.57660E+000	9	...........
	57	0.773333	9.28480E-001	1.00614E-004	0.00000E+000	9.34177E-005	5.99601E-002	9.28773E-001	3.57660E+000	9	...........
	58	0.786667	9.33474E-001	1.00784E-004	0.00000E+000	9.40797E-005	5.99601E-002	9.33768E-001	3.57660E+000	9	...........
	59	0.8	9.38362E-001	1.01373E-004	0.00000E+000	9.51247E-005	5.99601E-002	9.38689E-001	3.57660E+000	9	...........
	60	0.813333	9.43169E-001	9.97613E-005	0.00000E+000	9.40918E-005	5.99601E-002	9.43508E-001	3.57660E+000	9	...........
	61	0.826667	9.47971E-001	1.01256E-004	0.00000E+000	9.59881E-005	5.99601E-002	9.48273E-001	3.57660E+000	9	...........
	62	0.84	9.52646E-001	1.00730E-004	0.00000E+000	9.59603E-005	5.99601E-002	9.52953E-001	3.57660E+000	9	...........
	63	0.853333	9.57233E-001	1.01423E-004	0.00000E+000	9.70855E-005	5.99601E-002	9.57539E-001	3.57660E+000	9	...........
	64	0.866667	9.61748E-001	1.00124E-004	0.00000E+000	9.62940E-005	5.99601E-002	9.62069E-001	3.57660E+000	9	...........
	65	0.88	9.66196E-001	1.00949E-004	0.00000E+000	9.75366E-005	5.99601E-002	9.66514E-001	3.57660E+000	9	...........
	66	0.893333	9.70554E-001	1.00938E-004	0.00000E+000	9.79654E-005	5.99601E-002	9.70921E-001	3.57660E+000	9	...........
	67	0.906667	9.74899E-001	1.01705E-004	0.00000E+000	9.91526E-005	5.99601E-002	9.75234E-001	3.57660E+000	9	...........
	68	0.92	9.79117E-001	1.00375E-004	0.00000E+000	9.82789E-005	5.99601E-002	9.79431E-001	3.57660E+000	9	...........
	69	0.933333	9.83231E-001	1.00903E-004	0.00000E+000	9.92112E-005	5.99601E-002	9.83560E-001	3.57660E+000	9	...........
	70	0.946667	9.87296E-001	1.02185E-004	0.00000E+000	1.00887E-004	5.99601E-002	9.87619E-001	3.57660E+000	9	...........
	71	0.96	9.91252E-001	1.01748E-004	0.00000E+000	1.00858E-004	5.99601E-002	9.91571E-001	3.57660E+000	9	...........
	72	0.97333	9.95143E-001	1.01922E-004	0.00000E+000	1.01427E-004	5.99601E-002	9.95450E-001	3.57660E+000	9	...........
	73	0.985	9.98710E-001	1.01993E-004	0.00000E+000	1.01862E-004	5.99601E-002	9.99043E-001	3.57660E+000	9	...........
STARTTIMEOFFSET	QUANT	1782.932	Start Time Offset (s)
