EXPLAIN
TAG	PWR800_CHARGE
TITLE	LABEL	PWR Cyclic Charge Discharge (Cell) - Charge Step	Test &Identifier
DATE	LABEL	12-7-2017	Date
TIME	LABEL	16:27:22	Time
NOTES	NOTES	2	&Notes...
	supercap test cell
	6M KOH
PSTAT	PSTAT	IFC5000-01520	Potentiostat
CAPACITY	QUANT	1.00000E-003	Capacity (A-hr)
CELLTYPE	SELECTOR	1	&Cell Type
WORKINGCONNECTION	SELECTOR	0	&Working Lead
MAXCHARGETIME	VARIABLEANDUNITS	1.00000E+002	s	1.00000E+002	second(s)	Max &Charge Time
CHARGECURRENT	QUANT	1.00000E-004	&Charge Current (A) 
VOLTAGEFINISH	TWOPARAM	F	1.00000E-003	3.60000E+003	&Voltage Finish	 I (A) < 	Max Time(s)
SAMPLETIME	QUANT	1.00000E-002	Sa&mple Period (s)
CHARGESTOPAT1	MULTIPARAM	4	1.00000E+000	Charge Stop At &1	Voltage > Limit	V
CHARGESTOPAT2	MULTIPARAM	0	0.00000E+000	Charge Stop At &2	None	N/A
AESBHCSELECTOR	TOGGLE	F	Save Both Half Cells
IRCOMP	TOGGLE	F	IR &Measure
EOC	QUANT	0	Open Circuit (V)
SEQUENCER	TOGGLE	TRUE	Run as Sequence
PSTATMODEL	IQUANT	53	Pstat Model
PSTATSECTION	LABEL	IFC5000-01520	Pstat Section
PSTATSERIALNO	LABEL	01520	Pstat Serial Number
CTRLMODE	IQUANT	0	Control Mode
ELECTROMETER	IQUANT	1	RE=0 or CS=1
IESTAB	IQUANT	0	I/E Stability
CASPEED	IQUANT	4	Control Amp Speed
CONVENTION	IQUANT	1	Current Convention
ICHRANGE	IQUANT	2	Ich Range
ICHRANGEMODE	TOGGLE	T	Ich Auto Range
ICHOFFSETENABLE	TOGGLE	F	Ich Offset Enable
ICHOFFSET	QUANT	0	Ich Offset (V)
ICHFILTER	IQUANT	1	Ich Filter
VCHRANGE	IQUANT	2	Vch Range
VCHRANGEMODE	TOGGLE	T	Vch Auto Range
VCHOFFSETENABLE	TOGGLE	F	Vch Offset Enable
VCHOFFSET	QUANT	0	Vch Offset (V)
VCHFILTER	IQUANT	1	Vch Filter
IERANGELOWERLIMIT	IQUANT	9	I/E Range Lower Limit
IERANGEMODE	TOGGLE	F	I/E AutoRange
IERANGE	IQUANT	9	I/E Range
ACHSELECT	IQUANT	1	Ach Select
ACHRANGE	IQUANT	2	Ach Range
ACHOFFSETENABLE	TOGGLE	F	Ach Offset Enable
ACHOFFSET	QUANT	0	Ach Offset (V)
ACHFILTER	IQUANT	1	Ach Filter
CABLEID	IQUANT	14	Cable ID
DCCALDATE	LABEL	5-7-2017	DC Calibration Date
ACCALDATE	LABEL	12/3/2015	AC Calibration Date
FRAMEWORKVERSION	QUANT	7.01	Framework Version
INSTRUMENTVERSION	LABEL	4.00	Instrument Version
CURVE	TABLE	77
	Pt	T	Vf	Im	Vu	Pwr	Sig	Ach	Temp	IERange	Over
	#	s	V	A	V	W	V	V	deg C	#	bits
	0	0.013333	2.57982E-001	1.00603E-004	0.00000E+000	2.59538E-005	5.99601E-002	2.58052E-001	3.57810E+000	9	...........
	1	0.026667	2.80864E-001	1.00034E-004	0.00000E+000	2.80961E-005	5.99601E-002	2.80928E-001	3.57810E+000	9	...........
	2	0.04	3.02377E-001	1.00207E-004	0.00000E+000	3.03004E-005	5.99601E-002	3.02439E-001	3.57810E+000	9	...........
	3	0.053333	3.22900E-001	1.00298E-004	0.00000E+000	3.23862E-005	5.99601E-002	3.22968E-001	3.57810E+000	9	...........
	4	0.066667	3.42631E-001	1.01356E-004	0.00000E+000	3.47278E-005	5.99601E-002	3.42700E-001	3.57810E+000	9	...........
	5	0.08	3.61688E-001	1.00303E-004	0.00000E+000	3.62785E-005	5.99601E-002	3.61762E-001	3.57810E+000	9	...........
	6	0.093333	3.80184E-001	1.01271E-004	0.00000E+000	3.85016E-005	5.99601E-002	3.80257E-001	3.57810E+000	9	...........
	7	0.106667	3.98170E-001	1.01463E-004	0.00000E+000	4.03994E-005	5.99601E-002	3.98252E-001	3.57810E+000	9	...........
	8	0.12	4.15704E-001	1.00482E-004	0.00000E+000	4.17709E-005	5.99601E-002	4.15790E-001	3.57810E+000	9	...........
	9	0.133333	4.32806E-001	1.00506E-004	0.00000E+000	4.34998E-005	5.99601E-002	4.32896E-001	3.57810E+000	9	...........
	10	0.146667	4.49515E-001	1.00983E-004	0.00000E+000	4.53936E-005	5.99601E-002	4.49604E-001	3.57810E+000	9	...........
	11	0.16	4.65846E-001	1.01300E-004	0.00000E+000	4.71903E-005	5.99601E-002	4.65937E-001	3.57810E+000	9	...........
	12	0.173333	4.81825E-001	1.00304E-004	0.00000E+000	4.83291E-005	5.99601E-002	4.81922E-001	3.57810E+000	9	...........
	13	0.186667	4.97460E-001	1.00894E-004	0.00000E+000	5.01907E-005	5.99601E-002	4.97568E-001	3.57810E+000	9	...........
	14	0.2	5.12760E-001	1.01579E-004	0.00000E+000	5.20858E-005	5.99601E-002	5.12869E-001	3.57810E+000	9	...........
	15	0.213333	5.27747E-001	1.02184E-004	0.00000E+000	5.39271E-005	5.99601E-002	5.27859E-001	3.57810E+000	9	...........
	16	0.226667	5.42111E-001	1.00941E-004	0.00000E+000	5.47210E-005	5.99601E-002	5.42346E-001	3.57810E+000	9	...........
	17	0.24	5.56461E-001	1.01652E-004	0.00000E+000	5.65656E-005	5.99601E-002	5.56729E-001	3.57810E+000	9	...........
	18	0.253333	5.70574E-001	1.01607E-004	0.00000E+000	5.79740E-005	5.99601E-002	5.70823E-001	3.57810E+000	9	...........
	19	0.266667	5.84335E-001	1.00834E-004	0.00000E+000	5.89211E-005	5.99601E-002	5.84607E-001	3.57810E+000	9	...........
	20	0.28	5.97832E-001	1.01285E-004	0.00000E+000	6.05512E-005	5.99601E-002	5.98108E-001	3.57810E+000	9	...........
	21	0.293333	6.11066E-001	1.00549E-004	0.00000E+000	6.14421E-005	5.99601E-002	6.11332E-001	3.57810E+000	9	...........
	22	0.306667	6.24033E-001	1.00229E-004	0.00000E+000	6.25463E-005	5.99601E-002	6.24273E-001	3.57810E+000	9	...........
	23	0.32	6.36701E-001	1.00567E-004	0.00000E+000	6.40309E-005	5.99601E-002	6.36946E-001	3.57810E+000	9	...........
	24	0.333333	6.49103E-001	1.00940E-004	0.00000E+000	6.55202E-005	5.99601E-002	6.49346E-001	3.57810E+000	9	...........
	25	0.346667	6.61216E-001	1.01092E-004	0.00000E+000	6.68435E-005	5.99601E-002	6.61470E-001	3.57810E+000	9	...........
	26	0.36	6.73093E-001	1.01303E-004	0.00000E+000	6.81865E-005	5.99601E-002	6.73324E-001	3.57810E+000	9	...........
	27	0.373333	6.84654E-001	1.00320E-004	0.00000E+000	6.86844E-005	5.99601E-002	6.84913E-001	3.57810E+000	9	...........
	28	0.386667	6.95975E-001	1.01835E-004	0.00000E+000	7.08744E-005	5.99601E-002	6.96233E-001	3.57810E+000	9	...........
	29	0.4	7.07034E-001	1.00674E-004	0.00000E+000	7.11800E-005	5.99601E-002	7.07279E-001	3.57810E+000	9	...........
	30	0.413333	7.17849E-001	9.98520E-005	0.00000E+000	7.16787E-005	5.99601E-002	7.18074E-001	3.57810E+000	9	...........
	31	0.426667	7.28393E-001	1.00428E-004	0.00000E+000	7.31512E-005	5.99601E-002	7.28624E-001	3.57810E+000	9	...........
	32	0.44	7.38659E-001	1.02051E-004	0.00000E+000	7.53812E-005	5.99601E-002	7.38893E-001	3.57810E+000	9	...........
	33	0.453333	7.48716E-001	1.01483E-004	0.00000E+000	7.59816E-005	5.99601E-002	7.48939E-001	3.57810E+000	9	...........
	34	0.466667	7.58503E-001	1.00148E-004	0.00000E+000	7.59625E-005	5.99601E-002	7.58731E-001	3.57810E+000	9	...........
	35	0.48	7.67993E-001	9.94915E-005	0.00000E+000	7.64087E-005	5.99601E-002	7.68264E-001	3.57810E+000	9	...........
	36	0.493333	7.77290E-001	1.01914E-004	0.00000E+000	7.92166E-005	5.99601E-002	7.77546E-001	3.57810E+000	9	...........
	37	0.506667	7.86327E-001	1.00948E-004	0.00000E+000	7.93782E-005	5.99601E-002	7.86601E-001	3.57770E+000	9	...........
	38	0.52	7.95134E-001	1.00878E-004	0.00000E+000	8.02117E-005	5.99601E-002	7.95429E-001	3.57730E+000	9	...........
	39	0.533333	8.03673E-001	1.00379E-004	0.00000E+000	8.06721E-005	5.99601E-002	8.03986E-001	3.57730E+000	9	...........
	40	0.546667	8.11998E-001	1.01301E-004	0.00000E+000	8.22564E-005	5.99601E-002	8.12286E-001	3.57730E+000	9	...........
	41	0.56	8.20096E-001	1.02340E-004	0.00000E+000	8.39286E-005	5.99601E-002	8.20381E-001	3.57730E+000	9	...........
	42	0.573333	8.27946E-001	1.02339E-004	0.00000E+000	8.47311E-005	5.99601E-002	8.28270E-001	3.57730E+000	9	...........
	43	0.586667	8.35539E-001	1.00433E-004	0.00000E+000	8.39160E-005	5.99601E-002	8.35867E-001	3.57730E+000	9	...........
	44	0.6	8.42955E-001	9.99947E-005	0.00000E+000	8.42911E-005	5.99601E-002	8.43268E-001	3.57730E+000	9	...........
	45	0.613333	8.50129E-001	1.00579E-004	0.00000E+000	8.55053E-005	5.99601E-002	8.50449E-001	3.57730E+000	9	...........
	46	0.626667	8.57078E-001	1.00195E-004	0.00000E+000	8.58747E-005	5.99601E-002	8.57398E-001	3.57730E+000	9	...........
	47	0.64	8.63818E-001	1.00981E-004	0.00000E+000	8.72295E-005	5.99601E-002	8.64152E-001	3.57730E+000	9	...........
	48	0.653333	8.70367E-001	1.01443E-004	0.00000E+000	8.82926E-005	5.99601E-002	8.70691E-001	3.57730E+000	9	...........
	49	0.666667	8.76692E-001	1.00240E-004	0.00000E+000	8.78792E-005	5.99601E-002	8.77042E-001	3.57730E+000	9	...........
	50	0.68	8.82828E-001	1.01786E-004	0.00000E+000	8.98592E-005	5.99601E-002	8.83148E-001	3.57730E+000	9	...........
	51	0.693333	8.88776E-001	1.01146E-004	0.00000E+000	8.98962E-005	5.99601E-002	8.89109E-001	3.57730E+000	9	...........
	52	0.706667	8.94555E-001	1.01788E-004	0.00000E+000	9.10547E-005	5.99601E-002	8.94892E-001	3.57730E+000	9	...........
	53	0.72	9.00190E-001	1.00587E-004	0.00000E+000	9.05470E-005	5.99601E-002	9.00520E-001	3.57730E+000	9	...........
	54	0.733333	9.05632E-001	1.01983E-004	0.00000E+000	9.23588E-005	5.99601E-002	9.05974E-001	3.57730E+000	9	...........
	55	0.746667	9.10966E-001	1.00576E-004	0.00000E+000	9.16214E-005	5.99601E-002	9.11267E-001	3.57730E+000	9	...........
	56	0.76	9.16141E-001	1.01969E-004	0.00000E+000	9.34181E-005	5.99601E-002	9.16473E-001	3.57730E+000	9	...........
	57	0.773333	9.21237E-001	1.01210E-004	0.00000E+000	9.32380E-005	5.99601E-002	9.21544E-001	3.57730E+000	9	...........
	58	0.786667	9.26209E-001	1.00811E-004	0.00000E+000	9.33716E-005	5.99601E-002	9.26509E-001	3.57730E+000	9	...........
	59	0.8	9.31012E-001	1.00142E-004	0.00000E+000	9.32330E-005	5.99601E-002	9.31322E-001	3.57730E+000	9	...........
	60	0.813333	9.35771E-001	1.00624E-004	0.00000E+000	9.41610E-005	5.99601E-002	9.36078E-001	3.57730E+000	9	...........
	61	0.826667	9.40424E-001	1.01529E-004	0.00000E+000	9.54807E-005	5.99601E-002	9.40738E-001	3.57730E+000	9	...........
	62	0.84	9.44954E-001	1.01595E-004	0.00000E+000	9.60027E-005	5.99601E-002	9.45288E-001	3.57730E+000	9	...........
	63	0.853333	9.49455E-001	1.00177E-004	0.00000E+000	9.51136E-005	5.99601E-002	9.49770E-001	3.57730E+000	9	...........
	64	0.866667	9.53850E-001	1.01200E-004	0.00000E+000	9.65298E-005	5.99601E-002	9.54139E-001	3.57730E+000	9	...........
	65	0.88	9.58153E-001	1.01190E-004	0.00000E+000	9.69553E-005	5.99601E-002	9.58444E-001	3.57730E+000	9	...........
	66	0.893333	9.62368E-001	1.01314E-004	0.00000E+000	9.75011E-005	5.99601E-002	9.62668E-001	3.57730E+000	9	...........
	67	0.906667	9.66519E-001	1.00678E-004	0.00000E+000	9.73074E-005	5.99601E-002	9.66833E-001	3.57730E+000	9	...........
	68	0.92	9.70585E-001	1.00861E-004	0.00000E+000	9.78937E-005	5.99601E-002	9.70945E-001	3.57730E+000	9	...........
	69	0.933333	9.74639E-001	1.01924E-004	0.00000E+000	9.93394E-005	5.99601E-002	9.74965E-001	3.57730E+000	9	...........
	70	0.946667	9.78544E-001	1.00406E-004	0.00000E+000	9.82520E-005	5.99601E-002	9.78893E-001	3.57730E+000	9	...........
	71	0.96	9.82370E-001	1.01621E-004	0.00000E+000	9.98295E-005	5.99601E-002	9.82714E-001	3.57730E+000	9	...........
	72	0.97333	9.86152E-001	1.00113E-004	0.00000E+000	9.87271E-005	5.99601E-002	9.86472E-001	3.57730E+000	9	...........
	73	0.98667	9.89830E-001	1.01508E-004	0.00000E+000	1.00475E-004	5.99601E-002	9.90136E-001	3.57730E+000	9	...........
	74	1	9.93404E-001	1.01028E-004	0.00000E+000	1.00362E-004	5.99601E-002	9.93751E-001	3.57730E+000	9	...........
	75	1.01333	9.96927E-001	1.01272E-004	0.00000E+000	1.00961E-004	5.99601E-002	9.97274E-001	3.57730E+000	9	...........
	76	1.02	9.99508E-001	9.99145E-005	0.00000E+000	9.98654E-005	5.99601E-002	9.99862E-001	3.57730E+000	9	...........
STARTTIMEOFFSET	QUANT	740.3666	Start Time Offset (s)
