EXPLAIN
TAG	PWR800_CHARGE
TITLE	LABEL	PWR Cyclic Charge Discharge (Cell) - Charge Step	Test &Identifier
DATE	LABEL	12-7-2017	Date
TIME	LABEL	16:19:48	Time
NOTES	NOTES	2	&Notes...
	supercap test cell
	6M KOH
PSTAT	PSTAT	IFC5000-01520	Potentiostat
CAPACITY	QUANT	1.00000E-003	Capacity (A-hr)
CELLTYPE	SELECTOR	1	&Cell Type
WORKINGCONNECTION	SELECTOR	0	&Working Lead
MAXCHARGETIME	VARIABLEANDUNITS	1.00000E+002	s	1.00000E+002	second(s)	Max &Charge Time
CHARGECURRENT	QUANT	1.00000E-004	&Charge Current (A) 
VOLTAGEFINISH	TWOPARAM	F	1.00000E-003	3.60000E+003	&Voltage Finish	 I (A) < 	Max Time(s)
SAMPLETIME	QUANT	1.00000E-002	Sa&mple Period (s)
CHARGESTOPAT1	MULTIPARAM	4	1.00000E+000	Charge Stop At &1	Voltage > Limit	V
CHARGESTOPAT2	MULTIPARAM	0	0.00000E+000	Charge Stop At &2	None	N/A
AESBHCSELECTOR	TOGGLE	F	Save Both Half Cells
IRCOMP	TOGGLE	F	IR &Measure
EOC	QUANT	0	Open Circuit (V)
SEQUENCER	TOGGLE	TRUE	Run as Sequence
PSTATMODEL	IQUANT	53	Pstat Model
PSTATSECTION	LABEL	IFC5000-01520	Pstat Section
PSTATSERIALNO	LABEL	01520	Pstat Serial Number
CTRLMODE	IQUANT	0	Control Mode
ELECTROMETER	IQUANT	1	RE=0 or CS=1
IESTAB	IQUANT	0	I/E Stability
CASPEED	IQUANT	4	Control Amp Speed
CONVENTION	IQUANT	1	Current Convention
ICHRANGE	IQUANT	2	Ich Range
ICHRANGEMODE	TOGGLE	T	Ich Auto Range
ICHOFFSETENABLE	TOGGLE	F	Ich Offset Enable
ICHOFFSET	QUANT	0	Ich Offset (V)
ICHFILTER	IQUANT	1	Ich Filter
VCHRANGE	IQUANT	2	Vch Range
VCHRANGEMODE	TOGGLE	T	Vch Auto Range
VCHOFFSETENABLE	TOGGLE	F	Vch Offset Enable
VCHOFFSET	QUANT	0	Vch Offset (V)
VCHFILTER	IQUANT	1	Vch Filter
IERANGELOWERLIMIT	IQUANT	9	I/E Range Lower Limit
IERANGEMODE	TOGGLE	F	I/E AutoRange
IERANGE	IQUANT	9	I/E Range
ACHSELECT	IQUANT	1	Ach Select
ACHRANGE	IQUANT	2	Ach Range
ACHOFFSETENABLE	TOGGLE	F	Ach Offset Enable
ACHOFFSET	QUANT	0	Ach Offset (V)
ACHFILTER	IQUANT	1	Ach Filter
CABLEID	IQUANT	14	Cable ID
DCCALDATE	LABEL	5-7-2017	DC Calibration Date
ACCALDATE	LABEL	12/3/2015	AC Calibration Date
FRAMEWORKVERSION	QUANT	7.01	Framework Version
INSTRUMENTVERSION	LABEL	4.00	Instrument Version
CURVE	TABLE	78
	Pt	T	Vf	Im	Vu	Pwr	Sig	Ach	Temp	IERange	Over
	#	s	V	A	V	W	V	V	deg C	#	bits
	0	0.013333	2.62506E-001	1.01748E-004	0.00000E+000	2.67095E-005	5.99601E-002	2.62584E-001	3.57840E+000	9	...........
	1	0.026667	2.85206E-001	1.01080E-004	0.00000E+000	2.88287E-005	5.99601E-002	2.85269E-001	3.57840E+000	9	...........
	2	0.04	3.06421E-001	1.01073E-004	0.00000E+000	3.09709E-005	5.99601E-002	3.06484E-001	3.57840E+000	9	...........
	3	0.053333	3.26526E-001	1.00257E-004	0.00000E+000	3.27366E-005	5.99601E-002	3.26589E-001	3.57840E+000	9	...........
	4	0.066667	3.45753E-001	1.00370E-004	0.00000E+000	3.47032E-005	5.99601E-002	3.45821E-001	3.57840E+000	9	...........
	5	0.08	3.64250E-001	1.00720E-004	0.00000E+000	3.66872E-005	5.99601E-002	3.64318E-001	3.57840E+000	9	...........
	6	0.093333	3.82124E-001	1.00608E-004	0.00000E+000	3.84448E-005	5.99601E-002	3.82198E-001	3.57840E+000	9	...........
	7	0.106667	3.99446E-001	1.00923E-004	0.00000E+000	4.03133E-005	5.99601E-002	3.99523E-001	3.57840E+000	9	...........
	8	0.12	4.16286E-001	1.00551E-004	0.00000E+000	4.18581E-005	5.99601E-002	4.16368E-001	3.57840E+000	9	...........
	9	0.133333	4.32681E-001	1.00443E-004	0.00000E+000	4.34597E-005	5.99601E-002	4.32773E-001	3.57840E+000	9	...........
	10	0.146667	4.48677E-001	1.00977E-004	0.00000E+000	4.53061E-005	5.99601E-002	4.48772E-001	3.57840E+000	9	...........
	11	0.16	4.64310E-001	1.01316E-004	0.00000E+000	4.70420E-005	5.99601E-002	4.64404E-001	3.57840E+000	9	...........
	12	0.173333	4.79586E-001	1.01224E-004	0.00000E+000	4.85457E-005	5.99601E-002	4.79687E-001	3.57840E+000	9	...........
	13	0.186667	4.94532E-001	1.01721E-004	0.00000E+000	5.03043E-005	5.99601E-002	4.94637E-001	3.57840E+000	9	...........
	14	0.2	5.09164E-001	1.01374E-004	0.00000E+000	5.16161E-005	5.99601E-002	5.09271E-001	3.57840E+000	9	...........
	15	0.213333	5.23505E-001	1.00753E-004	0.00000E+000	5.27449E-005	5.99601E-002	5.23620E-001	3.57840E+000	9	...........
	16	0.226667	5.37324E-001	1.00825E-004	0.00000E+000	5.41757E-005	5.99601E-002	5.37542E-001	3.57840E+000	9	...........
	17	0.24	5.51005E-001	1.00428E-004	0.00000E+000	5.53364E-005	5.99601E-002	5.51255E-001	3.57840E+000	9	...........
	18	0.253333	5.64534E-001	1.01365E-004	0.00000E+000	5.72239E-005	5.99601E-002	5.64802E-001	3.57840E+000	9	...........
	19	0.266667	5.77815E-001	1.01171E-004	0.00000E+000	5.84581E-005	5.99601E-002	5.78071E-001	3.57840E+000	9	...........
	20	0.28	5.90846E-001	1.02193E-004	0.00000E+000	6.03804E-005	5.99601E-002	5.91100E-001	3.57840E+000	9	...........
	21	0.293333	6.03591E-001	9.99520E-005	0.00000E+000	6.03301E-005	5.99601E-002	6.03858E-001	3.57840E+000	9	...........
	22	0.306667	6.16139E-001	1.01831E-004	0.00000E+000	6.27418E-005	5.99601E-002	6.16397E-001	3.57840E+000	9	...........
	23	0.32	6.28451E-001	1.01047E-004	0.00000E+000	6.35031E-005	5.99601E-002	6.28674E-001	3.57840E+000	9	...........
	24	0.333333	6.40472E-001	1.00884E-004	0.00000E+000	6.46137E-005	5.99601E-002	6.40732E-001	3.57840E+000	9	...........
	25	0.346667	6.52318E-001	1.00431E-004	0.00000E+000	6.55131E-005	5.99601E-002	6.52571E-001	3.57840E+000	9	...........
	26	0.36	6.63912E-001	1.00735E-004	0.00000E+000	6.68795E-005	5.99601E-002	6.64173E-001	3.57840E+000	9	...........
	27	0.373333	6.75290E-001	1.00675E-004	0.00000E+000	6.79848E-005	5.99601E-002	6.75558E-001	3.57840E+000	9	...........
	28	0.386667	6.86433E-001	1.00998E-004	0.00000E+000	6.93284E-005	5.99601E-002	6.86708E-001	3.57840E+000	9	...........
	29	0.4	6.97359E-001	9.95644E-005	0.00000E+000	6.94322E-005	5.99601E-002	6.97640E-001	3.57840E+000	9	...........
	30	0.413333	7.08044E-001	1.00624E-004	0.00000E+000	7.12463E-005	5.99601E-002	7.08316E-001	3.57840E+000	9	...........
	31	0.426667	7.18536E-001	1.01238E-004	0.00000E+000	7.27429E-005	5.99601E-002	7.18795E-001	3.57840E+000	9	...........
	32	0.44	7.28802E-001	1.01359E-004	0.00000E+000	7.38703E-005	5.99601E-002	7.29053E-001	3.57840E+000	9	...........
	33	0.453333	7.38799E-001	1.00852E-004	0.00000E+000	7.45095E-005	5.99601E-002	7.39073E-001	3.57840E+000	9	...........
	34	0.466667	7.48626E-001	1.00201E-004	0.00000E+000	7.50130E-005	5.99601E-002	7.48913E-001	3.57840E+000	9	...........
	35	0.48	7.58223E-001	1.01046E-004	0.00000E+000	7.66154E-005	5.99601E-002	7.58477E-001	3.57840E+000	9	...........
	36	0.493333	7.67586E-001	1.01194E-004	0.00000E+000	7.76751E-005	5.99601E-002	7.67884E-001	3.57840E+000	9	...........
	37	0.506667	7.76731E-001	1.00385E-004	0.00000E+000	7.79725E-005	5.99601E-002	7.77026E-001	3.57840E+000	9	...........
	38	0.52	7.85668E-001	1.01856E-004	0.00000E+000	8.00246E-005	5.99601E-002	7.85950E-001	3.57840E+000	9	...........
	39	0.533333	7.94389E-001	1.01665E-004	0.00000E+000	8.07614E-005	5.99601E-002	7.94684E-001	3.57840E+000	9	...........
	40	0.546667	8.02882E-001	1.01022E-004	0.00000E+000	8.11087E-005	5.99601E-002	8.03178E-001	3.57840E+000	9	...........
	41	0.56	8.11142E-001	1.01313E-004	0.00000E+000	8.21790E-005	5.99601E-002	8.11438E-001	3.57830E+000	9	...........
	42	0.573333	8.19237E-001	1.00751E-004	0.00000E+000	8.25390E-005	5.99601E-002	8.19553E-001	3.57760E+000	9	...........
	43	0.586667	8.27083E-001	1.00920E-004	0.00000E+000	8.34692E-005	5.99601E-002	8.27402E-001	3.57760E+000	9	...........
	44	0.6	8.34732E-001	1.02269E-004	0.00000E+000	8.53674E-005	5.99601E-002	8.35052E-001	3.57760E+000	9	...........
	45	0.613333	8.42171E-001	1.00751E-004	0.00000E+000	8.48497E-005	5.99601E-002	8.42469E-001	3.57760E+000	9	...........
	46	0.626667	8.49435E-001	1.00875E-004	0.00000E+000	8.56869E-005	5.99601E-002	8.49731E-001	3.57760E+000	9	...........
	47	0.64	8.56434E-001	1.00940E-004	0.00000E+000	8.64482E-005	5.99601E-002	8.56759E-001	3.57760E+000	9	...........
	48	0.653333	8.63289E-001	1.01663E-004	0.00000E+000	8.77644E-005	5.99601E-002	8.63603E-001	3.57760E+000	9	...........
	49	0.666667	8.69934E-001	1.01512E-004	0.00000E+000	8.83085E-005	5.99601E-002	8.70252E-001	3.57760E+000	9	...........
	50	0.68	8.76359E-001	1.00730E-004	0.00000E+000	8.82759E-005	5.99601E-002	8.76709E-001	3.57760E+000	9	...........
	51	0.693333	8.82604E-001	1.01125E-004	0.00000E+000	8.92535E-005	5.99601E-002	8.82948E-001	3.57760E+000	9	...........
	52	0.706667	8.88650E-001	1.01559E-004	0.00000E+000	9.02500E-005	5.99601E-002	8.88997E-001	3.57760E+000	9	...........
	53	0.72	8.94520E-001	1.00489E-004	0.00000E+000	8.98890E-005	5.99601E-002	8.94873E-001	3.57760E+000	9	...........
	54	0.733333	9.00228E-001	1.01502E-004	0.00000E+000	9.13752E-005	5.99601E-002	9.00584E-001	3.57760E+000	9	...........
	55	0.746667	9.05760E-001	1.00899E-004	0.00000E+000	9.13903E-005	5.99601E-002	9.06115E-001	3.57760E+000	9	...........
	56	0.76	9.11151E-001	9.98874E-005	0.00000E+000	9.10125E-005	5.99601E-002	9.11483E-001	3.57760E+000	9	...........
	57	0.773333	9.16379E-001	1.02072E-004	0.00000E+000	9.35368E-005	5.99601E-002	9.16722E-001	3.57760E+000	9	...........
	58	0.786667	9.21517E-001	1.01340E-004	0.00000E+000	9.33863E-005	5.99601E-002	9.21819E-001	3.57760E+000	9	...........
	59	0.8	9.26490E-001	1.01647E-004	0.00000E+000	9.41751E-005	5.99601E-002	9.26789E-001	3.57760E+000	9	...........
	60	0.813333	9.31309E-001	1.01318E-004	0.00000E+000	9.43583E-005	5.99601E-002	9.31607E-001	3.57760E+000	9	...........
	61	0.826667	9.36014E-001	1.00430E-004	0.00000E+000	9.40041E-005	5.99601E-002	9.36360E-001	3.57760E+000	9	...........
	62	0.84	9.40602E-001	1.00724E-004	0.00000E+000	9.47412E-005	5.99601E-002	9.40941E-001	3.57760E+000	9	...........
	63	0.853333	9.45103E-001	1.01023E-004	0.00000E+000	9.54772E-005	5.99601E-002	9.45439E-001	3.57760E+000	9	...........
	64	0.866667	9.49520E-001	1.00639E-004	0.00000E+000	9.55584E-005	5.99601E-002	9.49856E-001	3.57760E+000	9	...........
	65	0.88	9.53826E-001	1.01988E-004	0.00000E+000	9.72787E-005	5.99601E-002	9.54160E-001	3.57760E+000	9	...........
	66	0.893333	9.58048E-001	1.01138E-004	0.00000E+000	9.68947E-005	5.99601E-002	9.58376E-001	3.57760E+000	9	...........
	67	0.906667	9.62152E-001	1.01262E-004	0.00000E+000	9.74291E-005	5.99601E-002	9.62515E-001	3.57760E+000	9	...........
	68	0.92	9.66192E-001	1.01688E-004	0.00000E+000	9.82499E-005	5.99601E-002	9.66566E-001	3.57760E+000	9	...........
	69	0.933333	9.70149E-001	1.01360E-004	0.00000E+000	9.83339E-005	5.99601E-002	9.70543E-001	3.57760E+000	9	...........
	70	0.946667	9.74101E-001	1.01753E-004	0.00000E+000	9.91181E-005	5.99601E-002	9.74448E-001	3.57760E+000	9	...........
	71	0.96	9.77898E-001	1.00509E-004	0.00000E+000	9.82879E-005	5.99601E-002	9.78284E-001	3.57760E+000	9	...........
	72	0.97333	9.81645E-001	1.02290E-004	0.00000E+000	1.00413E-004	5.99601E-002	9.81979E-001	3.57760E+000	9	...........
	73	0.98667	9.85286E-001	1.01295E-004	0.00000E+000	9.98045E-005	5.99601E-002	9.85625E-001	3.57760E+000	9	...........
	74	1	9.88828E-001	1.01114E-004	0.00000E+000	9.99841E-005	5.99601E-002	9.89210E-001	3.57760E+000	9	...........
	75	1.01333	9.92299E-001	1.01835E-004	0.00000E+000	1.01051E-004	5.99601E-002	9.92670E-001	3.57760E+000	9	...........
	76	1.02667	9.95711E-001	1.01542E-004	0.00000E+000	1.01106E-004	5.99601E-002	9.96069E-001	3.57760E+000	9	...........
	77	1.03833	9.98826E-001	1.02284E-004	0.00000E+000	1.02164E-004	5.99601E-002	9.99227E-001	3.57760E+000	9	...........
STARTTIMEOFFSET	QUANT	416.5835	Start Time Offset (s)
