EXPLAIN
TAG	PWR800_CHARGE
TITLE	LABEL	PWR Cyclic Charge Discharge (Cell) - Charge Step	Test &Identifier
DATE	LABEL	12-7-2017	Date
TIME	LABEL	16:38:44	Time
NOTES	NOTES	2	&Notes...
	supercap test cell
	6M KOH
PSTAT	PSTAT	IFC5000-01520	Potentiostat
CAPACITY	QUANT	1.00000E-003	Capacity (A-hr)
CELLTYPE	SELECTOR	1	&Cell Type
WORKINGCONNECTION	SELECTOR	0	&Working Lead
MAXCHARGETIME	VARIABLEANDUNITS	1.00000E+002	s	1.00000E+002	second(s)	Max &Charge Time
CHARGECURRENT	QUANT	1.00000E-004	&Charge Current (A) 
VOLTAGEFINISH	TWOPARAM	F	1.00000E-003	3.60000E+003	&Voltage Finish	 I (A) < 	Max Time(s)
SAMPLETIME	QUANT	1.00000E-002	Sa&mple Period (s)
CHARGESTOPAT1	MULTIPARAM	4	1.00000E+000	Charge Stop At &1	Voltage > Limit	V
CHARGESTOPAT2	MULTIPARAM	0	0.00000E+000	Charge Stop At &2	None	N/A
AESBHCSELECTOR	TOGGLE	F	Save Both Half Cells
IRCOMP	TOGGLE	F	IR &Measure
EOC	QUANT	0	Open Circuit (V)
SEQUENCER	TOGGLE	TRUE	Run as Sequence
PSTATMODEL	IQUANT	53	Pstat Model
PSTATSECTION	LABEL	IFC5000-01520	Pstat Section
PSTATSERIALNO	LABEL	01520	Pstat Serial Number
CTRLMODE	IQUANT	0	Control Mode
ELECTROMETER	IQUANT	1	RE=0 or CS=1
IESTAB	IQUANT	0	I/E Stability
CASPEED	IQUANT	4	Control Amp Speed
CONVENTION	IQUANT	1	Current Convention
ICHRANGE	IQUANT	2	Ich Range
ICHRANGEMODE	TOGGLE	T	Ich Auto Range
ICHOFFSETENABLE	TOGGLE	F	Ich Offset Enable
ICHOFFSET	QUANT	0	Ich Offset (V)
ICHFILTER	IQUANT	1	Ich Filter
VCHRANGE	IQUANT	2	Vch Range
VCHRANGEMODE	TOGGLE	T	Vch Auto Range
VCHOFFSETENABLE	TOGGLE	F	Vch Offset Enable
VCHOFFSET	QUANT	0	Vch Offset (V)
VCHFILTER	IQUANT	1	Vch Filter
IERANGELOWERLIMIT	IQUANT	9	I/E Range Lower Limit
IERANGEMODE	TOGGLE	F	I/E AutoRange
IERANGE	IQUANT	9	I/E Range
ACHSELECT	IQUANT	1	Ach Select
ACHRANGE	IQUANT	2	Ach Range
ACHOFFSETENABLE	TOGGLE	F	Ach Offset Enable
ACHOFFSET	QUANT	0	Ach Offset (V)
ACHFILTER	IQUANT	1	Ach Filter
CABLEID	IQUANT	14	Cable ID
DCCALDATE	LABEL	5-7-2017	DC Calibration Date
ACCALDATE	LABEL	12/3/2015	AC Calibration Date
FRAMEWORKVERSION	QUANT	7.01	Framework Version
INSTRUMENTVERSION	LABEL	4.00	Instrument Version
CURVE	TABLE	76
	Pt	T	Vf	Im	Vu	Pwr	Sig	Ach	Temp	IERange	Over
	#	s	V	A	V	W	V	V	deg C	#	bits
	0	0.013333	2.56987E-001	1.00734E-004	0.00000E+000	2.58875E-005	5.99601E-002	2.57054E-001	3.57790E+000	9	...........
	1	0.026667	2.80001E-001	1.00178E-004	0.00000E+000	2.80500E-005	5.99601E-002	2.80064E-001	3.57790E+000	9	...........
	2	0.04	3.01755E-001	1.00583E-004	0.00000E+000	3.03516E-005	5.99601E-002	3.01820E-001	3.57790E+000	9	...........
	3	0.053333	3.22583E-001	1.00943E-004	0.00000E+000	3.25624E-005	5.99601E-002	3.22643E-001	3.57790E+000	9	...........
	4	0.066667	3.42669E-001	9.94779E-005	0.00000E+000	3.40880E-005	5.99601E-002	3.42733E-001	3.57790E+000	9	...........
	5	0.08	3.62136E-001	1.00957E-004	0.00000E+000	3.65603E-005	5.99601E-002	3.62209E-001	3.57790E+000	9	...........
	6	0.093333	3.81065E-001	1.01686E-004	0.00000E+000	3.87488E-005	5.99601E-002	3.81146E-001	3.57790E+000	9	...........
	7	0.106667	3.99519E-001	1.01069E-004	0.00000E+000	4.03789E-005	5.99601E-002	3.99598E-001	3.57790E+000	9	...........
	8	0.12	4.17522E-001	1.00339E-004	0.00000E+000	4.18935E-005	5.99601E-002	4.17613E-001	3.57790E+000	9	...........
	9	0.133333	4.35124E-001	1.01856E-004	0.00000E+000	4.43198E-005	5.99601E-002	4.35216E-001	3.57790E+000	9	...........
	10	0.146667	4.52329E-001	1.01657E-004	0.00000E+000	4.59822E-005	5.99601E-002	4.52425E-001	3.57790E+000	9	...........
	11	0.16	4.69154E-001	1.01795E-004	0.00000E+000	4.77576E-005	5.99601E-002	4.69253E-001	3.57790E+000	9	...........
	12	0.173333	4.85613E-001	1.01265E-004	0.00000E+000	4.91755E-005	5.99601E-002	4.85716E-001	3.57790E+000	9	...........
	13	0.186667	5.01710E-001	1.00698E-004	0.00000E+000	5.05212E-005	5.99601E-002	5.01819E-001	3.57790E+000	9	...........
	14	0.2	5.17464E-001	1.02472E-004	0.00000E+000	5.30258E-005	5.99601E-002	5.17584E-001	3.57790E+000	9	...........
	15	0.213333	5.32770E-001	1.00879E-004	0.00000E+000	5.37454E-005	5.99601E-002	5.32942E-001	3.57790E+000	9	...........
	16	0.226667	5.47680E-001	1.00472E-004	0.00000E+000	5.50265E-005	5.99601E-002	5.47926E-001	3.57790E+000	9	...........
	17	0.24	5.62426E-001	1.01339E-004	0.00000E+000	5.69955E-005	5.99601E-002	5.62682E-001	3.57790E+000	9	...........
	18	0.253333	5.76866E-001	1.00991E-004	0.00000E+000	5.82581E-005	5.99601E-002	5.77100E-001	3.57790E+000	9	...........
	19	0.266667	5.90960E-001	1.00465E-004	0.00000E+000	5.93706E-005	5.99601E-002	5.91235E-001	3.57790E+000	9	...........
	20	0.28	6.04735E-001	1.02613E-004	0.00000E+000	6.20536E-005	5.99601E-002	6.05016E-001	3.57790E+000	9	...........
	21	0.293333	6.18284E-001	1.02294E-004	0.00000E+000	6.32468E-005	5.99601E-002	6.18498E-001	3.57790E+000	9	...........
	22	0.306667	6.31409E-001	9.99447E-005	0.00000E+000	6.31059E-005	5.99601E-002	6.31638E-001	3.57790E+000	9	...........
	23	0.32	6.44268E-001	1.00714E-004	0.00000E+000	6.48866E-005	5.99601E-002	6.44498E-001	3.57790E+000	9	...........
	24	0.333333	6.56822E-001	1.01001E-004	0.00000E+000	6.63398E-005	5.99601E-002	6.57054E-001	3.57790E+000	9	...........
	25	0.346667	6.69092E-001	1.00872E-004	0.00000E+000	6.74927E-005	5.99601E-002	6.69315E-001	3.57790E+000	9	...........
	26	0.36	6.81047E-001	9.95717E-005	0.00000E+000	6.78130E-005	5.99601E-002	6.81254E-001	3.57790E+000	9	...........
	27	0.373333	6.92685E-001	1.00296E-004	0.00000E+000	6.94734E-005	5.99601E-002	6.92929E-001	3.57790E+000	9	...........
	28	0.386667	7.04048E-001	1.00729E-004	0.00000E+000	7.09182E-005	5.99601E-002	7.04294E-001	3.57790E+000	9	...........
	29	0.4	7.15104E-001	1.01161E-004	0.00000E+000	7.23404E-005	5.99601E-002	7.15363E-001	3.57790E+000	9	...........
	30	0.413333	7.25930E-001	9.99322E-005	0.00000E+000	7.25438E-005	5.99601E-002	7.26155E-001	3.57790E+000	9	...........
	31	0.426667	7.36402E-001	1.00831E-004	0.00000E+000	7.42524E-005	5.99601E-002	7.36630E-001	3.57790E+000	9	...........
	32	0.44	7.46645E-001	1.02043E-004	0.00000E+000	7.61899E-005	5.99601E-002	7.46893E-001	3.57790E+000	9	...........
	33	0.453333	7.56585E-001	1.01494E-004	0.00000E+000	7.67888E-005	5.99601E-002	7.56807E-001	3.57790E+000	9	...........
	34	0.466667	7.66253E-001	1.01802E-004	0.00000E+000	7.80064E-005	5.99601E-002	7.66494E-001	3.57790E+000	9	...........
	35	0.48	7.75649E-001	1.01002E-004	0.00000E+000	7.83423E-005	5.99601E-002	7.75886E-001	3.57790E+000	9	...........
	36	0.493333	7.84789E-001	1.00968E-004	0.00000E+000	7.92384E-005	5.99601E-002	7.85029E-001	3.57790E+000	9	...........
	37	0.506667	7.93666E-001	1.00583E-004	0.00000E+000	7.98296E-005	5.99601E-002	7.93921E-001	3.57790E+000	9	...........
	38	0.52	8.02277E-001	1.00625E-004	0.00000E+000	8.07291E-005	5.99601E-002	8.02523E-001	3.57790E+000	9	...........
	39	0.533333	8.10625E-001	1.01474E-004	0.00000E+000	8.22575E-005	5.99601E-002	8.10875E-001	3.57680E+000	9	...........
	40	0.546667	8.18743E-001	1.00566E-004	0.00000E+000	8.23374E-005	5.99601E-002	8.19008E-001	3.57680E+000	9	...........
	41	0.56	8.26584E-001	1.01351E-004	0.00000E+000	8.37754E-005	5.99601E-002	8.26851E-001	3.57680E+000	9	...........
	42	0.573333	8.34190E-001	1.01275E-004	0.00000E+000	8.44827E-005	5.99601E-002	8.34460E-001	3.57680E+000	9	...........
	43	0.586667	8.41557E-001	1.01611E-004	0.00000E+000	8.55112E-005	5.99601E-002	8.41848E-001	3.57680E+000	9	...........
	44	0.6	8.48723E-001	9.91977E-005	0.00000E+000	8.41913E-005	5.99601E-002	8.49017E-001	3.57680E+000	9	...........
	45	0.613333	8.55620E-001	1.00068E-004	0.00000E+000	8.56199E-005	5.99601E-002	8.55933E-001	3.57680E+000	9	...........
	46	0.626667	8.62365E-001	1.01483E-004	0.00000E+000	8.75150E-005	5.99601E-002	8.62656E-001	3.57680E+000	9	...........
	47	0.64	8.68848E-001	1.00554E-004	0.00000E+000	8.73663E-005	5.99601E-002	8.69152E-001	3.57680E+000	9	...........
	48	0.653333	8.75152E-001	9.95675E-005	0.00000E+000	8.71368E-005	5.99601E-002	8.75454E-001	3.57680E+000	9	...........
	49	0.666667	8.81271E-001	1.01908E-004	0.00000E+000	8.98082E-005	5.99601E-002	8.81583E-001	3.57680E+000	9	...........
	50	0.68	8.87231E-001	1.02035E-004	0.00000E+000	9.05283E-005	5.99601E-002	8.87506E-001	3.57680E+000	9	...........
	51	0.693333	8.93009E-001	1.01453E-004	0.00000E+000	9.05988E-005	5.99601E-002	8.93286E-001	3.57680E+000	9	...........
	52	0.706667	8.98652E-001	1.01039E-004	0.00000E+000	9.07986E-005	5.99601E-002	8.98965E-001	3.57680E+000	9	...........
	53	0.72	9.04127E-001	1.02215E-004	0.00000E+000	9.24153E-005	5.99601E-002	9.04457E-001	3.57680E+000	9	...........
	54	0.733333	9.09509E-001	9.97551E-005	0.00000E+000	9.07281E-005	5.99601E-002	9.09829E-001	3.57680E+000	9	...........
	55	0.746667	9.14740E-001	9.99145E-005	0.00000E+000	9.13957E-005	5.99601E-002	9.15083E-001	3.57680E+000	9	...........
	56	0.76	9.19909E-001	1.01011E-004	0.00000E+000	9.29205E-005	5.99601E-002	9.20227E-001	3.57680E+000	9	...........
	57	0.773333	9.24965E-001	1.00795E-004	0.00000E+000	9.32317E-005	5.99601E-002	9.25264E-001	3.57680E+000	9	...........
	58	0.786667	9.29911E-001	1.01769E-004	0.00000E+000	9.46362E-005	5.99601E-002	9.30195E-001	3.57680E+000	9	...........
	59	0.8	9.34733E-001	1.01552E-004	0.00000E+000	9.49243E-005	5.99601E-002	9.35065E-001	3.57680E+000	9	...........
	60	0.813333	9.39499E-001	1.01771E-004	0.00000E+000	9.56138E-005	5.99601E-002	9.39824E-001	3.57680E+000	9	...........
	61	0.826667	9.44168E-001	1.01138E-004	0.00000E+000	9.54909E-005	5.99601E-002	9.44494E-001	3.57680E+000	9	...........
	62	0.84	9.48810E-001	1.00772E-004	0.00000E+000	9.56134E-005	5.99601E-002	9.49138E-001	3.57680E+000	9	...........
	63	0.853333	9.53323E-001	1.00871E-004	0.00000E+000	9.61625E-005	5.99601E-002	9.53664E-001	3.57680E+000	9	...........
	64	0.866667	9.57773E-001	1.00624E-004	0.00000E+000	9.63750E-005	5.99601E-002	9.58108E-001	3.57680E+000	9	...........
	65	0.88	9.62131E-001	1.01630E-004	0.00000E+000	9.77818E-005	5.99601E-002	9.62504E-001	3.57680E+000	9	...........
	66	0.893333	9.66436E-001	1.00937E-004	0.00000E+000	9.75488E-005	5.99601E-002	9.66778E-001	3.57680E+000	9	...........
	67	0.906667	9.70654E-001	1.02246E-004	0.00000E+000	9.92457E-005	5.99601E-002	9.71019E-001	3.57680E+000	9	...........
	68	0.92	9.74857E-001	1.00812E-004	0.00000E+000	9.82768E-005	5.99601E-002	9.75205E-001	3.57680E+000	9	...........
	69	0.933333	9.78908E-001	1.00849E-004	0.00000E+000	9.87220E-005	5.99601E-002	9.79265E-001	3.57680E+000	9	...........
	70	0.946667	9.82887E-001	1.01061E-004	0.00000E+000	9.93311E-005	5.99601E-002	9.83238E-001	3.57680E+000	9	...........
	71	0.96	9.86800E-001	9.92685E-005	0.00000E+000	9.79582E-005	5.99601E-002	9.87147E-001	3.57680E+000	9	...........
	72	0.97333	9.90616E-001	1.00751E-004	0.00000E+000	9.98057E-005	5.99601E-002	9.90975E-001	3.57680E+000	9	...........
	73	0.98667	9.94360E-001	1.01039E-004	0.00000E+000	1.00469E-004	5.99601E-002	9.94725E-001	3.57680E+000	9	...........
	74	1	9.98038E-001	1.00807E-004	0.00000E+000	1.00610E-004	5.99601E-002	9.98405E-001	3.57680E+000	9	...........
	75	1.00167	1.00008E+000	1.00140E-004	0.00000E+000	1.00147E-004	5.99601E-002	1.00041E+000	3.57680E+000	9	...........
STARTTIMEOFFSET	QUANT	1224.202	Start Time Offset (s)
