EXPLAIN
TAG	PWR800_DISCHARGE
TITLE	LABEL	PWR Cyclic Charge Discharge (Cell) - Discharge Step	Test &Identifier
DATE	LABEL	12-7-2017	Date
TIME	LABEL	16:20:36	Time
NOTES	NOTES	2	&Notes...
	supercap test cell
	6M KOH
PSTAT	PSTAT	IFC5000-01520	Potentiostat
CAPACITY	QUANT	1.00000E-003	Capacity (A-hr)
CELLTYPE	SELECTOR	1	&Cell Type
WORKINGCONNECTION	SELECTOR	0	&Working Lead
MAXDISCHARGETIME	VARIABLEANDUNITS	1.00000E+002	s	1.00000E+002	second(s)	Max &Discharge Time
DISCHARGEMODE	MULTIPARAM	0	1.00000E-004	&Discharge Mode	Constant Current	Amp(s)
SAMPLETIME	QUANT	1.00000E-002	Sa&mple Period (s)
DISCHARGESTOPAT1	MULTIPARAM	3	0.00000E+000	Discharge Stop At &1	Voltage < Limit	V
DISCHARGESTOPAT2	MULTIPARAM	0	0.00000E+000	Discharge Stop At &2	None	N/A
AESBHCSELECTOR	TOGGLE	F	Save Both Half Cells
IRCOMP	TOGGLE	F	IR &Measure
EOC	QUANT	0	Open Circuit (V)
SEQUENCER	TOGGLE	TRUE	Run as Sequence
PSTATMODEL	IQUANT	53	Pstat Model
PSTATSECTION	LABEL	IFC5000-01520	Pstat Section
PSTATSERIALNO	LABEL	01520	Pstat Serial Number
CTRLMODE	IQUANT	0	Control Mode
ELECTROMETER	IQUANT	1	RE=0 or CS=1
IESTAB	IQUANT	0	I/E Stability
CASPEED	IQUANT	4	Control Amp Speed
CONVENTION	IQUANT	1	Current Convention
ICHRANGE	IQUANT	2	Ich Range
ICHRANGEMODE	TOGGLE	T	Ich Auto Range
ICHOFFSETENABLE	TOGGLE	F	Ich Offset Enable
ICHOFFSET	QUANT	0	Ich Offset (V)
ICHFILTER	IQUANT	1	Ich Filter
VCHRANGE	IQUANT	2	Vch Range
VCHRANGEMODE	TOGGLE	T	Vch Auto Range
VCHOFFSETENABLE	TOGGLE	F	Vch Offset Enable
VCHOFFSET	QUANT	0	Vch Offset (V)
VCHFILTER	IQUANT	1	Vch Filter
IERANGELOWERLIMIT	IQUANT	9	I/E Range Lower Limit
IERANGEMODE	TOGGLE	F	I/E AutoRange
IERANGE	IQUANT	9	I/E Range
ACHSELECT	IQUANT	1	Ach Select
ACHRANGE	IQUANT	2	Ach Range
ACHOFFSETENABLE	TOGGLE	F	Ach Offset Enable
ACHOFFSET	QUANT	0	Ach Offset (V)
ACHFILTER	IQUANT	1	Ach Filter
CABLEID	IQUANT	14	Cable ID
DCCALDATE	LABEL	5-7-2017	DC Calibration Date
ACCALDATE	LABEL	12/3/2015	AC Calibration Date
FRAMEWORKVERSION	QUANT	7.01	Framework Version
INSTRUMENTVERSION	LABEL	4.00	Instrument Version
CURVE	TABLE	72
	Pt	T	Vf	Im	Vu	Pwr	Sig	Ach	Temp	IERange	Over
	#	s	V	A	V	W	V	V	deg C	#	bits
	0	0.013333	8.44228E-001	-9.77132E-005	0.00000E+000	-8.24923E-005	-5.99601E-002	8.44539E-001	3.57740E+000	9	...........
	1	0.026667	8.31299E-001	-9.77799E-005	0.00000E+000	-8.12843E-005	-5.99601E-002	8.31607E-001	3.57740E+000	9	...........
	2	0.04	8.18955E-001	-9.84967E-005	0.00000E+000	-8.06644E-005	-5.99601E-002	8.19265E-001	3.57740E+000	9	...........
	3	0.053333	8.07001E-001	-9.83623E-005	0.00000E+000	-7.93785E-005	-5.99601E-002	8.07290E-001	3.57740E+000	9	...........
	4	0.066667	7.95318E-001	-9.85280E-005	0.00000E+000	-7.83610E-005	-5.99601E-002	7.95591E-001	3.57740E+000	9	...........
	5	0.08	7.83814E-001	-9.86207E-005	0.00000E+000	-7.73002E-005	-5.99601E-002	7.84096E-001	3.57740E+000	9	...........
	6	0.093333	7.72527E-001	-9.69078E-005	0.00000E+000	-7.48639E-005	-5.99601E-002	7.72804E-001	3.57740E+000	9	...........
	7	0.106667	7.61343E-001	-9.86769E-005	0.00000E+000	-7.51270E-005	-5.99601E-002	7.61601E-001	3.57740E+000	9	...........
	8	0.12	7.50313E-001	-9.85811E-005	0.00000E+000	-7.39666E-005	-5.99601E-002	7.50551E-001	3.57740E+000	9	...........
	9	0.133333	7.39373E-001	-9.85540E-005	0.00000E+000	-7.28682E-005	-5.99601E-002	7.39623E-001	3.57740E+000	9	...........
	10	0.146667	7.28519E-001	-9.86071E-005	0.00000E+000	-7.18372E-005	-5.99601E-002	7.28758E-001	3.57740E+000	9	...........
	11	0.16	7.17703E-001	-9.90812E-005	0.00000E+000	-7.11109E-005	-5.99601E-002	7.17968E-001	3.57740E+000	9	...........
	12	0.173333	7.06920E-001	-9.87499E-005	0.00000E+000	-6.98083E-005	-5.99601E-002	7.07186E-001	3.57740E+000	9	...........
	13	0.186667	6.96167E-001	-9.87040E-005	0.00000E+000	-6.87145E-005	-5.99601E-002	6.96443E-001	3.57740E+000	9	...........
	14	0.2	6.85316E-001	-9.82154E-005	0.00000E+000	-6.73086E-005	-5.99601E-002	6.85594E-001	3.57740E+000	9	...........
	15	0.213333	6.74436E-001	-9.94344E-005	0.00000E+000	-6.70621E-005	-5.99601E-002	6.74688E-001	3.57740E+000	9	...........
	16	0.226667	6.63379E-001	-9.86457E-005	0.00000E+000	-6.54395E-005	-5.99601E-002	6.63642E-001	3.57740E+000	9	...........
	17	0.24	6.52181E-001	-9.93344E-005	0.00000E+000	-6.47840E-005	-5.99601E-002	6.52448E-001	3.57740E+000	9	...........
	18	0.253333	6.40810E-001	-9.90426E-005	0.00000E+000	-6.34675E-005	-5.99601E-002	6.41109E-001	3.57740E+000	9	...........
	19	0.266667	6.29305E-001	-9.89437E-005	0.00000E+000	-6.22658E-005	-5.99601E-002	6.29564E-001	3.57740E+000	9	...........
	20	0.28	6.17676E-001	-9.91364E-005	0.00000E+000	-6.12342E-005	-5.99601E-002	6.17924E-001	3.57740E+000	9	...........
	21	0.293333	6.05827E-001	-9.77122E-005	0.00000E+000	-5.91966E-005	-5.99601E-002	6.06130E-001	3.57740E+000	9	...........
	22	0.306667	5.93910E-001	-9.75840E-005	0.00000E+000	-5.79561E-005	-5.99601E-002	5.94201E-001	3.57740E+000	9	...........
	23	0.32	5.81855E-001	-9.81966E-005	0.00000E+000	-5.71362E-005	-5.99601E-002	5.82138E-001	3.57740E+000	9	...........
	24	0.333333	5.69725E-001	-9.87655E-005	0.00000E+000	-5.62691E-005	-5.99601E-002	5.69991E-001	3.57740E+000	9	...........
	25	0.346667	5.57435E-001	-9.94177E-005	0.00000E+000	-5.54189E-005	-5.99601E-002	5.57702E-001	3.57740E+000	9	...........
	26	0.36	5.45128E-001	-9.79810E-005	0.00000E+000	-5.34122E-005	-5.99601E-002	5.45346E-001	3.57740E+000	9	...........
	27	0.373333	5.32702E-001	-9.95469E-005	0.00000E+000	-5.30288E-005	-5.99601E-002	5.32907E-001	3.57740E+000	9	...........
	28	0.386667	5.20230E-001	-9.80226E-005	0.00000E+000	-5.09943E-005	-5.99601E-002	5.20409E-001	3.57740E+000	9	...........
	29	0.4	5.07662E-001	-9.84957E-005	0.00000E+000	-5.00025E-005	-5.99601E-002	5.07851E-001	3.57740E+000	9	...........
	30	0.413333	4.95074E-001	-9.78736E-005	0.00000E+000	-4.84547E-005	-5.99601E-002	4.95261E-001	3.57740E+000	9	...........
	31	0.426667	4.82654E-001	-9.80372E-005	0.00000E+000	-4.73181E-005	-5.99601E-002	4.82796E-001	3.57740E+000	9	...........
	32	0.44	4.70123E-001	-9.82310E-005	0.00000E+000	-4.61806E-005	-5.99601E-002	4.70227E-001	3.57740E+000	9	...........
	33	0.453333	4.57445E-001	-9.88822E-005	0.00000E+000	-4.52332E-005	-5.99601E-002	4.57539E-001	3.57740E+000	9	...........
	34	0.466667	4.44753E-001	-9.91104E-005	0.00000E+000	-4.40796E-005	-5.99601E-002	4.44848E-001	3.57740E+000	9	...........
	35	0.48	4.32057E-001	-9.86290E-005	0.00000E+000	-4.26134E-005	-5.99601E-002	4.32152E-001	3.57740E+000	9	...........
	36	0.493333	4.19361E-001	-9.92114E-005	0.00000E+000	-4.16054E-005	-5.99601E-002	4.19456E-001	3.57740E+000	9	...........
	37	0.506667	4.06681E-001	-9.91520E-005	0.00000E+000	-4.03232E-005	-5.99601E-002	4.06767E-001	3.57740E+000	9	...........
	38	0.52	3.94015E-001	-9.96209E-005	0.00000E+000	-3.92521E-005	-5.99601E-002	3.94090E-001	3.57740E+000	9	...........
	39	0.533333	3.81359E-001	-9.79601E-005	0.00000E+000	-3.73580E-005	-5.99601E-002	3.81445E-001	3.57740E+000	9	...........
	40	0.546667	3.68734E-001	-9.85550E-005	0.00000E+000	-3.63406E-005	-5.99601E-002	3.68806E-001	3.57740E+000	9	...........
	41	0.56	3.56129E-001	-9.80664E-005	0.00000E+000	-3.49242E-005	-5.99601E-002	3.56200E-001	3.57740E+000	9	...........
	42	0.573333	3.43543E-001	-9.83383E-005	0.00000E+000	-3.37835E-005	-5.99601E-002	3.43623E-001	3.57740E+000	9	...........
	43	0.586667	3.30998E-001	-9.87697E-005	0.00000E+000	-3.26925E-005	-5.99601E-002	3.31064E-001	3.57740E+000	9	...........
	44	0.6	3.18483E-001	-9.77163E-005	0.00000E+000	-3.11210E-005	-5.99601E-002	3.18545E-001	3.57740E+000	9	...........
	45	0.613333	3.05991E-001	-9.79653E-005	0.00000E+000	-2.99765E-005	-5.99601E-002	3.06051E-001	3.57740E+000	9	...........
	46	0.626667	2.93535E-001	-9.76663E-005	0.00000E+000	-2.86685E-005	-5.99601E-002	2.93593E-001	3.57740E+000	9	...........
	47	0.64	2.81106E-001	-9.95125E-005	0.00000E+000	-2.79735E-005	-5.99601E-002	2.81162E-001	3.57740E+000	9	...........
	48	0.653333	2.68706E-001	-9.84331E-005	0.00000E+000	-2.64496E-005	-5.99601E-002	2.68768E-001	3.57740E+000	9	...........
	49	0.666667	2.56330E-001	-9.80654E-005	0.00000E+000	-2.51371E-005	-5.99601E-002	2.56381E-001	3.57740E+000	9	...........
	50	0.68	2.43980E-001	-9.83821E-005	0.00000E+000	-2.40033E-005	-5.99601E-002	2.44022E-001	3.57740E+000	9	...........
	51	0.693333	2.31650E-001	-9.73881E-005	0.00000E+000	-2.25599E-005	-5.99601E-002	2.31692E-001	3.57740E+000	9	...........
	52	0.706667	2.19329E-001	-9.88468E-005	0.00000E+000	-2.16800E-005	-5.99601E-002	2.19377E-001	3.57740E+000	9	...........
	53	0.72	2.07039E-001	-9.74934E-005	0.00000E+000	-2.01849E-005	-5.99601E-002	2.07081E-001	3.57740E+000	9	...........
	54	0.733333	1.94762E-001	-9.98699E-005	0.00000E+000	-1.94508E-005	-5.99601E-002	1.94799E-001	3.57740E+000	9	...........
	55	0.746667	1.82511E-001	-9.84321E-005	0.00000E+000	-1.79649E-005	-5.99601E-002	1.82543E-001	3.57740E+000	9	...........
	56	0.76	1.70280E-001	-9.85415E-005	0.00000E+000	-1.67797E-005	-5.99601E-002	1.70311E-001	3.57740E+000	9	...........
	57	0.773333	1.58093E-001	-9.83883E-005	0.00000E+000	-1.55545E-005	-5.99601E-002	1.58122E-001	3.57740E+000	9	...........
	58	0.786667	1.45940E-001	-9.83039E-005	0.00000E+000	-1.43464E-005	-5.99601E-002	1.45970E-001	3.57740E+000	9	...........
	59	0.8	1.33835E-001	-9.79914E-005	0.00000E+000	-1.31147E-005	-5.99601E-002	1.33855E-001	3.57740E+000	9	...........
	60	0.813333	1.21765E-001	-9.81779E-005	0.00000E+000	-1.19546E-005	-5.99601E-002	1.21788E-001	3.57740E+000	9	...........
	61	0.826667	1.09746E-001	-9.95605E-005	0.00000E+000	-1.09264E-005	-5.99601E-002	1.09769E-001	3.57740E+000	9	...........
	62	0.84	9.77904E-002	-9.78789E-005	0.00000E+000	-9.57161E-006	-5.99601E-002	9.78117E-002	3.57740E+000	9	...........
	63	0.853333	8.59036E-002	-9.97834E-005	0.00000E+000	-8.57175E-006	-5.99601E-002	8.59187E-002	3.57740E+000	9	...........
	64	0.866667	7.40953E-002	-9.88124E-005	0.00000E+000	-7.32153E-006	-5.99601E-002	7.41054E-002	3.57740E+000	9	...........
	65	0.88	6.23787E-002	-9.82935E-005	0.00000E+000	-6.13143E-006	-5.99601E-002	6.23906E-002	3.57740E+000	9	...........
	66	0.893333	5.07742E-002	-9.83123E-005	0.00000E+000	-4.99173E-006	-5.99601E-002	5.07758E-002	3.57740E+000	9	...........
	67	0.906667	3.92964E-002	-9.76986E-005	0.00000E+000	-3.83921E-006	-5.99601E-002	3.92996E-002	3.57740E+000	9	...........
	68	0.92	2.79160E-002	-9.84300E-005	0.00000E+000	-2.74777E-006	-5.99601E-002	2.79107E-002	3.57836E+000	9	...........
	69	0.933333	1.66734E-002	-9.77288E-005	0.00000E+000	-1.62948E-006	-5.99601E-002	1.66609E-002	3.57840E+000	9	...........
	70	0.946667	5.56671E-003	-9.88020E-005	0.00000E+000	-5.50002E-007	-5.99601E-002	5.55436E-003	3.57840E+000	9	...........
	71	0.948333	-6.20318E-004	-1.00877E-004	0.00000E+000	6.25761E-008	-5.99601E-002	-6.42699E-004	3.57840E+000	9	...........
STARTTIMEOFFSET	QUANT	451.3851	Start Time Offset (s)
