EXPLAIN
TAG	PWR800_DISCHARGE
TITLE	LABEL	PWR Cyclic Charge Discharge (Cell) - Discharge Step	Test &Identifier
DATE	LABEL	12-7-2017	Date
TIME	LABEL	16:31:47	Time
NOTES	NOTES	2	&Notes...
	supercap test cell
	6M KOH
PSTAT	PSTAT	IFC5000-01520	Potentiostat
CAPACITY	QUANT	1.00000E-003	Capacity (A-hr)
CELLTYPE	SELECTOR	1	&Cell Type
WORKINGCONNECTION	SELECTOR	0	&Working Lead
MAXDISCHARGETIME	VARIABLEANDUNITS	1.00000E+002	s	1.00000E+002	second(s)	Max &Discharge Time
DISCHARGEMODE	MULTIPARAM	0	1.00000E-004	&Discharge Mode	Constant Current	Amp(s)
SAMPLETIME	QUANT	1.00000E-002	Sa&mple Period (s)
DISCHARGESTOPAT1	MULTIPARAM	3	0.00000E+000	Discharge Stop At &1	Voltage < Limit	V
DISCHARGESTOPAT2	MULTIPARAM	0	0.00000E+000	Discharge Stop At &2	None	N/A
AESBHCSELECTOR	TOGGLE	F	Save Both Half Cells
IRCOMP	TOGGLE	F	IR &Measure
EOC	QUANT	0	Open Circuit (V)
SEQUENCER	TOGGLE	TRUE	Run as Sequence
PSTATMODEL	IQUANT	53	Pstat Model
PSTATSECTION	LABEL	IFC5000-01520	Pstat Section
PSTATSERIALNO	LABEL	01520	Pstat Serial Number
CTRLMODE	IQUANT	0	Control Mode
ELECTROMETER	IQUANT	1	RE=0 or CS=1
IESTAB	IQUANT	0	I/E Stability
CASPEED	IQUANT	4	Control Amp Speed
CONVENTION	IQUANT	1	Current Convention
ICHRANGE	IQUANT	2	Ich Range
ICHRANGEMODE	TOGGLE	T	Ich Auto Range
ICHOFFSETENABLE	TOGGLE	F	Ich Offset Enable
ICHOFFSET	QUANT	0	Ich Offset (V)
ICHFILTER	IQUANT	1	Ich Filter
VCHRANGE	IQUANT	2	Vch Range
VCHRANGEMODE	TOGGLE	T	Vch Auto Range
VCHOFFSETENABLE	TOGGLE	F	Vch Offset Enable
VCHOFFSET	QUANT	0	Vch Offset (V)
VCHFILTER	IQUANT	1	Vch Filter
IERANGELOWERLIMIT	IQUANT	9	I/E Range Lower Limit
IERANGEMODE	TOGGLE	F	I/E AutoRange
IERANGE	IQUANT	9	I/E Range
ACHSELECT	IQUANT	1	Ach Select
ACHRANGE	IQUANT	2	Ach Range
ACHOFFSETENABLE	TOGGLE	F	Ach Offset Enable
ACHOFFSET	QUANT	0	Ach Offset (V)
ACHFILTER	IQUANT	1	Ach Filter
CABLEID	IQUANT	14	Cable ID
DCCALDATE	LABEL	5-7-2017	DC Calibration Date
ACCALDATE	LABEL	12/3/2015	AC Calibration Date
FRAMEWORKVERSION	QUANT	7.01	Framework Version
INSTRUMENTVERSION	LABEL	4.00	Instrument Version
CURVE	TABLE	71
	Pt	T	Vf	Im	Vu	Pwr	Sig	Ach	Temp	IERange	Over
	#	s	V	A	V	W	V	V	deg C	#	bits
	0	0.013333	8.44107E-001	-9.79935E-005	0.00000E+000	-8.27170E-005	-5.99601E-002	8.44431E-001	3.57700E+000	9	...........
	1	0.026667	8.31104E-001	-9.93406E-005	0.00000E+000	-8.25624E-005	-5.99601E-002	8.31420E-001	3.57700E+000	9	...........
	2	0.04	8.18694E-001	-9.85800E-005	0.00000E+000	-8.07069E-005	-5.99601E-002	8.19008E-001	3.57700E+000	9	...........
	3	0.053333	8.06671E-001	-9.87988E-005	0.00000E+000	-7.96981E-005	-5.99601E-002	8.06942E-001	3.57700E+000	9	...........
	4	0.066667	7.94918E-001	-9.79956E-005	0.00000E+000	-7.78984E-005	-5.99601E-002	7.95160E-001	3.57700E+000	9	...........
	5	0.08	7.83333E-001	-9.86301E-005	0.00000E+000	-7.72602E-005	-5.99601E-002	7.83581E-001	3.57700E+000	9	...........
	6	0.093333	7.71924E-001	-9.76809E-005	0.00000E+000	-7.54023E-005	-5.99601E-002	7.72171E-001	3.57689E+000	9	...........
	7	0.106667	7.60675E-001	-9.77945E-005	0.00000E+000	-7.43898E-005	-5.99601E-002	7.60889E-001	3.57670E+000	9	...........
	8	0.12	7.49526E-001	-9.84904E-005	0.00000E+000	-7.38211E-005	-5.99601E-002	7.49725E-001	3.57670E+000	9	...........
	9	0.133333	7.38484E-001	-9.90572E-005	0.00000E+000	-7.31522E-005	-5.99601E-002	7.38686E-001	3.57670E+000	9	...........
	10	0.146667	7.27557E-001	-9.75923E-005	0.00000E+000	-7.10039E-005	-5.99601E-002	7.27746E-001	3.57670E+000	9	...........
	11	0.16	7.16693E-001	-9.91771E-005	0.00000E+000	-7.10795E-005	-5.99601E-002	7.16903E-001	3.57670E+000	9	...........
	12	0.173333	7.05925E-001	-9.88895E-005	0.00000E+000	-6.98085E-005	-5.99601E-002	7.06113E-001	3.57670E+000	9	...........
	13	0.186667	6.95223E-001	-9.88145E-005	0.00000E+000	-6.86981E-005	-5.99601E-002	6.95415E-001	3.57670E+000	9	...........
	14	0.2	6.84567E-001	-9.89551E-005	0.00000E+000	-6.77414E-005	-5.99601E-002	6.84780E-001	3.57670E+000	9	...........
	15	0.213333	6.73966E-001	-9.91802E-005	0.00000E+000	-6.68440E-005	-5.99601E-002	6.74182E-001	3.57670E+000	9	...........
	16	0.226667	6.63352E-001	-9.76632E-005	0.00000E+000	-6.47850E-005	-5.99601E-002	6.63583E-001	3.57670E+000	9	...........
	17	0.24	6.52693E-001	-9.82123E-005	0.00000E+000	-6.41024E-005	-5.99601E-002	6.52919E-001	3.57670E+000	9	...........
	18	0.253333	6.41936E-001	-9.78091E-005	0.00000E+000	-6.27872E-005	-5.99601E-002	6.42183E-001	3.57670E+000	9	...........
	19	0.266667	6.31070E-001	-9.99157E-005	0.00000E+000	-6.30538E-005	-5.99601E-002	6.31296E-001	3.57670E+000	9	...........
	20	0.28	6.20056E-001	-9.82706E-005	0.00000E+000	-6.09332E-005	-5.99601E-002	6.20261E-001	3.57670E+000	9	...........
	21	0.293333	6.08759E-001	-9.97605E-005	0.00000E+000	-6.07301E-005	-5.99601E-002	6.09030E-001	3.57670E+000	9	...........
	22	0.306667	5.97388E-001	-9.85801E-005	0.00000E+000	-5.88906E-005	-5.99601E-002	5.97605E-001	3.57670E+000	9	...........
	23	0.32	5.85749E-001	-9.67245E-005	0.00000E+000	-5.66563E-005	-5.99601E-002	5.85995E-001	3.57670E+000	9	...........
	24	0.333333	5.73967E-001	-9.84113E-005	0.00000E+000	-5.64849E-005	-5.99601E-002	5.74192E-001	3.57670E+000	9	...........
	25	0.346667	5.61988E-001	-9.88509E-005	0.00000E+000	-5.55530E-005	-5.99601E-002	5.62223E-001	3.57670E+000	9	...........
	26	0.36	5.49840E-001	-9.91052E-005	0.00000E+000	-5.44919E-005	-5.99601E-002	5.50071E-001	3.57670E+000	9	...........
	27	0.373333	5.37560E-001	-9.90479E-005	0.00000E+000	-5.32442E-005	-5.99601E-002	5.37789E-001	3.57670E+000	9	...........
	28	0.386667	5.25146E-001	-9.83196E-005	0.00000E+000	-5.16321E-005	-5.99601E-002	5.25350E-001	3.57670E+000	9	...........
	29	0.4	5.12593E-001	-9.84946E-005	0.00000E+000	-5.04877E-005	-5.99601E-002	5.12818E-001	3.57670E+000	9	...........
	30	0.413333	4.99899E-001	-9.91520E-005	0.00000E+000	-4.95660E-005	-5.99601E-002	5.00144E-001	3.57670E+000	9	...........
	31	0.426667	4.87227E-001	-9.85905E-005	0.00000E+000	-4.80359E-005	-5.99601E-002	4.87439E-001	3.57670E+000	9	...........
	32	0.44	4.74629E-001	-9.88895E-005	0.00000E+000	-4.69359E-005	-5.99601E-002	4.74732E-001	3.57670E+000	9	...........
	33	0.453333	4.61708E-001	-9.87499E-005	0.00000E+000	-4.55936E-005	-5.99601E-002	4.61809E-001	3.57670E+000	9	...........
	34	0.466667	4.48719E-001	-9.95948E-005	0.00000E+000	-4.46901E-005	-5.99601E-002	4.48822E-001	3.57670E+000	9	...........
	35	0.48	4.35692E-001	-9.88926E-005	0.00000E+000	-4.30867E-005	-5.99601E-002	4.35792E-001	3.57670E+000	9	...........
	36	0.493333	4.22632E-001	-9.94854E-005	0.00000E+000	-4.20458E-005	-5.99601E-002	4.22722E-001	3.57670E+000	9	...........
	37	0.506667	4.09545E-001	-9.90593E-005	0.00000E+000	-4.05693E-005	-5.99601E-002	4.09632E-001	3.57670E+000	9	...........
	38	0.52	3.96446E-001	-9.82237E-005	0.00000E+000	-3.89404E-005	-5.99601E-002	3.96519E-001	3.57670E+000	9	...........
	39	0.533333	3.83336E-001	-9.85603E-005	0.00000E+000	-3.77817E-005	-5.99601E-002	3.83413E-001	3.57670E+000	9	...........
	40	0.546667	3.70235E-001	-9.76090E-005	0.00000E+000	-3.61383E-005	-5.99601E-002	3.70313E-001	3.57670E+000	9	...........
	41	0.56	3.57150E-001	-9.85540E-005	0.00000E+000	-3.51986E-005	-5.99601E-002	3.57228E-001	3.57670E+000	9	...........
	42	0.573333	3.44089E-001	-9.91250E-005	0.00000E+000	-3.41078E-005	-5.99601E-002	3.44162E-001	3.57670E+000	9	...........
	43	0.586667	3.31067E-001	-9.94886E-005	0.00000E+000	-3.29374E-005	-5.99601E-002	3.31132E-001	3.57670E+000	9	...........
	44	0.6	3.18077E-001	-9.92927E-005	0.00000E+000	-3.15827E-005	-5.99601E-002	3.18148E-001	3.57670E+000	9	...........
	45	0.613333	3.05133E-001	-9.87624E-005	0.00000E+000	-3.01357E-005	-5.99601E-002	3.05201E-001	3.57670E+000	9	...........
	46	0.626667	2.92240E-001	-9.82196E-005	0.00000E+000	-2.87037E-005	-5.99601E-002	2.92300E-001	3.57670E+000	9	...........
	47	0.64	2.79396E-001	-9.83873E-005	0.00000E+000	-2.74890E-005	-5.99601E-002	2.79461E-001	3.57670E+000	9	...........
	48	0.653333	2.66615E-001	-9.78288E-005	0.00000E+000	-2.60826E-005	-5.99601E-002	2.66676E-001	3.57670E+000	9	...........
	49	0.666667	2.53886E-001	-9.77122E-005	0.00000E+000	-2.48078E-005	-5.99601E-002	2.53942E-001	3.57670E+000	9	...........
	50	0.68	2.41214E-001	-9.90458E-005	0.00000E+000	-2.38912E-005	-5.99601E-002	2.41261E-001	3.57670E+000	9	...........
	51	0.693333	2.28599E-001	-9.88301E-005	0.00000E+000	-2.25924E-005	-5.99601E-002	2.28643E-001	3.57670E+000	9	...........
	52	0.706667	2.16045E-001	-9.80779E-005	0.00000E+000	-2.11892E-005	-5.99601E-002	2.16086E-001	3.57670E+000	9	...........
	53	0.72	2.03551E-001	-9.89999E-005	0.00000E+000	-2.01515E-005	-5.99601E-002	2.03591E-001	3.57670E+000	9	...........
	54	0.733333	1.91103E-001	-9.92948E-005	0.00000E+000	-1.89755E-005	-5.99601E-002	1.91142E-001	3.57670E+000	9	...........
	55	0.746667	1.78717E-001	-1.00841E-004	0.00000E+000	-1.80220E-005	-5.99601E-002	1.78754E-001	3.57670E+000	9	...........
	56	0.76	1.66383E-001	-9.93969E-005	0.00000E+000	-1.65379E-005	-5.99601E-002	1.66413E-001	3.57670E+000	9	...........
	57	0.773333	1.54103E-001	-9.93042E-005	0.00000E+000	-1.53030E-005	-5.99601E-002	1.54132E-001	3.57670E+000	9	...........
	58	0.786667	1.41872E-001	-9.87197E-005	0.00000E+000	-1.40056E-005	-5.99601E-002	1.41903E-001	3.57670E+000	9	...........
	59	0.8	1.29702E-001	-9.95177E-005	0.00000E+000	-1.29077E-005	-5.99601E-002	1.29730E-001	3.57670E+000	9	...........
	60	0.813333	1.17596E-001	-9.90843E-005	0.00000E+000	-1.16519E-005	-5.99601E-002	1.17624E-001	3.57670E+000	9	...........
	61	0.826667	1.05578E-001	-9.88249E-005	0.00000E+000	-1.04338E-005	-5.99601E-002	1.05597E-001	3.57670E+000	9	...........
	62	0.84	9.36257E-002	-9.90458E-005	0.00000E+000	-9.27323E-006	-5.99601E-002	9.36454E-002	3.57670E+000	9	...........
	63	0.853333	8.17634E-002	-9.78955E-005	0.00000E+000	-8.00427E-006	-5.99601E-002	8.17816E-002	3.57670E+000	9	...........
	64	0.866667	7.00101E-002	-9.82164E-005	0.00000E+000	-6.87615E-006	-5.99601E-002	7.00219E-002	3.57670E+000	9	...........
	65	0.88	5.83644E-002	-9.88707E-005	0.00000E+000	-5.77053E-006	-5.99601E-002	5.83738E-002	3.57670E+000	9	...........
	66	0.893333	4.68611E-002	-9.84415E-005	0.00000E+000	-4.61308E-006	-5.99601E-002	4.68665E-002	3.57670E+000	9	...........
	67	0.906667	3.54828E-002	-9.75100E-005	0.00000E+000	-3.45993E-006	-5.99601E-002	3.54827E-002	3.57670E+000	9	...........
	68	0.92	2.42225E-002	-9.95428E-005	0.00000E+000	-2.41117E-006	-5.99601E-002	2.42189E-002	3.57670E+000	9	...........
	69	0.933333	1.31127E-002	-9.79518E-005	0.00000E+000	-1.28441E-006	-5.99601E-002	1.30976E-002	3.57670E+000	9	...........
	70	0.945	2.83405E-003	-1.00076E-004	0.00000E+000	-2.83620E-007	-5.99601E-002	2.81295E-003	3.57670E+000	9	...........
STARTTIMEOFFSET	QUANT	929.3668	Start Time Offset (s)
