EXPLAIN
TAG	PWR800_DISCHARGE
TITLE	LABEL	PWR Cyclic Charge Discharge (Cell) - Discharge Step	Test &Identifier
DATE	LABEL	12-7-2017	Date
TIME	LABEL	16:33:07	Time
NOTES	NOTES	2	&Notes...
	supercap test cell
	6M KOH
PSTAT	PSTAT	IFC5000-01520	Potentiostat
CAPACITY	QUANT	1.00000E-003	Capacity (A-hr)
CELLTYPE	SELECTOR	1	&Cell Type
WORKINGCONNECTION	SELECTOR	0	&Working Lead
MAXDISCHARGETIME	VARIABLEANDUNITS	1.00000E+002	s	1.00000E+002	second(s)	Max &Discharge Time
DISCHARGEMODE	MULTIPARAM	0	1.00000E-004	&Discharge Mode	Constant Current	Amp(s)
SAMPLETIME	QUANT	1.00000E-002	Sa&mple Period (s)
DISCHARGESTOPAT1	MULTIPARAM	3	0.00000E+000	Discharge Stop At &1	Voltage < Limit	V
DISCHARGESTOPAT2	MULTIPARAM	0	0.00000E+000	Discharge Stop At &2	None	N/A
AESBHCSELECTOR	TOGGLE	F	Save Both Half Cells
IRCOMP	TOGGLE	F	IR &Measure
EOC	QUANT	0	Open Circuit (V)
SEQUENCER	TOGGLE	TRUE	Run as Sequence
PSTATMODEL	IQUANT	53	Pstat Model
PSTATSECTION	LABEL	IFC5000-01520	Pstat Section
PSTATSERIALNO	LABEL	01520	Pstat Serial Number
CTRLMODE	IQUANT	0	Control Mode
ELECTROMETER	IQUANT	1	RE=0 or CS=1
IESTAB	IQUANT	0	I/E Stability
CASPEED	IQUANT	4	Control Amp Speed
CONVENTION	IQUANT	1	Current Convention
ICHRANGE	IQUANT	2	Ich Range
ICHRANGEMODE	TOGGLE	T	Ich Auto Range
ICHOFFSETENABLE	TOGGLE	F	Ich Offset Enable
ICHOFFSET	QUANT	0	Ich Offset (V)
ICHFILTER	IQUANT	1	Ich Filter
VCHRANGE	IQUANT	2	Vch Range
VCHRANGEMODE	TOGGLE	T	Vch Auto Range
VCHOFFSETENABLE	TOGGLE	F	Vch Offset Enable
VCHOFFSET	QUANT	0	Vch Offset (V)
VCHFILTER	IQUANT	1	Vch Filter
IERANGELOWERLIMIT	IQUANT	9	I/E Range Lower Limit
IERANGEMODE	TOGGLE	F	I/E AutoRange
IERANGE	IQUANT	9	I/E Range
ACHSELECT	IQUANT	1	Ach Select
ACHRANGE	IQUANT	2	Ach Range
ACHOFFSETENABLE	TOGGLE	F	Ach Offset Enable
ACHOFFSET	QUANT	0	Ach Offset (V)
ACHFILTER	IQUANT	1	Ach Filter
CABLEID	IQUANT	14	Cable ID
DCCALDATE	LABEL	5-7-2017	DC Calibration Date
ACCALDATE	LABEL	12/3/2015	AC Calibration Date
FRAMEWORKVERSION	QUANT	7.01	Framework Version
INSTRUMENTVERSION	LABEL	4.00	Instrument Version
CURVE	TABLE	71
	Pt	T	Vf	Im	Vu	Pwr	Sig	Ach	Temp	IERange	Over
	#	s	V	A	V	W	V	V	deg C	#	bits
	0	0.013333	8.46543E-001	-9.90322E-005	0.00000E+000	-8.38350E-005	-5.99601E-002	8.46826E-001	3.57680E+000	9	...........
	1	0.026667	8.33528E-001	-9.88759E-005	0.00000E+000	-8.24159E-005	-5.99601E-002	8.33781E-001	3.57680E+000	9	...........
	2	0.04	8.21092E-001	-9.96032E-005	0.00000E+000	-8.17834E-005	-5.99601E-002	8.21365E-001	3.57680E+000	9	...........
	3	0.053333	8.09023E-001	-9.77736E-005	0.00000E+000	-7.91011E-005	-5.99601E-002	8.09292E-001	3.57680E+000	9	...........
	4	0.066667	7.97270E-001	-9.97751E-005	0.00000E+000	-7.95477E-005	-5.99601E-002	7.97522E-001	3.57680E+000	9	...........
	5	0.08	7.85651E-001	-9.87290E-005	0.00000E+000	-7.75665E-005	-5.99601E-002	7.85899E-001	3.57680E+000	9	...........
	6	0.093333	7.74229E-001	-9.80383E-005	0.00000E+000	-7.59040E-005	-5.99601E-002	7.74486E-001	3.57680E+000	9	...........
	7	0.106667	7.62911E-001	-9.94240E-005	0.00000E+000	-7.58516E-005	-5.99601E-002	7.63155E-001	3.57680E+000	9	...........
	8	0.12	7.51742E-001	-9.90010E-005	0.00000E+000	-7.44232E-005	-5.99601E-002	7.51985E-001	3.57680E+000	9	...........
	9	0.133333	7.40643E-001	-9.92802E-005	0.00000E+000	-7.35311E-005	-5.99601E-002	7.40894E-001	3.57680E+000	9	...........
	10	0.146667	7.29650E-001	-9.89197E-005	0.00000E+000	-7.21767E-005	-5.99601E-002	7.29891E-001	3.57680E+000	9	...........
	11	0.16	7.18760E-001	-9.93667E-005	0.00000E+000	-7.14207E-005	-5.99601E-002	7.19008E-001	3.57680E+000	9	...........
	12	0.173333	7.07907E-001	-9.77715E-005	0.00000E+000	-6.92131E-005	-5.99601E-002	7.08164E-001	3.57680E+000	9	...........
	13	0.186667	6.97179E-001	-9.91479E-005	0.00000E+000	-6.91238E-005	-5.99601E-002	6.97424E-001	3.57680E+000	9	...........
	14	0.2	6.86486E-001	-9.98157E-005	0.00000E+000	-6.85221E-005	-5.99601E-002	6.86734E-001	3.57680E+000	9	...........
	15	0.213333	6.75860E-001	-9.84946E-005	0.00000E+000	-6.65686E-005	-5.99601E-002	6.76087E-001	3.57680E+000	9	...........
	16	0.226667	6.65193E-001	-9.88853E-005	0.00000E+000	-6.57779E-005	-5.99601E-002	6.65442E-001	3.57680E+000	9	...........
	17	0.24	6.54512E-001	-9.99105E-005	0.00000E+000	-6.53927E-005	-5.99601E-002	6.54768E-001	3.57680E+000	9	...........
	18	0.253333	6.43763E-001	-9.81862E-005	0.00000E+000	-6.32087E-005	-5.99601E-002	6.44012E-001	3.57680E+000	9	...........
	19	0.266667	6.32850E-001	-9.96542E-005	0.00000E+000	-6.30662E-005	-5.99601E-002	6.33118E-001	3.57680E+000	9	...........
	20	0.28	6.21827E-001	-9.97595E-005	0.00000E+000	-6.20332E-005	-5.99601E-002	6.22074E-001	3.57680E+000	9	...........
	21	0.293333	6.10572E-001	-9.84894E-005	0.00000E+000	-6.01349E-005	-5.99601E-002	6.10843E-001	3.57680E+000	9	...........
	22	0.306667	5.99144E-001	-9.82571E-005	0.00000E+000	-5.88701E-005	-5.99601E-002	5.99443E-001	3.57680E+000	9	...........
	23	0.32	5.87521E-001	-9.90770E-005	0.00000E+000	-5.82098E-005	-5.99601E-002	5.87797E-001	3.57680E+000	9	...........
	24	0.333333	5.75718E-001	-9.90593E-005	0.00000E+000	-5.70302E-005	-5.99601E-002	5.75988E-001	3.57680E+000	9	...........
	25	0.346667	5.63718E-001	-9.96126E-005	0.00000E+000	-5.61534E-005	-5.99601E-002	5.64004E-001	3.57680E+000	9	...........
	26	0.36	5.51543E-001	-9.79560E-005	0.00000E+000	-5.40269E-005	-5.99601E-002	5.51817E-001	3.57680E+000	9	...........
	27	0.373333	5.39251E-001	-9.71902E-005	0.00000E+000	-5.24099E-005	-5.99601E-002	5.39514E-001	3.57680E+000	9	...........
	28	0.386667	5.26789E-001	-9.91760E-005	0.00000E+000	-5.22448E-005	-5.99601E-002	5.27024E-001	3.57680E+000	9	...........
	29	0.4	5.14216E-001	-9.92291E-005	0.00000E+000	-5.10253E-005	-5.99601E-002	5.14421E-001	3.57680E+000	9	...........
	30	0.413333	5.01473E-001	-9.89197E-005	0.00000E+000	-4.96056E-005	-5.99601E-002	5.01725E-001	3.57680E+000	9	...........
	31	0.426667	4.88738E-001	-9.98032E-005	0.00000E+000	-4.87777E-005	-5.99601E-002	4.88945E-001	3.57680E+000	9	...........
	32	0.44	4.76112E-001	-9.85290E-005	0.00000E+000	-4.69108E-005	-5.99601E-002	4.76213E-001	3.57680E+000	9	...........
	33	0.453333	4.63144E-001	-9.78997E-005	0.00000E+000	-4.53417E-005	-5.99601E-002	4.63242E-001	3.57680E+000	9	...........
	34	0.466667	4.50108E-001	-9.81966E-005	0.00000E+000	-4.41991E-005	-5.99601E-002	4.50202E-001	3.57680E+000	9	...........
	35	0.48	4.37027E-001	-9.90447E-005	0.00000E+000	-4.32852E-005	-5.99601E-002	4.37116E-001	3.57680E+000	9	...........
	36	0.493333	4.23901E-001	-9.77059E-005	0.00000E+000	-4.14176E-005	-5.99601E-002	4.23993E-001	3.57680E+000	9	...........
	37	0.506667	4.10747E-001	-9.83790E-005	0.00000E+000	-4.04088E-005	-5.99601E-002	4.10830E-001	3.57680E+000	9	...........
	38	0.52	3.97589E-001	-9.91729E-005	0.00000E+000	-3.94300E-005	-5.99601E-002	3.97660E-001	3.57680E+000	9	...........
	39	0.533333	3.84409E-001	-9.85728E-005	0.00000E+000	-3.78922E-005	-5.99601E-002	3.84484E-001	3.57680E+000	9	...........
	40	0.546667	3.71243E-001	-9.85748E-005	0.00000E+000	-3.65952E-005	-5.99601E-002	3.71313E-001	3.57680E+000	9	...........
	41	0.56	3.58086E-001	-9.87738E-005	0.00000E+000	-3.53695E-005	-5.99601E-002	3.58160E-001	3.57680E+000	9	...........
	42	0.573333	3.44956E-001	-9.93990E-005	0.00000E+000	-3.42883E-005	-5.99601E-002	3.45025E-001	3.57680E+000	9	...........
	43	0.586667	3.31866E-001	-9.79685E-005	0.00000E+000	-3.25124E-005	-5.99601E-002	3.31927E-001	3.57680E+000	9	...........
	44	0.6	3.18810E-001	-1.00378E-004	0.00000E+000	-3.20016E-005	-5.99601E-002	3.18871E-001	3.57680E+000	9	...........
	45	0.613333	3.05794E-001	-9.86644E-005	0.00000E+000	-3.01710E-005	-5.99601E-002	3.05852E-001	3.57680E+000	9	...........
	46	0.626667	2.92836E-001	-9.88322E-005	0.00000E+000	-2.89416E-005	-5.99601E-002	2.92891E-001	3.57680E+000	9	...........
	47	0.64	2.79926E-001	-9.91739E-005	0.00000E+000	-2.77614E-005	-5.99601E-002	2.79983E-001	3.57680E+000	9	...........
	48	0.653333	2.67076E-001	-9.82737E-005	0.00000E+000	-2.62466E-005	-5.99601E-002	2.67136E-001	3.57680E+000	9	...........
	49	0.666667	2.54277E-001	-9.86592E-005	0.00000E+000	-2.50868E-005	-5.99601E-002	2.54328E-001	3.57680E+000	9	...........
	50	0.68	2.41539E-001	-9.78372E-005	0.00000E+000	-2.36315E-005	-5.99601E-002	2.41581E-001	3.57680E+000	9	...........
	51	0.693333	2.28855E-001	-9.94740E-005	0.00000E+000	-2.27651E-005	-5.99601E-002	2.28895E-001	3.57680E+000	9	...........
	52	0.706667	2.16237E-001	-9.93510E-005	0.00000E+000	-2.14833E-005	-5.99601E-002	2.16271E-001	3.57680E+000	9	...........
	53	0.72	2.03676E-001	-9.75257E-005	0.00000E+000	-1.98636E-005	-5.99601E-002	2.03714E-001	3.57680E+000	9	...........
	54	0.733333	1.91171E-001	-9.87676E-005	0.00000E+000	-1.88815E-005	-5.99601E-002	1.91202E-001	3.57680E+000	9	...........
	55	0.746667	1.78708E-001	-9.93490E-005	0.00000E+000	-1.77545E-005	-5.99601E-002	1.78741E-001	3.57680E+000	9	...........
	56	0.76	1.66322E-001	-9.86082E-005	0.00000E+000	-1.64007E-005	-5.99601E-002	1.66347E-001	3.57680E+000	9	...........
	57	0.773333	1.53986E-001	-9.87520E-005	0.00000E+000	-1.52064E-005	-5.99601E-002	1.54007E-001	3.57680E+000	9	...........
	58	0.786667	1.41693E-001	-9.79226E-005	0.00000E+000	-1.38750E-005	-5.99601E-002	1.41718E-001	3.57680E+000	9	...........
	59	0.8	1.29469E-001	-9.83988E-005	0.00000E+000	-1.27396E-005	-5.99601E-002	1.29492E-001	3.57680E+000	9	...........
	60	0.813333	1.17298E-001	-9.87520E-005	0.00000E+000	-1.15834E-005	-5.99601E-002	1.17330E-001	3.57680E+000	9	...........
	61	0.826667	1.05221E-001	-9.77476E-005	0.00000E+000	-1.02851E-005	-5.99601E-002	1.05242E-001	3.57680E+000	9	...........
	62	0.84	9.32194E-002	-9.81154E-005	0.00000E+000	-9.14626E-006	-5.99601E-002	9.32411E-002	3.57680E+000	9	...........
	63	0.853333	8.13181E-002	-9.93333E-005	0.00000E+000	-8.07760E-006	-5.99601E-002	8.13323E-002	3.57680E+000	9	...........
	64	0.866667	6.95182E-002	-9.98063E-005	0.00000E+000	-6.93835E-006	-5.99601E-002	6.95268E-002	3.57680E+000	9	...........
	65	0.88	5.78259E-002	-9.88551E-005	0.00000E+000	-5.71639E-006	-5.99601E-002	5.78334E-002	3.57680E+000	9	...........
	66	0.893333	4.62766E-002	-9.81758E-005	0.00000E+000	-4.54324E-006	-5.99601E-002	4.62846E-002	3.57680E+000	9	...........
	67	0.906667	3.48593E-002	-9.87332E-005	0.00000E+000	-3.44177E-006	-5.99601E-002	3.48586E-002	3.57680E+000	9	...........
	68	0.92	2.35728E-002	-9.79205E-005	0.00000E+000	-2.30826E-006	-5.99601E-002	2.35631E-002	3.57680E+000	9	...........
	69	0.933333	1.24356E-002	-9.76861E-005	0.00000E+000	-1.21478E-006	-5.99601E-002	1.24213E-002	3.57680E+000	9	...........
	70	0.943333	2.81997E-003	-9.74572E-005	0.00000E+000	-2.74827E-007	-5.99601E-002	2.80004E-003	3.57680E+000	9	...........
STARTTIMEOFFSET	QUANT	986.01	Start Time Offset (s)
