EXPLAIN
TAG	PWR800_DISCHARGE
TITLE	LABEL	PWR Cyclic Charge Discharge (Cell) - Discharge Step	Test &Identifier
DATE	LABEL	12-7-2017	Date
TIME	LABEL	16:10:47	Time
NOTES	NOTES	2	&Notes...
	supercap test cell
	6M KOH
PSTAT	PSTAT	IFC5000-01520	Potentiostat
CAPACITY	QUANT	1.00000E-003	Capacity (A-hr)
CELLTYPE	SELECTOR	1	&Cell Type
WORKINGCONNECTION	SELECTOR	0	&Working Lead
MAXDISCHARGETIME	VARIABLEANDUNITS	1.00000E+002	s	1.00000E+002	second(s)	Max &Discharge Time
DISCHARGEMODE	MULTIPARAM	0	1.00000E-004	&Discharge Mode	Constant Current	Amp(s)
SAMPLETIME	QUANT	1.00000E-002	Sa&mple Period (s)
DISCHARGESTOPAT1	MULTIPARAM	3	0.00000E+000	Discharge Stop At &1	Voltage < Limit	V
DISCHARGESTOPAT2	MULTIPARAM	0	0.00000E+000	Discharge Stop At &2	None	N/A
AESBHCSELECTOR	TOGGLE	F	Save Both Half Cells
IRCOMP	TOGGLE	F	IR &Measure
EOC	QUANT	0	Open Circuit (V)
SEQUENCER	TOGGLE	TRUE	Run as Sequence
PSTATMODEL	IQUANT	53	Pstat Model
PSTATSECTION	LABEL	IFC5000-01520	Pstat Section
PSTATSERIALNO	LABEL	01520	Pstat Serial Number
CTRLMODE	IQUANT	0	Control Mode
ELECTROMETER	IQUANT	1	RE=0 or CS=1
IESTAB	IQUANT	0	I/E Stability
CASPEED	IQUANT	4	Control Amp Speed
CONVENTION	IQUANT	1	Current Convention
ICHRANGE	IQUANT	2	Ich Range
ICHRANGEMODE	TOGGLE	T	Ich Auto Range
ICHOFFSETENABLE	TOGGLE	F	Ich Offset Enable
ICHOFFSET	QUANT	0	Ich Offset (V)
ICHFILTER	IQUANT	1	Ich Filter
VCHRANGE	IQUANT	2	Vch Range
VCHRANGEMODE	TOGGLE	T	Vch Auto Range
VCHOFFSETENABLE	TOGGLE	F	Vch Offset Enable
VCHOFFSET	QUANT	0	Vch Offset (V)
VCHFILTER	IQUANT	1	Vch Filter
IERANGELOWERLIMIT	IQUANT	9	I/E Range Lower Limit
IERANGEMODE	TOGGLE	F	I/E AutoRange
IERANGE	IQUANT	9	I/E Range
ACHSELECT	IQUANT	1	Ach Select
ACHRANGE	IQUANT	2	Ach Range
ACHOFFSETENABLE	TOGGLE	F	Ach Offset Enable
ACHOFFSET	QUANT	0	Ach Offset (V)
ACHFILTER	IQUANT	1	Ach Filter
CABLEID	IQUANT	14	Cable ID
DCCALDATE	LABEL	5-7-2017	DC Calibration Date
ACCALDATE	LABEL	12/3/2015	AC Calibration Date
FRAMEWORKVERSION	QUANT	7.01	Framework Version
INSTRUMENTVERSION	LABEL	4.00	Instrument Version
CURVE	TABLE	75
	Pt	T	Vf	Im	Vu	Pwr	Sig	Ach	Temp	IERange	Over
	#	s	V	A	V	W	V	V	deg C	#	bits
	0	0.013333	8.30688E-001	-9.94375E-005	0.00000E+000	-8.26016E-005	-5.99601E-002	8.30992E-001	3.57720E+000	9	...........
	1	0.026667	8.17244E-001	-9.90999E-005	0.00000E+000	-8.09888E-005	-5.99601E-002	8.17577E-001	3.57720E+000	9	...........
	2	0.04	8.04382E-001	-9.91364E-005	0.00000E+000	-7.97436E-005	-5.99601E-002	8.04697E-001	3.57720E+000	9	...........
	3	0.053333	7.91865E-001	-9.85102E-005	0.00000E+000	-7.80068E-005	-5.99601E-002	7.92126E-001	3.57720E+000	9	...........
	4	0.066667	7.79546E-001	-9.91312E-005	0.00000E+000	-7.72773E-005	-5.99601E-002	7.79809E-001	3.57720E+000	9	...........
	5	0.08	7.67376E-001	-9.93302E-005	0.00000E+000	-7.62236E-005	-5.99601E-002	7.67655E-001	3.57720E+000	9	...........
	6	0.093333	7.55274E-001	-9.78320E-005	0.00000E+000	-7.38900E-005	-5.99601E-002	7.55557E-001	3.57720E+000	9	...........
	7	0.106667	7.43259E-001	-9.81216E-005	0.00000E+000	-7.29297E-005	-5.99601E-002	7.43530E-001	3.57720E+000	9	...........
	8	0.12	7.31285E-001	-9.91927E-005	0.00000E+000	-7.25382E-005	-5.99601E-002	7.31561E-001	3.57720E+000	9	...........
	9	0.133333	7.19389E-001	-9.88687E-005	0.00000E+000	-7.11250E-005	-5.99601E-002	7.19625E-001	3.57720E+000	9	...........
	10	0.146667	7.07452E-001	-9.89239E-005	0.00000E+000	-6.99839E-005	-5.99601E-002	7.07734E-001	3.57720E+000	9	...........
	11	0.16	6.95619E-001	-9.80706E-005	0.00000E+000	-6.82197E-005	-5.99601E-002	6.95877E-001	3.57720E+000	9	...........
	12	0.173333	6.83782E-001	-9.87176E-005	0.00000E+000	-6.75013E-005	-5.99601E-002	6.84038E-001	3.57720E+000	9	...........
	13	0.186667	6.72002E-001	-9.86613E-005	0.00000E+000	-6.63006E-005	-5.99601E-002	6.72254E-001	3.57720E+000	9	...........
	14	0.2	6.60217E-001	-9.88916E-005	0.00000E+000	-6.52899E-005	-5.99601E-002	6.60480E-001	3.57720E+000	9	...........
	15	0.213333	6.48487E-001	-9.85821E-005	0.00000E+000	-6.39293E-005	-5.99601E-002	6.48747E-001	3.57720E+000	9	...........
	16	0.226667	6.36777E-001	-9.78591E-005	0.00000E+000	-6.23144E-005	-5.99601E-002	6.37051E-001	3.57720E+000	9	...........
	17	0.24	6.25144E-001	-9.86113E-005	0.00000E+000	-6.16462E-005	-5.99601E-002	6.25382E-001	3.57720E+000	9	...........
	18	0.253333	6.13524E-001	-9.91322E-005	0.00000E+000	-6.08201E-005	-5.99601E-002	6.13800E-001	3.57720E+000	9	...........
	19	0.266667	6.01966E-001	-9.88405E-005	0.00000E+000	-5.94987E-005	-5.99601E-002	6.02237E-001	3.57720E+000	9	...........
	20	0.28	5.90456E-001	-9.83904E-005	0.00000E+000	-5.80952E-005	-5.99601E-002	5.90735E-001	3.57720E+000	9	...........
	21	0.293333	5.79005E-001	-9.84759E-005	0.00000E+000	-5.70181E-005	-5.99601E-002	5.79267E-001	3.57720E+000	9	...........
	22	0.306667	5.67616E-001	-9.92177E-005	0.00000E+000	-5.63176E-005	-5.99601E-002	5.67862E-001	3.57720E+000	9	...........
	23	0.32	5.56236E-001	-9.87988E-005	0.00000E+000	-5.49554E-005	-5.99601E-002	5.56484E-001	3.57720E+000	9	...........
	24	0.333333	5.44955E-001	-9.88374E-005	0.00000E+000	-5.38620E-005	-5.99601E-002	5.45207E-001	3.57720E+000	9	...........
	25	0.346667	5.33710E-001	-9.87030E-005	0.00000E+000	-5.26788E-005	-5.99601E-002	5.33957E-001	3.57720E+000	9	...........
	26	0.36	5.22528E-001	-9.85113E-005	0.00000E+000	-5.14749E-005	-5.99601E-002	5.22781E-001	3.57720E+000	9	...........
	27	0.373333	5.11354E-001	-9.94198E-005	0.00000E+000	-5.08387E-005	-5.99601E-002	5.11633E-001	3.57720E+000	9	...........
	28	0.386667	5.00275E-001	-9.85707E-005	0.00000E+000	-4.93124E-005	-5.99601E-002	5.00528E-001	3.57720E+000	9	...........
	29	0.4	4.89235E-001	-9.85425E-005	0.00000E+000	-4.82104E-005	-5.99601E-002	4.89498E-001	3.57720E+000	9	...........
	30	0.413333	4.78576E-001	-9.84852E-005	0.00000E+000	-4.71327E-005	-5.99601E-002	4.78683E-001	3.57720E+000	9	...........
	31	0.426667	4.67601E-001	-9.86738E-005	0.00000E+000	-4.61400E-005	-5.99601E-002	4.67705E-001	3.57720E+000	9	...........
	32	0.44	4.56654E-001	-9.90635E-005	0.00000E+000	-4.52378E-005	-5.99601E-002	4.56754E-001	3.57720E+000	9	...........
	33	0.453333	4.45729E-001	-9.88145E-005	0.00000E+000	-4.40444E-005	-5.99601E-002	4.45824E-001	3.57720E+000	9	...........
	34	0.466667	4.34817E-001	-9.90937E-005	0.00000E+000	-4.30876E-005	-5.99601E-002	4.34910E-001	3.57720E+000	9	...........
	35	0.48	4.23920E-001	-9.86332E-005	0.00000E+000	-4.18125E-005	-5.99601E-002	4.24015E-001	3.57720E+000	9	...........
	36	0.493333	4.13033E-001	-9.85582E-005	0.00000E+000	-4.07078E-005	-5.99601E-002	4.13121E-001	3.57720E+000	9	...........
	37	0.506667	4.02130E-001	-9.79966E-005	0.00000E+000	-3.94074E-005	-5.99601E-002	4.02208E-001	3.57720E+000	9	...........
	38	0.52	3.91219E-001	-9.84373E-005	0.00000E+000	-3.85105E-005	-5.99601E-002	3.91298E-001	3.57720E+000	9	...........
	39	0.533333	3.80304E-001	-9.79059E-005	0.00000E+000	-3.72340E-005	-5.99601E-002	3.80377E-001	3.57720E+000	9	...........
	40	0.546667	3.69370E-001	-9.85675E-005	0.00000E+000	-3.64079E-005	-5.99601E-002	3.69442E-001	3.57720E+000	9	...........
	41	0.56	3.58419E-001	-9.96365E-005	0.00000E+000	-3.57116E-005	-5.99601E-002	3.58490E-001	3.57720E+000	9	...........
	42	0.573333	3.47452E-001	-9.86155E-005	0.00000E+000	-3.42642E-005	-5.99601E-002	3.47524E-001	3.57720E+000	9	...........
	43	0.586667	3.36473E-001	-9.89708E-005	0.00000E+000	-3.33009E-005	-5.99601E-002	3.36543E-001	3.57720E+000	9	...........
	44	0.6	3.25478E-001	-9.90103E-005	0.00000E+000	-3.22257E-005	-5.99601E-002	3.25545E-001	3.57720E+000	9	...........
	45	0.613333	3.14463E-001	-9.91833E-005	0.00000E+000	-3.11895E-005	-5.99601E-002	3.14527E-001	3.57720E+000	9	...........
	46	0.626667	3.03427E-001	-9.83008E-005	0.00000E+000	-2.98271E-005	-5.99601E-002	3.03491E-001	3.57720E+000	9	...........
	47	0.64	2.92375E-001	-9.85644E-005	0.00000E+000	-2.88178E-005	-5.99601E-002	2.92438E-001	3.57720E+000	9	...........
	48	0.653333	2.81318E-001	-9.81529E-005	0.00000E+000	-2.76122E-005	-5.99601E-002	2.81379E-001	3.57720E+000	9	...........
	49	0.666667	2.70242E-001	-9.76590E-005	0.00000E+000	-2.63916E-005	-5.99601E-002	2.70296E-001	3.57720E+000	9	...........
	50	0.68	2.59145E-001	-9.89291E-005	0.00000E+000	-2.56370E-005	-5.99601E-002	2.59204E-001	3.57772E+000	9	...........
	51	0.693333	2.48040E-001	-9.88541E-005	0.00000E+000	-2.45198E-005	-5.99601E-002	2.48097E-001	3.57860E+000	9	...........
	52	0.706667	2.36936E-001	-9.86697E-005	0.00000E+000	-2.33784E-005	-5.99601E-002	2.36983E-001	3.57860E+000	9	...........
	53	0.72	2.25833E-001	-9.93760E-005	0.00000E+000	-2.24424E-005	-5.99601E-002	2.25874E-001	3.57860E+000	9	...........
	54	0.733333	2.14709E-001	-9.94427E-005	0.00000E+000	-2.13513E-005	-5.99601E-002	2.14749E-001	3.57860E+000	9	...........
	55	0.746667	2.03596E-001	-9.84644E-005	0.00000E+000	-2.00469E-005	-5.99601E-002	2.03634E-001	3.57860E+000	9	...........
	56	0.76	1.92493E-001	-9.88218E-005	0.00000E+000	-1.90225E-005	-5.99601E-002	1.92536E-001	3.57860E+000	9	...........
	57	0.773333	1.81413E-001	-9.90291E-005	0.00000E+000	-1.79652E-005	-5.99601E-002	1.81449E-001	3.57860E+000	9	...........
	58	0.786667	1.70348E-001	-9.88009E-005	0.00000E+000	-1.68306E-005	-5.99601E-002	1.70384E-001	3.57860E+000	9	...........
	59	0.8	1.59325E-001	-9.87488E-005	0.00000E+000	-1.57332E-005	-5.99601E-002	1.59354E-001	3.57860E+000	9	...........
	60	0.813333	1.48328E-001	-9.83894E-005	0.00000E+000	-1.45939E-005	-5.99601E-002	1.48350E-001	3.57860E+000	9	...........
	61	0.826667	1.37362E-001	-9.88645E-005	0.00000E+000	-1.35802E-005	-5.99601E-002	1.37388E-001	3.57860E+000	9	...........
	62	0.84	1.26452E-001	-9.91979E-005	0.00000E+000	-1.25438E-005	-5.99601E-002	1.26478E-001	3.57860E+000	9	...........
	63	0.853333	1.15602E-001	-9.93135E-005	0.00000E+000	-1.14808E-005	-5.99601E-002	1.15625E-001	3.57860E+000	9	...........
	64	0.866667	1.04815E-001	-9.87707E-005	0.00000E+000	-1.03527E-005	-5.99601E-002	1.04835E-001	3.57860E+000	9	...........
	65	0.88	9.41060E-002	-9.91114E-005	0.00000E+000	-9.32698E-006	-5.99601E-002	9.41242E-002	3.57860E+000	9	...........
	66	0.893333	8.34797E-002	-9.85092E-005	0.00000E+000	-8.22352E-006	-5.99601E-002	8.34924E-002	3.57860E+000	9	...........
	67	0.906667	7.29532E-002	-9.80674E-005	0.00000E+000	-7.15434E-006	-5.99601E-002	7.29536E-002	3.57860E+000	9	...........
	68	0.92	6.25151E-002	-9.97553E-005	0.00000E+000	-6.23621E-006	-5.99601E-002	6.25163E-002	3.57860E+000	9	...........
	69	0.933333	5.21969E-002	-9.91593E-005	0.00000E+000	-5.17581E-006	-5.99601E-002	5.22013E-002	3.57860E+000	9	...........
	70	0.946667	4.20185E-002	-9.84113E-005	0.00000E+000	-4.13510E-006	-5.99601E-002	4.20249E-002	3.57860E+000	9	...........
	71	0.96	3.19375E-002	-9.81393E-005	0.00000E+000	-3.13433E-006	-5.99601E-002	3.19337E-002	3.57860E+000	9	...........
	72	0.97333	2.19852E-002	-9.80226E-005	0.00000E+000	-2.15505E-006	-5.99601E-002	2.19753E-002	3.57860E+000	9	...........
	73	0.98667	1.21755E-002	-9.94313E-005	0.00000E+000	-1.21063E-006	-5.99601E-002	1.21584E-002	3.57860E+000	9	...........
	74	0.99833	3.10788E-003	-9.80816E-005	0.00000E+000	-3.04825E-007	-5.99601E-002	3.09115E-003	3.57860E+000	9	...........
STARTTIMEOFFSET	QUANT	30.02834	Start Time Offset (s)
