EXPLAIN
TAG	PWR800_DISCHARGE
TITLE	LABEL	PWR Cyclic Charge Discharge (Cell) - Discharge Step	Test &Identifier
DATE	LABEL	12-7-2017	Date
TIME	LABEL	16:50:49	Time
NOTES	NOTES	2	&Notes...
	supercap test cell
	6M KOH
PSTAT	PSTAT	IFC5000-01520	Potentiostat
CAPACITY	QUANT	1.00000E-003	Capacity (A-hr)
CELLTYPE	SELECTOR	1	&Cell Type
WORKINGCONNECTION	SELECTOR	0	&Working Lead
MAXDISCHARGETIME	VARIABLEANDUNITS	1.00000E+002	s	1.00000E+002	second(s)	Max &Discharge Time
DISCHARGEMODE	MULTIPARAM	0	1.00000E-004	&Discharge Mode	Constant Current	Amp(s)
SAMPLETIME	QUANT	1.00000E-002	Sa&mple Period (s)
DISCHARGESTOPAT1	MULTIPARAM	3	0.00000E+000	Discharge Stop At &1	Voltage < Limit	V
DISCHARGESTOPAT2	MULTIPARAM	0	0.00000E+000	Discharge Stop At &2	None	N/A
AESBHCSELECTOR	TOGGLE	F	Save Both Half Cells
IRCOMP	TOGGLE	F	IR &Measure
EOC	QUANT	0	Open Circuit (V)
SEQUENCER	TOGGLE	TRUE	Run as Sequence
PSTATMODEL	IQUANT	53	Pstat Model
PSTATSECTION	LABEL	IFC5000-01520	Pstat Section
PSTATSERIALNO	LABEL	01520	Pstat Serial Number
CTRLMODE	IQUANT	0	Control Mode
ELECTROMETER	IQUANT	1	RE=0 or CS=1
IESTAB	IQUANT	0	I/E Stability
CASPEED	IQUANT	4	Control Amp Speed
CONVENTION	IQUANT	1	Current Convention
ICHRANGE	IQUANT	2	Ich Range
ICHRANGEMODE	TOGGLE	T	Ich Auto Range
ICHOFFSETENABLE	TOGGLE	F	Ich Offset Enable
ICHOFFSET	QUANT	0	Ich Offset (V)
ICHFILTER	IQUANT	1	Ich Filter
VCHRANGE	IQUANT	2	Vch Range
VCHRANGEMODE	TOGGLE	T	Vch Auto Range
VCHOFFSETENABLE	TOGGLE	F	Vch Offset Enable
VCHOFFSET	QUANT	0	Vch Offset (V)
VCHFILTER	IQUANT	1	Vch Filter
IERANGELOWERLIMIT	IQUANT	9	I/E Range Lower Limit
IERANGEMODE	TOGGLE	F	I/E AutoRange
IERANGE	IQUANT	9	I/E Range
ACHSELECT	IQUANT	1	Ach Select
ACHRANGE	IQUANT	2	Ach Range
ACHOFFSETENABLE	TOGGLE	F	Ach Offset Enable
ACHOFFSET	QUANT	0	Ach Offset (V)
ACHFILTER	IQUANT	1	Ach Filter
CABLEID	IQUANT	14	Cable ID
DCCALDATE	LABEL	5-7-2017	DC Calibration Date
ACCALDATE	LABEL	12/3/2015	AC Calibration Date
FRAMEWORKVERSION	QUANT	7.01	Framework Version
INSTRUMENTVERSION	LABEL	4.00	Instrument Version
CURVE	TABLE	70
	Pt	T	Vf	Im	Vu	Pwr	Sig	Ach	Temp	IERange	Over
	#	s	V	A	V	W	V	V	deg C	#	bits
	0	0.013333	8.46022E-001	-9.80497E-005	0.00000E+000	-8.29522E-005	-5.99601E-002	8.46331E-001	3.57640E+000	9	...........
	1	0.026667	8.32785E-001	-9.93115E-005	0.00000E+000	-8.27051E-005	-5.99601E-002	8.33088E-001	3.57640E+000	9	...........
	2	0.04	8.20172E-001	-9.81570E-005	0.00000E+000	-8.05057E-005	-5.99601E-002	8.20471E-001	3.57640E+000	9	...........
	3	0.053333	8.07901E-001	-9.85665E-005	0.00000E+000	-7.96320E-005	-5.99601E-002	8.08181E-001	3.57640E+000	9	...........
	4	0.066667	7.95933E-001	-9.97720E-005	0.00000E+000	-7.94118E-005	-5.99601E-002	7.96169E-001	3.57640E+000	9	...........
	5	0.08	7.84102E-001	-9.98991E-005	0.00000E+000	-7.83311E-005	-5.99601E-002	7.84366E-001	3.57640E+000	9	...........
	6	0.093333	7.72457E-001	-9.82914E-005	0.00000E+000	-7.59259E-005	-5.99601E-002	7.72731E-001	3.57640E+000	9	...........
	7	0.106667	7.60920E-001	-9.86290E-005	0.00000E+000	-7.50488E-005	-5.99601E-002	7.61169E-001	3.57640E+000	9	...........
	8	0.12	7.49497E-001	-9.68172E-005	0.00000E+000	-7.25642E-005	-5.99601E-002	7.49729E-001	3.57640E+000	9	...........
	9	0.133333	7.38145E-001	-9.96313E-005	0.00000E+000	-7.35424E-005	-5.99601E-002	7.38416E-001	3.57640E+000	9	...........
	10	0.146667	7.26919E-001	-9.87103E-005	0.00000E+000	-7.17544E-005	-5.99601E-002	7.27185E-001	3.57640E+000	9	...........
	11	0.16	7.15753E-001	-9.70922E-005	0.00000E+000	-6.94941E-005	-5.99601E-002	7.16001E-001	3.57640E+000	9	...........
	12	0.173333	7.04679E-001	-1.00295E-004	0.00000E+000	-7.06758E-005	-5.99601E-002	7.04903E-001	3.57640E+000	9	...........
	13	0.186667	6.93694E-001	-9.86092E-005	0.00000E+000	-6.84046E-005	-5.99601E-002	6.93918E-001	3.57640E+000	9	...........
	14	0.2	6.82766E-001	-9.96459E-005	0.00000E+000	-6.80349E-005	-5.99601E-002	6.82978E-001	3.57640E+000	9	...........
	15	0.213333	6.71915E-001	-9.74319E-005	0.00000E+000	-6.54659E-005	-5.99601E-002	6.72163E-001	3.57640E+000	9	...........
	16	0.226667	6.61112E-001	-9.83321E-005	0.00000E+000	-6.50085E-005	-5.99601E-002	6.61340E-001	3.57640E+000	9	...........
	17	0.24	6.50337E-001	-9.88270E-005	0.00000E+000	-6.42708E-005	-5.99601E-002	6.50584E-001	3.57640E+000	9	...........
	18	0.253333	6.39543E-001	-9.96761E-005	0.00000E+000	-6.37471E-005	-5.99601E-002	6.39781E-001	3.57640E+000	9	...........
	19	0.266667	6.28659E-001	-9.83790E-005	0.00000E+000	-6.18468E-005	-5.99601E-002	6.28903E-001	3.57640E+000	9	...........
	20	0.28	6.17675E-001	-9.88957E-005	0.00000E+000	-6.10854E-005	-5.99601E-002	6.17906E-001	3.57640E+000	9	...........
	21	0.293333	6.06463E-001	-9.86165E-005	0.00000E+000	-5.98073E-005	-5.99601E-002	6.06717E-001	3.57640E+000	9	...........
	22	0.306667	5.95158E-001	-9.92448E-005	0.00000E+000	-5.90663E-005	-5.99601E-002	5.95361E-001	3.57640E+000	9	...........
	23	0.32	5.83572E-001	-9.82539E-005	0.00000E+000	-5.73383E-005	-5.99601E-002	5.83778E-001	3.57640E+000	9	...........
	24	0.333333	5.71802E-001	-9.94584E-005	0.00000E+000	-5.68704E-005	-5.99601E-002	5.71998E-001	3.57640E+000	9	...........
	25	0.346667	5.59751E-001	-9.86207E-005	0.00000E+000	-5.52030E-005	-5.99601E-002	5.60004E-001	3.57640E+000	9	...........
	26	0.36	5.47560E-001	-9.92771E-005	0.00000E+000	-5.43602E-005	-5.99601E-002	5.47801E-001	3.57640E+000	9	...........
	27	0.373333	5.35175E-001	-9.83810E-005	0.00000E+000	-5.26511E-005	-5.99601E-002	5.35429E-001	3.57640E+000	9	...........
	28	0.386667	5.22622E-001	-9.91562E-005	0.00000E+000	-5.18212E-005	-5.99601E-002	5.22869E-001	3.57640E+000	9	...........
	29	0.4	5.09907E-001	-9.95302E-005	0.00000E+000	-5.07512E-005	-5.99601E-002	5.10155E-001	3.57640E+000	9	...........
	30	0.413333	4.97048E-001	-9.85582E-005	0.00000E+000	-4.89881E-005	-5.99601E-002	4.97318E-001	3.57640E+000	9	...........
	31	0.426667	4.84243E-001	-9.92198E-005	0.00000E+000	-4.80465E-005	-5.99601E-002	4.84416E-001	3.57640E+000	9	...........
	32	0.44	4.71317E-001	-9.77372E-005	0.00000E+000	-4.60652E-005	-5.99601E-002	4.71416E-001	3.57640E+000	9	...........
	33	0.453333	4.58140E-001	-9.79841E-005	0.00000E+000	-4.48905E-005	-5.99601E-002	4.58234E-001	3.57640E+000	9	...........
	34	0.466667	4.44876E-001	-9.90739E-005	0.00000E+000	-4.40756E-005	-5.99601E-002	4.44971E-001	3.57640E+000	9	...........
	35	0.48	4.31546E-001	-9.85280E-005	0.00000E+000	-4.25193E-005	-5.99601E-002	4.31634E-001	3.57640E+000	9	...........
	36	0.493333	4.18163E-001	-9.75903E-005	0.00000E+000	-4.08086E-005	-5.99601E-002	4.18250E-001	3.57640E+000	9	...........
	37	0.506667	4.04740E-001	-9.84644E-005	0.00000E+000	-3.98524E-005	-5.99601E-002	4.04821E-001	3.57640E+000	9	...........
	38	0.52	3.91290E-001	-9.96251E-005	0.00000E+000	-3.89823E-005	-5.99601E-002	3.91366E-001	3.57640E+000	9	...........
	39	0.533333	3.77833E-001	-9.91458E-005	0.00000E+000	-3.74605E-005	-5.99601E-002	3.77902E-001	3.57640E+000	9	...........
	40	0.546667	3.64373E-001	-9.84331E-005	0.00000E+000	-3.58664E-005	-5.99601E-002	3.64441E-001	3.57640E+000	9	...........
	41	0.56	3.50914E-001	-9.88864E-005	0.00000E+000	-3.47007E-005	-5.99601E-002	3.50984E-001	3.57640E+000	9	...........
	42	0.573333	3.37480E-001	-9.86728E-005	0.00000E+000	-3.33000E-005	-5.99601E-002	3.37544E-001	3.57640E+000	9	...........
	43	0.586667	3.24070E-001	-9.92437E-005	0.00000E+000	-3.21619E-005	-5.99601E-002	3.24136E-001	3.57640E+000	9	...........
	44	0.6	3.10708E-001	-9.73037E-005	0.00000E+000	-3.02331E-005	-5.99601E-002	3.10770E-001	3.57640E+000	9	...........
	45	0.613333	2.97388E-001	-9.85457E-005	0.00000E+000	-2.93063E-005	-5.99601E-002	2.97448E-001	3.57640E+000	9	...........
	46	0.626667	2.84117E-001	-9.82529E-005	0.00000E+000	-2.79153E-005	-5.99601E-002	2.84178E-001	3.57640E+000	9	...........
	47	0.64	2.70901E-001	-9.79143E-005	0.00000E+000	-2.65251E-005	-5.99601E-002	2.70962E-001	3.57640E+000	9	...........
	48	0.653333	2.57760E-001	-9.89176E-005	0.00000E+000	-2.54970E-005	-5.99601E-002	2.57813E-001	3.57640E+000	9	...........
	49	0.666667	2.44690E-001	-9.89676E-005	0.00000E+000	-2.42164E-005	-5.99601E-002	2.44736E-001	3.57640E+000	9	...........
	50	0.68	2.31685E-001	-9.92854E-005	0.00000E+000	-2.30029E-005	-5.99601E-002	2.31730E-001	3.57640E+000	9	...........
	51	0.693333	2.18760E-001	-9.90926E-005	0.00000E+000	-2.16775E-005	-5.99601E-002	2.18804E-001	3.57640E+000	9	...........
	52	0.706667	2.05906E-001	-9.87613E-005	0.00000E+000	-2.03355E-005	-5.99601E-002	2.05951E-001	3.57640E+000	9	...........
	53	0.72	1.93131E-001	-9.80768E-005	0.00000E+000	-1.89416E-005	-5.99601E-002	1.93170E-001	3.57640E+000	9	...........
	54	0.733333	1.80427E-001	-1.00400E-004	0.00000E+000	-1.81149E-005	-5.99601E-002	1.80458E-001	3.57640E+000	9	...........
	55	0.746667	1.67805E-001	-9.87832E-005	0.00000E+000	-1.65763E-005	-5.99601E-002	1.67837E-001	3.57640E+000	9	...........
	56	0.76	1.55266E-001	-9.84529E-005	0.00000E+000	-1.52864E-005	-5.99601E-002	1.55288E-001	3.57640E+000	9	...........
	57	0.773333	1.42797E-001	-9.85655E-005	0.00000E+000	-1.40748E-005	-5.99601E-002	1.42820E-001	3.57640E+000	9	...........
	58	0.786667	1.30400E-001	-9.89364E-005	0.00000E+000	-1.29013E-005	-5.99601E-002	1.30422E-001	3.57640E+000	9	...........
	59	0.8	1.18085E-001	-9.95313E-005	0.00000E+000	-1.17532E-005	-5.99601E-002	1.18106E-001	3.57640E+000	9	...........
	60	0.813333	1.05858E-001	-9.90729E-005	0.00000E+000	-1.04876E-005	-5.99601E-002	1.05879E-001	3.57640E+000	9	...........
	61	0.826667	9.37281E-002	-9.88030E-005	0.00000E+000	-9.26062E-006	-5.99601E-002	9.37479E-002	3.57640E+000	9	...........
	62	0.84	8.17100E-002	-9.91093E-005	0.00000E+000	-8.09822E-006	-5.99601E-002	8.17209E-002	3.57640E+000	9	...........
	63	0.853333	6.98086E-002	-9.87395E-005	0.00000E+000	-6.89287E-006	-5.99601E-002	6.98176E-002	3.57640E+000	9	...........
	64	0.866667	5.80273E-002	-9.91302E-005	0.00000E+000	-5.75226E-006	-5.99601E-002	5.80295E-002	3.57640E+000	9	...........
	65	0.88	4.64130E-002	-9.85405E-005	0.00000E+000	-4.57356E-006	-5.99601E-002	4.64115E-002	3.57640E+000	9	...........
	66	0.893333	3.49305E-002	-9.93896E-005	0.00000E+000	-3.47173E-006	-5.99601E-002	3.49359E-002	3.57640E+000	9	...........
	67	0.906667	2.35926E-002	-9.89770E-005	0.00000E+000	-2.33512E-006	-5.99601E-002	2.35863E-002	3.57640E+000	9	...........
	68	0.92	1.24287E-002	-9.75965E-005	0.00000E+000	-1.21300E-006	-5.99601E-002	1.24104E-002	3.57640E+000	9	...........
	69	0.93	2.79862E-003	-9.84380E-005	0.00000E+000	-2.75490E-007	-5.99601E-002	2.78197E-003	3.57640E+000	9	...........
STARTTIMEOFFSET	QUANT	1737.944	Start Time Offset (s)
