EXPLAIN
TAG	PWR800_DISCHARGE
TITLE	LABEL	PWR Cyclic Charge Discharge (Cell) - Discharge Step	Test &Identifier
DATE	LABEL	12-7-2017	Date
TIME	LABEL	16:32:06	Time
NOTES	NOTES	2	&Notes...
	supercap test cell
	6M KOH
PSTAT	PSTAT	IFC5000-01520	Potentiostat
CAPACITY	QUANT	1.00000E-003	Capacity (A-hr)
CELLTYPE	SELECTOR	1	&Cell Type
WORKINGCONNECTION	SELECTOR	0	&Working Lead
MAXDISCHARGETIME	VARIABLEANDUNITS	1.00000E+002	s	1.00000E+002	second(s)	Max &Discharge Time
DISCHARGEMODE	MULTIPARAM	0	1.00000E-004	&Discharge Mode	Constant Current	Amp(s)
SAMPLETIME	QUANT	1.00000E-002	Sa&mple Period (s)
DISCHARGESTOPAT1	MULTIPARAM	3	0.00000E+000	Discharge Stop At &1	Voltage < Limit	V
DISCHARGESTOPAT2	MULTIPARAM	0	0.00000E+000	Discharge Stop At &2	None	N/A
AESBHCSELECTOR	TOGGLE	F	Save Both Half Cells
IRCOMP	TOGGLE	F	IR &Measure
EOC	QUANT	0	Open Circuit (V)
SEQUENCER	TOGGLE	TRUE	Run as Sequence
PSTATMODEL	IQUANT	53	Pstat Model
PSTATSECTION	LABEL	IFC5000-01520	Pstat Section
PSTATSERIALNO	LABEL	01520	Pstat Serial Number
CTRLMODE	IQUANT	0	Control Mode
ELECTROMETER	IQUANT	1	RE=0 or CS=1
IESTAB	IQUANT	0	I/E Stability
CASPEED	IQUANT	4	Control Amp Speed
CONVENTION	IQUANT	1	Current Convention
ICHRANGE	IQUANT	2	Ich Range
ICHRANGEMODE	TOGGLE	T	Ich Auto Range
ICHOFFSETENABLE	TOGGLE	F	Ich Offset Enable
ICHOFFSET	QUANT	0	Ich Offset (V)
ICHFILTER	IQUANT	1	Ich Filter
VCHRANGE	IQUANT	2	Vch Range
VCHRANGEMODE	TOGGLE	T	Vch Auto Range
VCHOFFSETENABLE	TOGGLE	F	Vch Offset Enable
VCHOFFSET	QUANT	0	Vch Offset (V)
VCHFILTER	IQUANT	1	Vch Filter
IERANGELOWERLIMIT	IQUANT	9	I/E Range Lower Limit
IERANGEMODE	TOGGLE	F	I/E AutoRange
IERANGE	IQUANT	9	I/E Range
ACHSELECT	IQUANT	1	Ach Select
ACHRANGE	IQUANT	2	Ach Range
ACHOFFSETENABLE	TOGGLE	F	Ach Offset Enable
ACHOFFSET	QUANT	0	Ach Offset (V)
ACHFILTER	IQUANT	1	Ach Filter
CABLEID	IQUANT	14	Cable ID
DCCALDATE	LABEL	5-7-2017	DC Calibration Date
ACCALDATE	LABEL	12/3/2015	AC Calibration Date
FRAMEWORKVERSION	QUANT	7.01	Framework Version
INSTRUMENTVERSION	LABEL	4.00	Instrument Version
CURVE	TABLE	71
	Pt	T	Vf	Im	Vu	Pwr	Sig	Ach	Temp	IERange	Over
	#	s	V	A	V	W	V	V	deg C	#	bits
	0	0.013333	8.44507E-001	-9.98272E-005	0.00000E+000	-8.43048E-005	-5.99601E-002	8.44823E-001	3.57700E+000	9	...........
	1	0.026667	8.31460E-001	-9.87676E-005	0.00000E+000	-8.21213E-005	-5.99601E-002	8.31791E-001	3.57700E+000	9	...........
	2	0.04	8.19054E-001	-9.84467E-005	0.00000E+000	-8.06332E-005	-5.99601E-002	8.19372E-001	3.57700E+000	9	...........
	3	0.053333	8.07005E-001	-9.84894E-005	0.00000E+000	-7.94814E-005	-5.99601E-002	8.07323E-001	3.57700E+000	9	...........
	4	0.066667	7.95240E-001	-9.74048E-005	0.00000E+000	-7.74602E-005	-5.99601E-002	7.95540E-001	3.57700E+000	9	...........
	5	0.08	7.83646E-001	-9.94406E-005	0.00000E+000	-7.79263E-005	-5.99601E-002	7.83944E-001	3.57700E+000	9	...........
	6	0.093333	7.72242E-001	-9.81185E-005	0.00000E+000	-7.57712E-005	-5.99601E-002	7.72541E-001	3.57700E+000	9	...........
	7	0.106667	7.60981E-001	-9.86571E-005	0.00000E+000	-7.50763E-005	-5.99601E-002	7.61249E-001	3.57700E+000	9	...........
	8	0.12	7.49816E-001	-9.78570E-005	0.00000E+000	-7.33747E-005	-5.99601E-002	7.50089E-001	3.57700E+000	9	...........
	9	0.133333	7.38753E-001	-9.81789E-005	0.00000E+000	-7.25300E-005	-5.99601E-002	7.39028E-001	3.57700E+000	9	...........
	10	0.146667	7.27822E-001	-9.86238E-005	0.00000E+000	-7.17805E-005	-5.99601E-002	7.28053E-001	3.57700E+000	9	...........
	11	0.16	7.16929E-001	-9.97751E-005	0.00000E+000	-7.15316E-005	-5.99601E-002	7.17184E-001	3.57700E+000	9	...........
	12	0.173333	7.06124E-001	-9.84373E-005	0.00000E+000	-6.95089E-005	-5.99601E-002	7.06394E-001	3.57700E+000	9	...........
	13	0.186667	6.95433E-001	-9.87593E-005	0.00000E+000	-6.86805E-005	-5.99601E-002	6.95678E-001	3.57700E+000	9	...........
	14	0.2	6.84748E-001	-9.88593E-005	0.00000E+000	-6.76937E-005	-5.99601E-002	6.84990E-001	3.57700E+000	9	...........
	15	0.213333	6.74128E-001	-9.83102E-005	0.00000E+000	-6.62737E-005	-5.99601E-002	6.74377E-001	3.57700E+000	9	...........
	16	0.226667	6.63488E-001	-9.93042E-005	0.00000E+000	-6.58871E-005	-5.99601E-002	6.63738E-001	3.57700E+000	9	...........
	17	0.24	6.52796E-001	-1.00193E-004	0.00000E+000	-6.54056E-005	-5.99601E-002	6.53058E-001	3.57700E+000	9	...........
	18	0.253333	6.42014E-001	-9.90208E-005	0.00000E+000	-6.35727E-005	-5.99601E-002	6.42279E-001	3.57700E+000	9	...........
	19	0.266667	6.31117E-001	-9.89635E-005	0.00000E+000	-6.24575E-005	-5.99601E-002	6.31372E-001	3.57700E+000	9	...........
	20	0.28	6.20086E-001	-9.81435E-005	0.00000E+000	-6.08574E-005	-5.99601E-002	6.20323E-001	3.57700E+000	9	...........
	21	0.293333	6.08730E-001	-9.99178E-005	0.00000E+000	-6.08230E-005	-5.99601E-002	6.09053E-001	3.57700E+000	9	...........
	22	0.306667	5.97342E-001	-9.82727E-005	0.00000E+000	-5.87024E-005	-5.99601E-002	5.97616E-001	3.57700E+000	9	...........
	23	0.32	5.85685E-001	-9.87384E-005	0.00000E+000	-5.78296E-005	-5.99601E-002	5.85971E-001	3.57700E+000	9	...........
	24	0.333333	5.73866E-001	-9.82383E-005	0.00000E+000	-5.63756E-005	-5.99601E-002	5.74153E-001	3.57700E+000	9	...........
	25	0.346667	5.61863E-001	-9.89968E-005	0.00000E+000	-5.56226E-005	-5.99601E-002	5.62130E-001	3.57700E+000	9	...........
	26	0.36	5.49696E-001	-9.90260E-005	0.00000E+000	-5.44342E-005	-5.99601E-002	5.49932E-001	3.57700E+000	9	...........
	27	0.373333	5.37383E-001	-9.84248E-005	0.00000E+000	-5.28918E-005	-5.99601E-002	5.37620E-001	3.57700E+000	9	...........
	28	0.386667	5.24922E-001	-9.85821E-005	0.00000E+000	-5.17479E-005	-5.99601E-002	5.25135E-001	3.57700E+000	9	...........
	29	0.4	5.12350E-001	-9.89280E-005	0.00000E+000	-5.06857E-005	-5.99601E-002	5.12570E-001	3.57700E+000	9	...........
	30	0.413333	4.99647E-001	-9.76538E-005	0.00000E+000	-4.87925E-005	-5.99601E-002	4.99848E-001	3.57700E+000	9	...........
	31	0.426667	4.86947E-001	-9.95292E-005	0.00000E+000	-4.84654E-005	-5.99601E-002	4.87110E-001	3.57700E+000	9	...........
	32	0.44	4.74299E-001	-9.80591E-005	0.00000E+000	-4.65093E-005	-5.99601E-002	4.74399E-001	3.57700E+000	9	...........
	33	0.453333	4.61347E-001	-9.87040E-005	0.00000E+000	-4.55368E-005	-5.99601E-002	4.61444E-001	3.57700E+000	9	...........
	34	0.466667	4.48341E-001	-9.92437E-005	0.00000E+000	-4.44951E-005	-5.99601E-002	4.48434E-001	3.57700E+000	9	...........
	35	0.48	4.35285E-001	-9.87290E-005	0.00000E+000	-4.29753E-005	-5.99601E-002	4.35374E-001	3.57700E+000	9	...........
	36	0.493333	4.22197E-001	-9.81164E-005	0.00000E+000	-4.14244E-005	-5.99601E-002	4.22285E-001	3.57700E+000	9	...........
	37	0.506667	4.09088E-001	-9.88374E-005	0.00000E+000	-4.04331E-005	-5.99601E-002	4.09172E-001	3.57700E+000	9	...........
	38	0.52	3.95955E-001	-9.84779E-005	0.00000E+000	-3.89929E-005	-5.99601E-002	3.96035E-001	3.57700E+000	9	...........
	39	0.533333	3.82818E-001	-9.82508E-005	0.00000E+000	-3.76122E-005	-5.99601E-002	3.82895E-001	3.57700E+000	9	...........
	40	0.546667	3.69688E-001	-9.91573E-005	0.00000E+000	-3.66572E-005	-5.99601E-002	3.69765E-001	3.57700E+000	9	...........
	41	0.56	3.56573E-001	-9.92614E-005	0.00000E+000	-3.53940E-005	-5.99601E-002	3.56653E-001	3.57700E+000	9	...........
	42	0.573333	3.43486E-001	-9.83571E-005	0.00000E+000	-3.37843E-005	-5.99601E-002	3.43561E-001	3.57700E+000	9	...........
	43	0.586667	3.30434E-001	-9.85832E-005	0.00000E+000	-3.25752E-005	-5.99601E-002	3.30506E-001	3.57700E+000	9	...........
	44	0.6	3.17421E-001	-9.80852E-005	0.00000E+000	-3.11342E-005	-5.99601E-002	3.17489E-001	3.57700E+000	9	...........
	45	0.613333	3.04444E-001	-9.77945E-005	0.00000E+000	-2.97730E-005	-5.99601E-002	3.04510E-001	3.57700E+000	9	...........
	46	0.626667	2.91527E-001	-9.85759E-005	0.00000E+000	-2.87375E-005	-5.99601E-002	2.91591E-001	3.57700E+000	9	...........
	47	0.64	2.78659E-001	-9.84186E-005	0.00000E+000	-2.74252E-005	-5.99601E-002	2.78721E-001	3.57700E+000	9	...........
	48	0.653333	2.65843E-001	-9.86363E-005	0.00000E+000	-2.62218E-005	-5.99601E-002	2.65907E-001	3.57700E+000	9	...........
	49	0.666667	2.53085E-001	-9.86436E-005	0.00000E+000	-2.49652E-005	-5.99601E-002	2.53143E-001	3.57700E+000	9	...........
	50	0.68	2.40397E-001	-9.87926E-005	0.00000E+000	-2.37494E-005	-5.99601E-002	2.40444E-001	3.57700E+000	9	...........
	51	0.693333	2.27759E-001	-9.66713E-005	0.00000E+000	-2.20178E-005	-5.99601E-002	2.27810E-001	3.57700E+000	9	...........
	52	0.706667	2.15179E-001	-9.90343E-005	0.00000E+000	-2.13101E-005	-5.99601E-002	2.15225E-001	3.57700E+000	9	...........
	53	0.72	2.02659E-001	-9.90958E-005	0.00000E+000	-2.00827E-005	-5.99601E-002	2.02700E-001	3.57700E+000	9	...........
	54	0.733333	1.90183E-001	-9.90781E-005	0.00000E+000	-1.88430E-005	-5.99601E-002	1.90231E-001	3.57700E+000	9	...........
	55	0.746667	1.77768E-001	-9.86624E-005	0.00000E+000	-1.75390E-005	-5.99601E-002	1.77805E-001	3.57700E+000	9	...........
	56	0.76	1.65397E-001	-9.96428E-005	0.00000E+000	-1.64806E-005	-5.99601E-002	1.65436E-001	3.57700E+000	9	...........
	57	0.773333	1.53089E-001	-9.74975E-005	0.00000E+000	-1.49258E-005	-5.99601E-002	1.53120E-001	3.57700E+000	9	...........
	58	0.786667	1.40834E-001	-9.88884E-005	0.00000E+000	-1.39269E-005	-5.99601E-002	1.40858E-001	3.57700E+000	9	...........
	59	0.8	1.28645E-001	-9.90979E-005	0.00000E+000	-1.27484E-005	-5.99601E-002	1.28669E-001	3.57700E+000	9	...........
	60	0.813333	1.16511E-001	-9.87707E-005	0.00000E+000	-1.15079E-005	-5.99601E-002	1.16541E-001	3.57700E+000	9	...........
	61	0.826667	1.04466E-001	-9.72746E-005	0.00000E+000	-1.01618E-005	-5.99601E-002	1.04483E-001	3.57700E+000	9	...........
	62	0.84	9.24894E-002	-9.94448E-005	0.00000E+000	-9.19759E-006	-5.99601E-002	9.25121E-002	3.57700E+000	9	...........
	63	0.853333	8.06225E-002	-9.79362E-005	0.00000E+000	-7.89586E-006	-5.99601E-002	8.06363E-002	3.57700E+000	9	...........
	64	0.866667	6.88437E-002	-9.87593E-005	0.00000E+000	-6.79895E-006	-5.99601E-002	6.88559E-002	3.57700E+000	9	...........
	65	0.88	5.71770E-002	-9.85821E-005	0.00000E+000	-5.63663E-006	-5.99601E-002	5.71842E-002	3.57700E+000	9	...........
	66	0.893333	4.56544E-002	-9.94667E-005	0.00000E+000	-4.54110E-006	-5.99601E-002	4.56611E-002	3.57700E+000	9	...........
	67	0.906667	3.42567E-002	-9.92031E-005	0.00000E+000	-3.39837E-006	-5.99601E-002	3.42551E-002	3.57715E+000	9	...........
	68	0.92	2.29823E-002	-9.86071E-005	0.00000E+000	-2.26622E-006	-5.99601E-002	2.29773E-002	3.57820E+000	9	...........
	69	0.933333	1.18691E-002	-9.90489E-005	0.00000E+000	-1.17562E-006	-5.99601E-002	1.18524E-002	3.57820E+000	9	...........
	70	0.943333	2.26074E-003	-9.80199E-005	0.00000E+000	-2.21597E-007	-5.99601E-002	2.24191E-003	3.57820E+000	9	...........
STARTTIMEOFFSET	QUANT	943.0618	Start Time Offset (s)
