EXPLAIN
TAG	PWR800_DISCHARGE
TITLE	LABEL	PWR Cyclic Charge Discharge (Cell) - Discharge Step	Test &Identifier
DATE	LABEL	12-7-2017	Date
TIME	LABEL	16:35:05	Time
NOTES	NOTES	2	&Notes...
	supercap test cell
	6M KOH
PSTAT	PSTAT	IFC5000-01520	Potentiostat
CAPACITY	QUANT	1.00000E-003	Capacity (A-hr)
CELLTYPE	SELECTOR	1	&Cell Type
WORKINGCONNECTION	SELECTOR	0	&Working Lead
MAXDISCHARGETIME	VARIABLEANDUNITS	1.00000E+002	s	1.00000E+002	second(s)	Max &Discharge Time
DISCHARGEMODE	MULTIPARAM	0	1.00000E-004	&Discharge Mode	Constant Current	Amp(s)
SAMPLETIME	QUANT	1.00000E-002	Sa&mple Period (s)
DISCHARGESTOPAT1	MULTIPARAM	3	0.00000E+000	Discharge Stop At &1	Voltage < Limit	V
DISCHARGESTOPAT2	MULTIPARAM	0	0.00000E+000	Discharge Stop At &2	None	N/A
AESBHCSELECTOR	TOGGLE	F	Save Both Half Cells
IRCOMP	TOGGLE	F	IR &Measure
EOC	QUANT	0	Open Circuit (V)
SEQUENCER	TOGGLE	TRUE	Run as Sequence
PSTATMODEL	IQUANT	53	Pstat Model
PSTATSECTION	LABEL	IFC5000-01520	Pstat Section
PSTATSERIALNO	LABEL	01520	Pstat Serial Number
CTRLMODE	IQUANT	0	Control Mode
ELECTROMETER	IQUANT	1	RE=0 or CS=1
IESTAB	IQUANT	0	I/E Stability
CASPEED	IQUANT	4	Control Amp Speed
CONVENTION	IQUANT	1	Current Convention
ICHRANGE	IQUANT	2	Ich Range
ICHRANGEMODE	TOGGLE	T	Ich Auto Range
ICHOFFSETENABLE	TOGGLE	F	Ich Offset Enable
ICHOFFSET	QUANT	0	Ich Offset (V)
ICHFILTER	IQUANT	1	Ich Filter
VCHRANGE	IQUANT	2	Vch Range
VCHRANGEMODE	TOGGLE	T	Vch Auto Range
VCHOFFSETENABLE	TOGGLE	F	Vch Offset Enable
VCHOFFSET	QUANT	0	Vch Offset (V)
VCHFILTER	IQUANT	1	Vch Filter
IERANGELOWERLIMIT	IQUANT	9	I/E Range Lower Limit
IERANGEMODE	TOGGLE	F	I/E AutoRange
IERANGE	IQUANT	9	I/E Range
ACHSELECT	IQUANT	1	Ach Select
ACHRANGE	IQUANT	2	Ach Range
ACHOFFSETENABLE	TOGGLE	F	Ach Offset Enable
ACHOFFSET	QUANT	0	Ach Offset (V)
ACHFILTER	IQUANT	1	Ach Filter
CABLEID	IQUANT	14	Cable ID
DCCALDATE	LABEL	5-7-2017	DC Calibration Date
ACCALDATE	LABEL	12/3/2015	AC Calibration Date
FRAMEWORKVERSION	QUANT	7.01	Framework Version
INSTRUMENTVERSION	LABEL	4.00	Instrument Version
CURVE	TABLE	71
	Pt	T	Vf	Im	Vu	Pwr	Sig	Ach	Temp	IERange	Over
	#	s	V	A	V	W	V	V	deg C	#	bits
	0	0.013333	8.46228E-001	-9.85300E-005	0.00000E+000	-8.33789E-005	-5.99601E-002	8.46519E-001	3.57770E+000	9	...........
	1	0.026667	8.33177E-001	-9.81581E-005	0.00000E+000	-8.17830E-005	-5.99601E-002	8.33488E-001	3.57770E+000	9	...........
	2	0.04	8.20712E-001	-9.86363E-005	0.00000E+000	-8.09520E-005	-5.99601E-002	8.21013E-001	3.57770E+000	9	...........
	3	0.053333	8.08640E-001	-9.88145E-005	0.00000E+000	-7.99054E-005	-5.99601E-002	8.08922E-001	3.57770E+000	9	...........
	4	0.066667	7.96858E-001	-9.88134E-005	0.00000E+000	-7.87403E-005	-5.99601E-002	7.97102E-001	3.57770E+000	9	...........
	5	0.08	7.85224E-001	-9.83383E-005	0.00000E+000	-7.72176E-005	-5.99601E-002	7.85495E-001	3.57770E+000	9	...........
	6	0.093333	7.73752E-001	-9.81570E-005	0.00000E+000	-7.59492E-005	-5.99601E-002	7.74031E-001	3.57770E+000	9	...........
	7	0.106667	7.62416E-001	-9.78466E-005	0.00000E+000	-7.45998E-005	-5.99601E-002	7.62691E-001	3.57770E+000	9	...........
	8	0.12	7.51208E-001	-9.79966E-005	0.00000E+000	-7.36158E-005	-5.99601E-002	7.51472E-001	3.57770E+000	9	...........
	9	0.133333	7.40102E-001	-9.88301E-005	0.00000E+000	-7.31444E-005	-5.99601E-002	7.40353E-001	3.57770E+000	9	...........
	10	0.146667	7.29071E-001	-9.88812E-005	0.00000E+000	-7.20914E-005	-5.99601E-002	7.29329E-001	3.57770E+000	9	...........
	11	0.16	7.18156E-001	-9.87415E-005	0.00000E+000	-7.09118E-005	-5.99601E-002	7.18384E-001	3.57770E+000	9	...........
	12	0.173333	7.07287E-001	-9.82560E-005	0.00000E+000	-6.94952E-005	-5.99601E-002	7.07518E-001	3.57770E+000	9	...........
	13	0.186667	6.96508E-001	-1.00386E-004	0.00000E+000	-6.99194E-005	-5.99601E-002	6.96727E-001	3.57750E+000	9	...........
	14	0.2	6.85791E-001	-9.91916E-005	0.00000E+000	-6.80247E-005	-5.99601E-002	6.86013E-001	3.57730E+000	9	...........
	15	0.213333	6.75152E-001	-9.80966E-005	0.00000E+000	-6.62301E-005	-5.99601E-002	6.75357E-001	3.57730E+000	9	...........
	16	0.226667	6.64510E-001	-9.80643E-005	0.00000E+000	-6.51647E-005	-5.99601E-002	6.64712E-001	3.57730E+000	9	...........
	17	0.24	6.53842E-001	-9.76747E-005	0.00000E+000	-6.38638E-005	-5.99601E-002	6.54047E-001	3.57730E+000	9	...........
	18	0.253333	6.43103E-001	-9.92166E-005	0.00000E+000	-6.38065E-005	-5.99601E-002	6.43314E-001	3.57730E+000	9	...........
	19	0.266667	6.32250E-001	-9.89603E-005	0.00000E+000	-6.25677E-005	-5.99601E-002	6.32456E-001	3.57730E+000	9	...........
	20	0.28	6.21269E-001	-9.89228E-005	0.00000E+000	-6.14576E-005	-5.99601E-002	6.21461E-001	3.57730E+000	9	...........
	21	0.293333	6.10048E-001	-9.88186E-005	0.00000E+000	-6.02841E-005	-5.99601E-002	6.10285E-001	3.57730E+000	9	...........
	22	0.306667	5.98689E-001	-9.77101E-005	0.00000E+000	-5.84979E-005	-5.99601E-002	5.98915E-001	3.57730E+000	9	...........
	23	0.32	5.87091E-001	-9.86499E-005	0.00000E+000	-5.79164E-005	-5.99601E-002	5.87327E-001	3.57730E+000	9	...........
	24	0.333333	5.75322E-001	-9.93135E-005	0.00000E+000	-5.71372E-005	-5.99601E-002	5.75538E-001	3.57730E+000	9	...........
	25	0.346667	5.63377E-001	-9.89926E-005	0.00000E+000	-5.57702E-005	-5.99601E-002	5.63601E-001	3.57730E+000	9	...........
	26	0.36	5.51230E-001	-9.86103E-005	0.00000E+000	-5.43570E-005	-5.99601E-002	5.51431E-001	3.57730E+000	9	...........
	27	0.373333	5.38947E-001	-9.93042E-005	0.00000E+000	-5.35197E-005	-5.99601E-002	5.39166E-001	3.57730E+000	9	...........
	28	0.386667	5.26474E-001	-9.85863E-005	0.00000E+000	-5.19031E-005	-5.99601E-002	5.26677E-001	3.57730E+000	9	...........
	29	0.4	5.13900E-001	-9.83071E-005	0.00000E+000	-5.05200E-005	-5.99601E-002	5.14085E-001	3.57730E+000	9	...........
	30	0.413333	5.01153E-001	-9.83060E-005	0.00000E+000	-4.92663E-005	-5.99601E-002	5.01404E-001	3.57730E+000	9	...........
	31	0.426667	4.88417E-001	-9.84550E-005	0.00000E+000	-4.80871E-005	-5.99601E-002	4.88615E-001	3.57730E+000	9	...........
	32	0.44	4.75772E-001	-9.91104E-005	0.00000E+000	-4.71539E-005	-5.99601E-002	4.75877E-001	3.57730E+000	9	...........
	33	0.453333	4.62782E-001	-9.93458E-005	0.00000E+000	-4.59755E-005	-5.99601E-002	4.62879E-001	3.57730E+000	9	...........
	34	0.466667	4.49733E-001	-9.82685E-005	0.00000E+000	-4.41946E-005	-5.99601E-002	4.49823E-001	3.57730E+000	9	...........
	35	0.48	4.36620E-001	-9.93344E-005	0.00000E+000	-4.33714E-005	-5.99601E-002	4.36715E-001	3.57730E+000	9	...........
	36	0.493333	4.23467E-001	-9.89749E-005	0.00000E+000	-4.19126E-005	-5.99601E-002	4.23562E-001	3.57730E+000	9	...........
	37	0.506667	4.10287E-001	-9.85373E-005	0.00000E+000	-4.04286E-005	-5.99601E-002	4.10372E-001	3.57730E+000	9	...........
	38	0.52	3.97079E-001	-9.95875E-005	0.00000E+000	-3.95442E-005	-5.99601E-002	3.97155E-001	3.57730E+000	9	...........
	39	0.533333	3.83861E-001	-9.89947E-005	0.00000E+000	-3.80002E-005	-5.99601E-002	3.83938E-001	3.57730E+000	9	...........
	40	0.546667	3.70659E-001	-9.86707E-005	0.00000E+000	-3.65732E-005	-5.99601E-002	3.70732E-001	3.57730E+000	9	...........
	41	0.56	3.57477E-001	-9.81852E-005	0.00000E+000	-3.50990E-005	-5.99601E-002	3.57545E-001	3.57730E+000	9	...........
	42	0.573333	3.44300E-001	-9.90822E-005	0.00000E+000	-3.41140E-005	-5.99601E-002	3.44376E-001	3.57730E+000	9	...........
	43	0.586667	3.31166E-001	-9.89978E-005	0.00000E+000	-3.27847E-005	-5.99601E-002	3.31236E-001	3.57730E+000	9	...........
	44	0.6	3.18069E-001	-9.70954E-005	0.00000E+000	-3.08831E-005	-5.99601E-002	3.18130E-001	3.57730E+000	9	...........
	45	0.613333	3.05014E-001	-9.83217E-005	0.00000E+000	-2.99895E-005	-5.99601E-002	3.05078E-001	3.57730E+000	9	...........
	46	0.626667	2.92008E-001	-9.88301E-005	0.00000E+000	-2.88592E-005	-5.99601E-002	2.92069E-001	3.57730E+000	9	...........
	47	0.64	2.79054E-001	-9.88812E-005	0.00000E+000	-2.75931E-005	-5.99601E-002	2.79108E-001	3.57730E+000	9	...........
	48	0.653333	2.66158E-001	-9.88520E-005	0.00000E+000	-2.63103E-005	-5.99601E-002	2.66213E-001	3.57730E+000	9	...........
	49	0.666667	2.53320E-001	-9.87030E-005	0.00000E+000	-2.50034E-005	-5.99601E-002	2.53376E-001	3.57730E+000	9	...........
	50	0.68	2.40551E-001	-9.98543E-005	0.00000E+000	-2.40200E-005	-5.99601E-002	2.40597E-001	3.57730E+000	9	...........
	51	0.693333	2.27846E-001	-9.84040E-005	0.00000E+000	-2.24209E-005	-5.99601E-002	2.27891E-001	3.57730E+000	9	...........
	52	0.706667	2.15205E-001	-9.99824E-005	0.00000E+000	-2.15167E-005	-5.99601E-002	2.15244E-001	3.57730E+000	9	...........
	53	0.72	2.02623E-001	-9.84529E-005	0.00000E+000	-1.99488E-005	-5.99601E-002	2.02668E-001	3.57730E+000	9	...........
	54	0.733333	1.90115E-001	-9.88874E-005	0.00000E+000	-1.87999E-005	-5.99601E-002	1.90148E-001	3.57730E+000	9	...........
	55	0.746667	1.77651E-001	-9.92531E-005	0.00000E+000	-1.76324E-005	-5.99601E-002	1.77686E-001	3.57730E+000	9	...........
	56	0.76	1.65249E-001	-9.96209E-005	0.00000E+000	-1.64623E-005	-5.99601E-002	1.65276E-001	3.57730E+000	9	...........
	57	0.773333	1.52909E-001	-9.93396E-005	0.00000E+000	-1.51899E-005	-5.99601E-002	1.52932E-001	3.57730E+000	9	...........
	58	0.786667	1.40620E-001	-9.82456E-005	0.00000E+000	-1.38153E-005	-5.99601E-002	1.40649E-001	3.57730E+000	9	...........
	59	0.8	1.28401E-001	-9.90645E-005	0.00000E+000	-1.27200E-005	-5.99601E-002	1.28421E-001	3.57730E+000	9	...........
	60	0.813333	1.16245E-001	-9.96563E-005	0.00000E+000	-1.15846E-005	-5.99601E-002	1.16266E-001	3.57730E+000	9	...........
	61	0.826667	1.04180E-001	-9.98751E-005	0.00000E+000	-1.04050E-005	-5.99601E-002	1.04195E-001	3.57730E+000	9	...........
	62	0.84	9.21847E-002	-9.82112E-005	0.00000E+000	-9.05357E-006	-5.99601E-002	9.22001E-002	3.57730E+000	9	...........
	63	0.853333	8.02993E-002	-9.93708E-005	0.00000E+000	-7.97941E-006	-5.99601E-002	8.03094E-002	3.57730E+000	9	...........
	64	0.866667	6.85096E-002	-9.86113E-005	0.00000E+000	-6.75582E-006	-5.99601E-002	6.85167E-002	3.57730E+000	9	...........
	65	0.88	5.68419E-002	-9.86863E-005	0.00000E+000	-5.60952E-006	-5.99601E-002	5.68431E-002	3.57730E+000	9	...........
	66	0.893333	4.53238E-002	-9.83373E-005	0.00000E+000	-4.45702E-006	-5.99601E-002	4.53326E-002	3.57730E+000	9	...........
	67	0.906667	3.39270E-002	-9.92343E-005	0.00000E+000	-3.36672E-006	-5.99601E-002	3.39269E-002	3.57730E+000	9	...........
	68	0.92	2.26621E-002	-9.79966E-005	0.00000E+000	-2.22081E-006	-5.99601E-002	2.26553E-002	3.57730E+000	9	...........
	69	0.933333	1.15593E-002	-9.80633E-005	0.00000E+000	-1.13354E-006	-5.99601E-002	1.15457E-002	3.57730E+000	9	...........
	70	0.941667	2.64965E-003	-9.78784E-005	0.00000E+000	-2.59343E-007	-5.99601E-002	2.62562E-003	3.57730E+000	9	...........
STARTTIMEOFFSET	QUANT	1069.777	Start Time Offset (s)
