EXPLAIN
TAG	PWR800_DISCHARGE
TITLE	LABEL	PWR Cyclic Charge Discharge (Cell) - Discharge Step	Test &Identifier
DATE	LABEL	12-7-2017	Date
TIME	LABEL	16:12:27	Time
NOTES	NOTES	2	&Notes...
	supercap test cell
	6M KOH
PSTAT	PSTAT	IFC5000-01520	Potentiostat
CAPACITY	QUANT	1.00000E-003	Capacity (A-hr)
CELLTYPE	SELECTOR	1	&Cell Type
WORKINGCONNECTION	SELECTOR	0	&Working Lead
MAXDISCHARGETIME	VARIABLEANDUNITS	1.00000E+002	s	1.00000E+002	second(s)	Max &Discharge Time
DISCHARGEMODE	MULTIPARAM	0	1.00000E-004	&Discharge Mode	Constant Current	Amp(s)
SAMPLETIME	QUANT	1.00000E-002	Sa&mple Period (s)
DISCHARGESTOPAT1	MULTIPARAM	3	0.00000E+000	Discharge Stop At &1	Voltage < Limit	V
DISCHARGESTOPAT2	MULTIPARAM	0	0.00000E+000	Discharge Stop At &2	None	N/A
AESBHCSELECTOR	TOGGLE	F	Save Both Half Cells
IRCOMP	TOGGLE	F	IR &Measure
EOC	QUANT	0	Open Circuit (V)
SEQUENCER	TOGGLE	TRUE	Run as Sequence
PSTATMODEL	IQUANT	53	Pstat Model
PSTATSECTION	LABEL	IFC5000-01520	Pstat Section
PSTATSERIALNO	LABEL	01520	Pstat Serial Number
CTRLMODE	IQUANT	0	Control Mode
ELECTROMETER	IQUANT	1	RE=0 or CS=1
IESTAB	IQUANT	0	I/E Stability
CASPEED	IQUANT	4	Control Amp Speed
CONVENTION	IQUANT	1	Current Convention
ICHRANGE	IQUANT	2	Ich Range
ICHRANGEMODE	TOGGLE	T	Ich Auto Range
ICHOFFSETENABLE	TOGGLE	F	Ich Offset Enable
ICHOFFSET	QUANT	0	Ich Offset (V)
ICHFILTER	IQUANT	1	Ich Filter
VCHRANGE	IQUANT	2	Vch Range
VCHRANGEMODE	TOGGLE	T	Vch Auto Range
VCHOFFSETENABLE	TOGGLE	F	Vch Offset Enable
VCHOFFSET	QUANT	0	Vch Offset (V)
VCHFILTER	IQUANT	1	Vch Filter
IERANGELOWERLIMIT	IQUANT	9	I/E Range Lower Limit
IERANGEMODE	TOGGLE	F	I/E AutoRange
IERANGE	IQUANT	9	I/E Range
ACHSELECT	IQUANT	1	Ach Select
ACHRANGE	IQUANT	2	Ach Range
ACHOFFSETENABLE	TOGGLE	F	Ach Offset Enable
ACHOFFSET	QUANT	0	Ach Offset (V)
ACHFILTER	IQUANT	1	Ach Filter
CABLEID	IQUANT	14	Cable ID
DCCALDATE	LABEL	5-7-2017	DC Calibration Date
ACCALDATE	LABEL	12/3/2015	AC Calibration Date
FRAMEWORKVERSION	QUANT	7.01	Framework Version
INSTRUMENTVERSION	LABEL	4.00	Instrument Version
CURVE	TABLE	73
	Pt	T	Vf	Im	Vu	Pwr	Sig	Ach	Temp	IERange	Over
	#	s	V	A	V	W	V	V	deg C	#	bits
	0	0.013333	8.35793E-001	-9.78997E-005	0.00000E+000	-8.18239E-005	-5.99601E-002	8.36101E-001	3.57720E+000	9	...........
	1	0.026667	8.22647E-001	-9.83602E-005	0.00000E+000	-8.09157E-005	-5.99601E-002	8.22962E-001	3.57720E+000	9	...........
	2	0.04	8.10047E-001	-9.80747E-005	0.00000E+000	-7.94452E-005	-5.99601E-002	8.10363E-001	3.57720E+000	9	...........
	3	0.053333	7.97840E-001	-9.85998E-005	0.00000E+000	-7.86669E-005	-5.99601E-002	7.98147E-001	3.57720E+000	9	...........
	4	0.066667	7.85856E-001	-9.84311E-005	0.00000E+000	-7.73526E-005	-5.99601E-002	7.86125E-001	3.57720E+000	9	...........
	5	0.08	7.74027E-001	-9.91656E-005	0.00000E+000	-7.67569E-005	-5.99601E-002	7.74299E-001	3.57720E+000	9	...........
	6	0.093333	7.62274E-001	-9.84186E-005	0.00000E+000	-7.50220E-005	-5.99601E-002	7.62575E-001	3.57720E+000	9	...........
	7	0.106667	7.50619E-001	-9.93688E-005	0.00000E+000	-7.45881E-005	-5.99601E-002	7.50895E-001	3.57720E+000	9	...........
	8	0.12	7.38922E-001	-9.87905E-005	0.00000E+000	-7.29985E-005	-5.99601E-002	7.39214E-001	3.57720E+000	9	...........
	9	0.133333	7.27243E-001	-9.80081E-005	0.00000E+000	-7.12756E-005	-5.99601E-002	7.27514E-001	3.57720E+000	9	...........
	10	0.146667	7.15500E-001	-9.85092E-005	0.00000E+000	-7.04833E-005	-5.99601E-002	7.15751E-001	3.57720E+000	9	...........
	11	0.16	7.03710E-001	-9.89041E-005	0.00000E+000	-6.95998E-005	-5.99601E-002	7.03975E-001	3.57720E+000	9	...........
	12	0.173333	6.91888E-001	-9.90854E-005	0.00000E+000	-6.85560E-005	-5.99601E-002	6.92123E-001	3.57720E+000	9	...........
	13	0.186667	6.80020E-001	-9.82539E-005	0.00000E+000	-6.68147E-005	-5.99601E-002	6.80273E-001	3.57720E+000	9	...........
	14	0.2	6.68121E-001	-9.94948E-005	0.00000E+000	-6.64746E-005	-5.99601E-002	6.68385E-001	3.57720E+000	9	...........
	15	0.213333	6.56194E-001	-9.87551E-005	0.00000E+000	-6.48025E-005	-5.99601E-002	6.56444E-001	3.57720E+000	9	...........
	16	0.226667	6.44223E-001	-9.90697E-005	0.00000E+000	-6.38230E-005	-5.99601E-002	6.44507E-001	3.57720E+000	9	...........
	17	0.24	6.32263E-001	-9.86030E-005	0.00000E+000	-6.23430E-005	-5.99601E-002	6.32551E-001	3.57720E+000	9	...........
	18	0.253333	6.20318E-001	-9.80549E-005	0.00000E+000	-6.08253E-005	-5.99601E-002	6.20551E-001	3.57720E+000	9	...........
	19	0.266667	6.08284E-001	-9.84509E-005	0.00000E+000	-5.98861E-005	-5.99601E-002	6.08587E-001	3.57720E+000	9	...........
	20	0.28	5.96337E-001	-9.83290E-005	0.00000E+000	-5.86372E-005	-5.99601E-002	5.96632E-001	3.57720E+000	9	...........
	21	0.293333	5.84409E-001	-9.87811E-005	0.00000E+000	-5.77286E-005	-5.99601E-002	5.84666E-001	3.57720E+000	9	...........
	22	0.306667	5.72475E-001	-9.88301E-005	0.00000E+000	-5.65778E-005	-5.99601E-002	5.72737E-001	3.57720E+000	9	...........
	23	0.32	5.60562E-001	-9.83217E-005	0.00000E+000	-5.51154E-005	-5.99601E-002	5.60817E-001	3.57720E+000	9	...........
	24	0.333333	5.48678E-001	-9.88874E-005	0.00000E+000	-5.42573E-005	-5.99601E-002	5.48924E-001	3.57720E+000	9	...........
	25	0.346667	5.36805E-001	-9.86624E-005	0.00000E+000	-5.29624E-005	-5.99601E-002	5.37036E-001	3.57720E+000	9	...........
	26	0.36	5.25007E-001	-9.88905E-005	0.00000E+000	-5.19182E-005	-5.99601E-002	5.25226E-001	3.57720E+000	9	...........
	27	0.373333	5.13234E-001	-9.83633E-005	0.00000E+000	-5.04834E-005	-5.99601E-002	5.13465E-001	3.57720E+000	9	...........
	28	0.386667	5.01464E-001	-9.91989E-005	0.00000E+000	-4.97447E-005	-5.99601E-002	5.01711E-001	3.57720E+000	9	...........
	29	0.4	4.89790E-001	-9.83831E-005	0.00000E+000	-4.81871E-005	-5.99601E-002	4.90011E-001	3.57720E+000	9	...........
	30	0.413333	4.78465E-001	-9.94146E-005	0.00000E+000	-4.75664E-005	-5.99601E-002	4.78571E-001	3.57720E+000	9	...........
	31	0.426667	4.66847E-001	-9.90802E-005	0.00000E+000	-4.62553E-005	-5.99601E-002	4.66949E-001	3.57720E+000	9	...........
	32	0.44	4.55260E-001	-9.85582E-005	0.00000E+000	-4.48696E-005	-5.99601E-002	4.55363E-001	3.57720E+000	9	...........
	33	0.453333	4.43710E-001	-9.84467E-005	0.00000E+000	-4.36818E-005	-5.99601E-002	4.43808E-001	3.57720E+000	9	...........
	34	0.466667	4.32187E-001	-9.92739E-005	0.00000E+000	-4.29049E-005	-5.99601E-002	4.32285E-001	3.57720E+000	9	...........
	35	0.48	4.20690E-001	-9.85738E-005	0.00000E+000	-4.14690E-005	-5.99601E-002	4.20783E-001	3.57720E+000	9	...........
	36	0.493333	4.09219E-001	-9.85457E-005	0.00000E+000	-4.03268E-005	-5.99601E-002	4.09308E-001	3.57720E+000	9	...........
	37	0.506667	3.97763E-001	-9.95240E-005	0.00000E+000	-3.95870E-005	-5.99601E-002	3.97848E-001	3.57720E+000	9	...........
	38	0.52	3.86308E-001	-9.87228E-005	0.00000E+000	-3.81374E-005	-5.99601E-002	3.86392E-001	3.57720E+000	9	...........
	39	0.533333	3.74860E-001	-9.87718E-005	0.00000E+000	-3.70256E-005	-5.99601E-002	3.74939E-001	3.57720E+000	9	...........
	40	0.546667	3.63413E-001	-9.84977E-005	0.00000E+000	-3.57954E-005	-5.99601E-002	3.63495E-001	3.57720E+000	9	...........
	41	0.56	3.51945E-001	-9.94448E-005	0.00000E+000	-3.49991E-005	-5.99601E-002	3.52020E-001	3.57720E+000	9	...........
	42	0.573333	3.40468E-001	-9.92583E-005	0.00000E+000	-3.37942E-005	-5.99601E-002	3.40536E-001	3.57720E+000	9	...........
	43	0.586667	3.28967E-001	-9.91104E-005	0.00000E+000	-3.26041E-005	-5.99601E-002	3.29038E-001	3.57720E+000	9	...........
	44	0.6	3.17453E-001	-9.87770E-005	0.00000E+000	-3.13570E-005	-5.99601E-002	3.17517E-001	3.57720E+000	9	...........
	45	0.613333	3.05908E-001	-9.91875E-005	0.00000E+000	-3.03423E-005	-5.99601E-002	3.05972E-001	3.57720E+000	9	...........
	46	0.626667	2.94349E-001	-9.92354E-005	0.00000E+000	-2.92098E-005	-5.99601E-002	2.94414E-001	3.57720E+000	9	...........
	47	0.64	2.82777E-001	-9.87676E-005	0.00000E+000	-2.79292E-005	-5.99601E-002	2.82834E-001	3.57720E+000	9	...........
	48	0.653333	2.71174E-001	-9.89905E-005	0.00000E+000	-2.68437E-005	-5.99601E-002	2.71239E-001	3.57720E+000	9	...........
	49	0.666667	2.59555E-001	-9.85530E-005	0.00000E+000	-2.55800E-005	-5.99601E-002	2.59617E-001	3.57720E+000	9	...........
	50	0.68	2.47923E-001	-9.84904E-005	0.00000E+000	-2.44180E-005	-5.99601E-002	2.47971E-001	3.57720E+000	9	...........
	51	0.693333	2.36277E-001	-9.84467E-005	0.00000E+000	-2.32607E-005	-5.99601E-002	2.36322E-001	3.57720E+000	9	...........
	52	0.706667	2.24612E-001	-9.85405E-005	0.00000E+000	-2.21334E-005	-5.99601E-002	2.24660E-001	3.57720E+000	9	...........
	53	0.72	2.12940E-001	-9.90176E-005	0.00000E+000	-2.10848E-005	-5.99601E-002	2.12982E-001	3.57720E+000	9	...........
	54	0.733333	2.01259E-001	-9.83654E-005	0.00000E+000	-1.97969E-005	-5.99601E-002	2.01302E-001	3.57720E+000	9	...........
	55	0.746667	1.89573E-001	-9.96438E-005	0.00000E+000	-1.88898E-005	-5.99601E-002	1.89614E-001	3.57720E+000	9	...........
	56	0.76	1.77891E-001	-9.86853E-005	0.00000E+000	-1.75552E-005	-5.99601E-002	1.77929E-001	3.57720E+000	9	...........
	57	0.773333	1.66217E-001	-9.90322E-005	0.00000E+000	-1.64608E-005	-5.99601E-002	1.66243E-001	3.57720E+000	9	...........
	58	0.786667	1.54544E-001	-9.88218E-005	0.00000E+000	-1.52723E-005	-5.99601E-002	1.54576E-001	3.57720E+000	9	...........
	59	0.8	1.42904E-001	-9.84019E-005	0.00000E+000	-1.40620E-005	-5.99601E-002	1.42930E-001	3.57720E+000	9	...........
	60	0.813333	1.31284E-001	-9.84571E-005	0.00000E+000	-1.29258E-005	-5.99601E-002	1.31309E-001	3.57720E+000	9	...........
	61	0.826667	1.19703E-001	-9.91593E-005	0.00000E+000	-1.18697E-005	-5.99601E-002	1.19724E-001	3.57720E+000	9	...........
	62	0.84	1.08179E-001	-9.75944E-005	0.00000E+000	-1.05577E-005	-5.99601E-002	1.08202E-001	3.57720E+000	9	...........
	63	0.853333	9.66986E-002	-9.88499E-005	0.00000E+000	-9.55865E-006	-5.99601E-002	9.67149E-002	3.57720E+000	9	...........
	64	0.866667	8.52839E-002	-9.92114E-005	0.00000E+000	-8.46114E-006	-5.99601E-002	8.53032E-002	3.57720E+000	9	...........
	65	0.88	7.39527E-002	-9.90187E-005	0.00000E+000	-7.32269E-006	-5.99601E-002	7.39637E-002	3.57720E+000	9	...........
	66	0.893333	6.27198E-002	-9.86801E-005	0.00000E+000	-6.18920E-006	-5.99601E-002	6.27219E-002	3.57720E+000	9	...........
	67	0.906667	5.15858E-002	-9.84717E-005	0.00000E+000	-5.07974E-006	-5.99601E-002	5.15856E-002	3.57720E+000	9	...........
	68	0.92	4.05927E-002	-9.90020E-005	0.00000E+000	-4.01876E-006	-5.99601E-002	4.05911E-002	3.57720E+000	9	...........
	69	0.933333	2.96918E-002	-9.87134E-005	0.00000E+000	-2.93098E-006	-5.99601E-002	2.96895E-002	3.57720E+000	9	...........
	70	0.946667	1.89256E-002	-9.92510E-005	0.00000E+000	-1.87838E-006	-5.99601E-002	1.89128E-002	3.57720E+000	9	...........
	71	0.96	8.30086E-003	-9.90218E-005	0.00000E+000	-8.21967E-007	-5.99601E-002	8.27836E-003	3.57729E+000	9	...........
	72	0.965	1.07001E-003	-9.95132E-005	0.00000E+000	-1.06480E-007	-5.99601E-002	1.04645E-003	3.57790E+000	9	...........
STARTTIMEOFFSET	QUANT	101.4333	Start Time Offset (s)
