EXPLAIN
TAG	PWR800_DISCHARGE
TITLE	LABEL	PWR Cyclic Charge Discharge (Cell) - Discharge Step	Test &Identifier
DATE	LABEL	12-7-2017	Date
TIME	LABEL	16:33:37	Time
NOTES	NOTES	2	&Notes...
	supercap test cell
	6M KOH
PSTAT	PSTAT	IFC5000-01520	Potentiostat
CAPACITY	QUANT	1.00000E-003	Capacity (A-hr)
CELLTYPE	SELECTOR	1	&Cell Type
WORKINGCONNECTION	SELECTOR	0	&Working Lead
MAXDISCHARGETIME	VARIABLEANDUNITS	1.00000E+002	s	1.00000E+002	second(s)	Max &Discharge Time
DISCHARGEMODE	MULTIPARAM	0	1.00000E-004	&Discharge Mode	Constant Current	Amp(s)
SAMPLETIME	QUANT	1.00000E-002	Sa&mple Period (s)
DISCHARGESTOPAT1	MULTIPARAM	3	0.00000E+000	Discharge Stop At &1	Voltage < Limit	V
DISCHARGESTOPAT2	MULTIPARAM	0	0.00000E+000	Discharge Stop At &2	None	N/A
AESBHCSELECTOR	TOGGLE	F	Save Both Half Cells
IRCOMP	TOGGLE	F	IR &Measure
EOC	QUANT	0	Open Circuit (V)
SEQUENCER	TOGGLE	TRUE	Run as Sequence
PSTATMODEL	IQUANT	53	Pstat Model
PSTATSECTION	LABEL	IFC5000-01520	Pstat Section
PSTATSERIALNO	LABEL	01520	Pstat Serial Number
CTRLMODE	IQUANT	0	Control Mode
ELECTROMETER	IQUANT	1	RE=0 or CS=1
IESTAB	IQUANT	0	I/E Stability
CASPEED	IQUANT	4	Control Amp Speed
CONVENTION	IQUANT	1	Current Convention
ICHRANGE	IQUANT	2	Ich Range
ICHRANGEMODE	TOGGLE	T	Ich Auto Range
ICHOFFSETENABLE	TOGGLE	F	Ich Offset Enable
ICHOFFSET	QUANT	0	Ich Offset (V)
ICHFILTER	IQUANT	1	Ich Filter
VCHRANGE	IQUANT	2	Vch Range
VCHRANGEMODE	TOGGLE	T	Vch Auto Range
VCHOFFSETENABLE	TOGGLE	F	Vch Offset Enable
VCHOFFSET	QUANT	0	Vch Offset (V)
VCHFILTER	IQUANT	1	Vch Filter
IERANGELOWERLIMIT	IQUANT	9	I/E Range Lower Limit
IERANGEMODE	TOGGLE	F	I/E AutoRange
IERANGE	IQUANT	9	I/E Range
ACHSELECT	IQUANT	1	Ach Select
ACHRANGE	IQUANT	2	Ach Range
ACHOFFSETENABLE	TOGGLE	F	Ach Offset Enable
ACHOFFSET	QUANT	0	Ach Offset (V)
ACHFILTER	IQUANT	1	Ach Filter
CABLEID	IQUANT	14	Cable ID
DCCALDATE	LABEL	5-7-2017	DC Calibration Date
ACCALDATE	LABEL	12/3/2015	AC Calibration Date
FRAMEWORKVERSION	QUANT	7.01	Framework Version
INSTRUMENTVERSION	LABEL	4.00	Instrument Version
CURVE	TABLE	71
	Pt	T	Vf	Im	Vu	Pwr	Sig	Ach	Temp	IERange	Over
	#	s	V	A	V	W	V	V	deg C	#	bits
	0	0.013333	8.44881E-001	-9.86905E-005	0.00000E+000	-8.33817E-005	-5.99601E-002	8.45178E-001	3.57810E+000	9	...........
	1	0.026667	8.31855E-001	-9.79539E-005	0.00000E+000	-8.14834E-005	-5.99601E-002	8.32147E-001	3.57810E+000	9	...........
	2	0.04	8.19427E-001	-9.80601E-005	0.00000E+000	-8.03531E-005	-5.99601E-002	8.19708E-001	3.57810E+000	9	...........
	3	0.053333	8.07356E-001	-9.81081E-005	0.00000E+000	-7.92081E-005	-5.99601E-002	8.07632E-001	3.57810E+000	9	...........
	4	0.066667	7.95568E-001	-9.87780E-005	0.00000E+000	-7.85846E-005	-5.99601E-002	7.95810E-001	3.57810E+000	9	...........
	5	0.08	7.83946E-001	-9.88530E-005	0.00000E+000	-7.74954E-005	-5.99601E-002	7.84192E-001	3.57810E+000	9	...........
	6	0.093333	7.72509E-001	-9.92146E-005	0.00000E+000	-7.66442E-005	-5.99601E-002	7.72752E-001	3.57810E+000	9	...........
	7	0.106667	7.61202E-001	-9.96949E-005	0.00000E+000	-7.58879E-005	-5.99601E-002	7.61412E-001	3.57810E+000	9	...........
	8	0.12	7.50035E-001	-9.87332E-005	0.00000E+000	-7.40533E-005	-5.99601E-002	7.50231E-001	3.57810E+000	9	...........
	9	0.133333	7.38917E-001	-1.00067E-004	0.00000E+000	-7.39411E-005	-5.99601E-002	7.39129E-001	3.57810E+000	9	...........
	10	0.146667	7.27938E-001	-9.84821E-005	0.00000E+000	-7.16889E-005	-5.99601E-002	7.28138E-001	3.57810E+000	9	...........
	11	0.16	7.17036E-001	-9.80529E-005	0.00000E+000	-7.03075E-005	-5.99601E-002	7.17229E-001	3.57810E+000	9	...........
	12	0.173333	7.06185E-001	-9.85717E-005	0.00000E+000	-6.96099E-005	-5.99601E-002	7.06408E-001	3.57810E+000	9	...........
	13	0.186667	6.95430E-001	-9.68224E-005	0.00000E+000	-6.73332E-005	-5.99601E-002	6.95683E-001	3.57810E+000	9	...........
	14	0.2	6.84726E-001	-9.88666E-005	0.00000E+000	-6.76965E-005	-5.99601E-002	6.84977E-001	3.57810E+000	9	...........
	15	0.213333	6.74099E-001	-9.87665E-005	0.00000E+000	-6.65785E-005	-5.99601E-002	6.74314E-001	3.57810E+000	9	...........
	16	0.226667	6.63434E-001	-9.88614E-005	0.00000E+000	-6.55880E-005	-5.99601E-002	6.63685E-001	3.57810E+000	9	...........
	17	0.24	6.52746E-001	-9.73881E-005	0.00000E+000	-6.35698E-005	-5.99601E-002	6.52986E-001	3.57810E+000	9	...........
	18	0.253333	6.41966E-001	-9.76153E-005	0.00000E+000	-6.26657E-005	-5.99601E-002	6.42217E-001	3.57810E+000	9	...........
	19	0.266667	6.31053E-001	-9.88791E-005	0.00000E+000	-6.23980E-005	-5.99601E-002	6.31333E-001	3.57810E+000	9	...........
	20	0.28	6.20028E-001	-9.86780E-005	0.00000E+000	-6.11831E-005	-5.99601E-002	6.20267E-001	3.57810E+000	9	...........
	21	0.293333	6.08731E-001	-9.98293E-005	0.00000E+000	-6.07692E-005	-5.99601E-002	6.09017E-001	3.57810E+000	9	...........
	22	0.306667	5.97307E-001	-9.83050E-005	0.00000E+000	-5.87183E-005	-5.99601E-002	5.97583E-001	3.57810E+000	9	...........
	23	0.32	5.85657E-001	-9.80299E-005	0.00000E+000	-5.74119E-005	-5.99601E-002	5.85942E-001	3.57810E+000	9	...........
	24	0.333333	5.73858E-001	-9.91958E-005	0.00000E+000	-5.69244E-005	-5.99601E-002	5.74098E-001	3.57810E+000	9	...........
	25	0.346667	5.61852E-001	-9.85801E-005	0.00000E+000	-5.53874E-005	-5.99601E-002	5.62101E-001	3.57810E+000	9	...........
	26	0.36	5.49695E-001	-9.92677E-005	0.00000E+000	-5.45669E-005	-5.99601E-002	5.49909E-001	3.57810E+000	9	...........
	27	0.373333	5.37368E-001	-9.93990E-005	0.00000E+000	-5.34138E-005	-5.99601E-002	5.37601E-001	3.57810E+000	9	...........
	28	0.386667	5.24913E-001	-9.82904E-005	0.00000E+000	-5.15939E-005	-5.99601E-002	5.25121E-001	3.57810E+000	9	...........
	29	0.4	5.12303E-001	-9.91791E-005	0.00000E+000	-5.08098E-005	-5.99601E-002	5.12514E-001	3.57810E+000	9	...........
	30	0.413333	4.99565E-001	-9.90083E-005	0.00000E+000	-4.94610E-005	-5.99601E-002	4.99801E-001	3.57810E+000	9	...........
	31	0.426667	4.86850E-001	-9.90072E-005	0.00000E+000	-4.82016E-005	-5.99601E-002	4.87039E-001	3.57810E+000	9	...........
	32	0.44	4.74173E-001	-9.90322E-005	0.00000E+000	-4.69584E-005	-5.99601E-002	4.74276E-001	3.57810E+000	9	...........
	33	0.453333	4.61195E-001	-9.84790E-005	0.00000E+000	-4.54180E-005	-5.99601E-002	4.61290E-001	3.57810E+000	9	...........
	34	0.466667	4.48146E-001	-9.92343E-005	0.00000E+000	-4.44715E-005	-5.99601E-002	4.48242E-001	3.57810E+000	9	...........
	35	0.48	4.35049E-001	-9.95032E-005	0.00000E+000	-4.32888E-005	-5.99601E-002	4.35140E-001	3.57769E+000	9	...........
	36	0.493333	4.21917E-001	-9.75705E-005	0.00000E+000	-4.11666E-005	-5.99601E-002	4.22007E-001	3.57700E+000	9	...........
	37	0.506667	4.08757E-001	-9.89624E-005	0.00000E+000	-4.04515E-005	-5.99601E-002	4.08837E-001	3.57700E+000	9	...........
	38	0.52	3.95585E-001	-9.87051E-005	0.00000E+000	-3.90462E-005	-5.99601E-002	3.95659E-001	3.57700E+000	9	...........
	39	0.533333	3.82403E-001	-9.93917E-005	0.00000E+000	-3.80077E-005	-5.99601E-002	3.82481E-001	3.57700E+000	9	...........
	40	0.546667	3.69228E-001	-9.91843E-005	0.00000E+000	-3.66217E-005	-5.99601E-002	3.69301E-001	3.57700E+000	9	...........
	41	0.56	3.56076E-001	-9.88103E-005	0.00000E+000	-3.51840E-005	-5.99601E-002	3.56144E-001	3.57700E+000	9	...........
	42	0.573333	3.42942E-001	-9.70839E-005	0.00000E+000	-3.32941E-005	-5.99601E-002	3.43011E-001	3.57700E+000	9	...........
	43	0.586667	3.29844E-001	-9.82508E-005	0.00000E+000	-3.24075E-005	-5.99601E-002	3.29909E-001	3.57700E+000	9	...........
	44	0.6	3.16788E-001	-9.78820E-005	0.00000E+000	-3.10078E-005	-5.99601E-002	3.16851E-001	3.57700E+000	9	...........
	45	0.613333	3.03761E-001	-9.85842E-005	0.00000E+000	-2.99460E-005	-5.99601E-002	3.03831E-001	3.57700E+000	9	...........
	46	0.626667	2.90805E-001	-9.78278E-005	0.00000E+000	-2.84488E-005	-5.99601E-002	2.90867E-001	3.57700E+000	9	...........
	47	0.64	2.77890E-001	-9.79132E-005	0.00000E+000	-2.72091E-005	-5.99601E-002	2.77952E-001	3.57700E+000	9	...........
	48	0.653333	2.65032E-001	-9.88666E-005	0.00000E+000	-2.62028E-005	-5.99601E-002	2.65093E-001	3.57700E+000	9	...........
	49	0.666667	2.52239E-001	-9.94542E-005	0.00000E+000	-2.50863E-005	-5.99601E-002	2.52295E-001	3.57700E+000	9	...........
	50	0.68	2.39507E-001	-9.89624E-005	0.00000E+000	-2.37022E-005	-5.99601E-002	2.39552E-001	3.57700E+000	9	...........
	51	0.693333	2.26824E-001	-9.97313E-005	0.00000E+000	-2.26215E-005	-5.99601E-002	2.26870E-001	3.57700E+000	9	...........
	52	0.706667	2.14210E-001	-9.82894E-005	0.00000E+000	-2.10546E-005	-5.99601E-002	2.14249E-001	3.57700E+000	9	...........
	53	0.72	2.01652E-001	-9.87957E-005	0.00000E+000	-1.99224E-005	-5.99601E-002	2.01694E-001	3.57700E+000	9	...........
	54	0.733333	1.89152E-001	-9.81373E-005	0.00000E+000	-1.85629E-005	-5.99601E-002	1.89190E-001	3.57700E+000	9	...........
	55	0.746667	1.76706E-001	-9.85530E-005	0.00000E+000	-1.74149E-005	-5.99601E-002	1.76740E-001	3.57700E+000	9	...........
	56	0.76	1.64310E-001	-9.78122E-005	0.00000E+000	-1.60716E-005	-5.99601E-002	1.64342E-001	3.57700E+000	9	...........
	57	0.773333	1.51977E-001	-9.87280E-005	0.00000E+000	-1.50044E-005	-5.99601E-002	1.51996E-001	3.57700E+000	9	...........
	58	0.786667	1.39693E-001	-9.89853E-005	0.00000E+000	-1.38276E-005	-5.99601E-002	1.39720E-001	3.57700E+000	9	...........
	59	0.8	1.27483E-001	-9.83102E-005	0.00000E+000	-1.25329E-005	-5.99601E-002	1.27503E-001	3.57700E+000	9	...........
	60	0.813333	1.15330E-001	-9.85623E-005	0.00000E+000	-1.13672E-005	-5.99601E-002	1.15357E-001	3.57700E+000	9	...........
	61	0.826667	1.03263E-001	-9.87749E-005	0.00000E+000	-1.01998E-005	-5.99601E-002	1.03286E-001	3.57700E+000	9	...........
	62	0.84	9.12795E-002	-9.91927E-005	0.00000E+000	-9.05425E-006	-5.99601E-002	9.12968E-002	3.57700E+000	9	...........
	63	0.853333	7.93985E-002	-9.83039E-005	0.00000E+000	-7.80518E-006	-5.99601E-002	7.94051E-002	3.57700E+000	9	...........
	64	0.866667	6.76178E-002	-9.80237E-005	0.00000E+000	-6.62814E-006	-5.99601E-002	6.76160E-002	3.57700E+000	9	...........
	65	0.88	5.59450E-002	-9.78434E-005	0.00000E+000	-5.47385E-006	-5.99601E-002	5.59474E-002	3.57700E+000	9	...........
	66	0.893333	4.44270E-002	-9.78476E-005	0.00000E+000	-4.34708E-006	-5.99601E-002	4.44274E-002	3.57700E+000	9	...........
	67	0.906667	3.30237E-002	-9.81998E-005	0.00000E+000	-3.24292E-006	-5.99601E-002	3.30203E-002	3.57700E+000	9	...........
	68	0.92	2.17581E-002	-9.93417E-005	0.00000E+000	-2.16148E-006	-5.99601E-002	2.17498E-002	3.57700E+000	9	...........
	69	0.933333	1.06495E-002	-9.95125E-005	0.00000E+000	-1.05976E-006	-5.99601E-002	1.06381E-002	3.57700E+000	9	...........
	70	0.941667	1.73932E-003	-9.85036E-005	0.00000E+000	-1.71329E-007	-5.99601E-002	1.71799E-003	3.57700E+000	9	...........
STARTTIMEOFFSET	QUANT	1007.466	Start Time Offset (s)
