EXPLAIN
TAG	PWR800_DISCHARGE
TITLE	LABEL	PWR Cyclic Charge Discharge (Cell) - Discharge Step	Test &Identifier
DATE	LABEL	12-7-2017	Date
TIME	LABEL	16:54:12	Time
NOTES	NOTES	2	&Notes...
	supercap test cell
	6M KOH
PSTAT	PSTAT	IFC5000-01520	Potentiostat
CAPACITY	QUANT	1.00000E-003	Capacity (A-hr)
CELLTYPE	SELECTOR	1	&Cell Type
WORKINGCONNECTION	SELECTOR	0	&Working Lead
MAXDISCHARGETIME	VARIABLEANDUNITS	1.00000E+002	s	1.00000E+002	second(s)	Max &Discharge Time
DISCHARGEMODE	MULTIPARAM	0	1.00000E-004	&Discharge Mode	Constant Current	Amp(s)
SAMPLETIME	QUANT	1.00000E-002	Sa&mple Period (s)
DISCHARGESTOPAT1	MULTIPARAM	3	0.00000E+000	Discharge Stop At &1	Voltage < Limit	V
DISCHARGESTOPAT2	MULTIPARAM	0	0.00000E+000	Discharge Stop At &2	None	N/A
AESBHCSELECTOR	TOGGLE	F	Save Both Half Cells
IRCOMP	TOGGLE	F	IR &Measure
EOC	QUANT	0	Open Circuit (V)
SEQUENCER	TOGGLE	TRUE	Run as Sequence
PSTATMODEL	IQUANT	53	Pstat Model
PSTATSECTION	LABEL	IFC5000-01520	Pstat Section
PSTATSERIALNO	LABEL	01520	Pstat Serial Number
CTRLMODE	IQUANT	0	Control Mode
ELECTROMETER	IQUANT	1	RE=0 or CS=1
IESTAB	IQUANT	0	I/E Stability
CASPEED	IQUANT	4	Control Amp Speed
CONVENTION	IQUANT	1	Current Convention
ICHRANGE	IQUANT	2	Ich Range
ICHRANGEMODE	TOGGLE	T	Ich Auto Range
ICHOFFSETENABLE	TOGGLE	F	Ich Offset Enable
ICHOFFSET	QUANT	0	Ich Offset (V)
ICHFILTER	IQUANT	1	Ich Filter
VCHRANGE	IQUANT	2	Vch Range
VCHRANGEMODE	TOGGLE	T	Vch Auto Range
VCHOFFSETENABLE	TOGGLE	F	Vch Offset Enable
VCHOFFSET	QUANT	0	Vch Offset (V)
VCHFILTER	IQUANT	1	Vch Filter
IERANGELOWERLIMIT	IQUANT	9	I/E Range Lower Limit
IERANGEMODE	TOGGLE	F	I/E AutoRange
IERANGE	IQUANT	9	I/E Range
ACHSELECT	IQUANT	1	Ach Select
ACHRANGE	IQUANT	2	Ach Range
ACHOFFSETENABLE	TOGGLE	F	Ach Offset Enable
ACHOFFSET	QUANT	0	Ach Offset (V)
ACHFILTER	IQUANT	1	Ach Filter
CABLEID	IQUANT	14	Cable ID
DCCALDATE	LABEL	5-7-2017	DC Calibration Date
ACCALDATE	LABEL	12/3/2015	AC Calibration Date
FRAMEWORKVERSION	QUANT	7.01	Framework Version
INSTRUMENTVERSION	LABEL	4.00	Instrument Version
CURVE	TABLE	70
	Pt	T	Vf	Im	Vu	Pwr	Sig	Ach	Temp	IERange	Over
	#	s	V	A	V	W	V	V	deg C	#	bits
	0	0.013333	8.45499E-001	-9.91989E-005	0.00000E+000	-8.38726E-005	-5.99601E-002	8.45798E-001	3.57660E+000	9	...........
	1	0.026667	8.32264E-001	-9.81977E-005	0.00000E+000	-8.17264E-005	-5.99601E-002	8.32557E-001	3.57660E+000	9	...........
	2	0.04	8.19632E-001	-9.86259E-005	0.00000E+000	-8.08369E-005	-5.99601E-002	8.19907E-001	3.57660E+000	9	...........
	3	0.053333	8.07364E-001	-9.93615E-005	0.00000E+000	-8.02208E-005	-5.99601E-002	8.07636E-001	3.57660E+000	9	...........
	4	0.066667	7.95382E-001	-9.88509E-005	0.00000E+000	-7.86242E-005	-5.99601E-002	7.95611E-001	3.57660E+000	9	...........
	5	0.08	7.83540E-001	-9.85436E-005	0.00000E+000	-7.72128E-005	-5.99601E-002	7.83782E-001	3.57660E+000	9	...........
	6	0.093333	7.71867E-001	-9.90239E-005	0.00000E+000	-7.64332E-005	-5.99601E-002	7.72132E-001	3.57660E+000	9	...........
	7	0.106667	7.60359E-001	-9.84915E-005	0.00000E+000	-7.48889E-005	-5.99601E-002	7.60572E-001	3.57660E+000	9	...........
	8	0.12	7.48893E-001	-9.90249E-005	0.00000E+000	-7.41591E-005	-5.99601E-002	7.49152E-001	3.57659E+000	9	...........
	9	0.133333	7.37525E-001	-9.95177E-005	0.00000E+000	-7.33969E-005	-5.99601E-002	7.37796E-001	3.57640E+000	9	...........
	10	0.146667	7.26286E-001	-9.81060E-005	0.00000E+000	-7.12530E-005	-5.99601E-002	7.26519E-001	3.57640E+000	9	...........
	11	0.16	7.15096E-001	-9.87790E-005	0.00000E+000	-7.06365E-005	-5.99601E-002	7.15338E-001	3.57640E+000	9	...........
	12	0.173333	7.03993E-001	-9.86759E-005	0.00000E+000	-6.94671E-005	-5.99601E-002	7.04213E-001	3.57640E+000	9	...........
	13	0.186667	6.92949E-001	-9.72996E-005	0.00000E+000	-6.74236E-005	-5.99601E-002	6.93184E-001	3.57640E+000	9	...........
	14	0.2	6.82001E-001	-9.88707E-005	0.00000E+000	-6.74299E-005	-5.99601E-002	6.82235E-001	3.57640E+000	9	...........
	15	0.213333	6.71152E-001	-9.84759E-005	0.00000E+000	-6.60923E-005	-5.99601E-002	6.71348E-001	3.57640E+000	9	...........
	16	0.226667	6.60302E-001	-9.77132E-005	0.00000E+000	-6.45202E-005	-5.99601E-002	6.60534E-001	3.57640E+000	9	...........
	17	0.24	6.49531E-001	-9.85915E-005	0.00000E+000	-6.40383E-005	-5.99601E-002	6.49738E-001	3.57640E+000	9	...........
	18	0.253333	6.38711E-001	-9.94959E-005	0.00000E+000	-6.35491E-005	-5.99601E-002	6.38926E-001	3.57640E+000	9	...........
	19	0.266667	6.27856E-001	-9.72892E-005	0.00000E+000	-6.10836E-005	-5.99601E-002	6.28067E-001	3.57640E+000	9	...........
	20	0.28	6.16847E-001	-9.82758E-005	0.00000E+000	-6.06211E-005	-5.99601E-002	6.17092E-001	3.57640E+000	9	...........
	21	0.293333	6.05649E-001	-9.95855E-005	0.00000E+000	-6.03138E-005	-5.99601E-002	6.05900E-001	3.57640E+000	9	...........
	22	0.306667	5.94345E-001	-9.82456E-005	0.00000E+000	-5.83918E-005	-5.99601E-002	5.94550E-001	3.57640E+000	9	...........
	23	0.32	5.82758E-001	-9.84227E-005	0.00000E+000	-5.73566E-005	-5.99601E-002	5.82987E-001	3.57640E+000	9	...........
	24	0.333333	5.71016E-001	-9.77893E-005	0.00000E+000	-5.58392E-005	-5.99601E-002	5.71197E-001	3.57640E+000	9	...........
	25	0.346667	5.59004E-001	-9.94990E-005	0.00000E+000	-5.56204E-005	-5.99601E-002	5.59207E-001	3.57640E+000	9	...........
	26	0.36	5.46812E-001	-9.85988E-005	0.00000E+000	-5.39150E-005	-5.99601E-002	5.47005E-001	3.57640E+000	9	...........
	27	0.373333	5.34405E-001	-9.77684E-005	0.00000E+000	-5.22480E-005	-5.99601E-002	5.34624E-001	3.57640E+000	9	...........
	28	0.386667	5.21853E-001	-9.89645E-005	0.00000E+000	-5.16449E-005	-5.99601E-002	5.22059E-001	3.57640E+000	9	...........
	29	0.4	5.09111E-001	-9.71245E-005	0.00000E+000	-4.94471E-005	-5.99601E-002	5.09310E-001	3.57640E+000	9	...........
	30	0.413333	4.96224E-001	-9.87853E-005	0.00000E+000	-4.90196E-005	-5.99601E-002	4.96459E-001	3.57640E+000	9	...........
	31	0.426667	4.83395E-001	-9.90499E-005	0.00000E+000	-4.78802E-005	-5.99601E-002	4.83565E-001	3.57640E+000	9	...........
	32	0.44	4.70439E-001	-9.87613E-005	0.00000E+000	-4.64612E-005	-5.99601E-002	4.70535E-001	3.57640E+000	9	...........
	33	0.453333	4.57239E-001	-9.77267E-005	0.00000E+000	-4.46844E-005	-5.99601E-002	4.57329E-001	3.57640E+000	9	...........
	34	0.466667	4.43951E-001	-9.68557E-005	0.00000E+000	-4.29992E-005	-5.99601E-002	4.44046E-001	3.57640E+000	9	...........
	35	0.48	4.30597E-001	-9.79674E-005	0.00000E+000	-4.21845E-005	-5.99601E-002	4.30693E-001	3.57640E+000	9	...........
	36	0.493333	4.17189E-001	-9.88155E-005	0.00000E+000	-4.12247E-005	-5.99601E-002	4.17281E-001	3.57640E+000	9	...........
	37	0.506667	4.03742E-001	-9.93677E-005	0.00000E+000	-4.01189E-005	-5.99601E-002	4.03826E-001	3.57640E+000	9	...........
	38	0.52	3.90270E-001	-9.92021E-005	0.00000E+000	-3.87156E-005	-5.99601E-002	3.90350E-001	3.57640E+000	9	...........
	39	0.533333	3.76783E-001	-9.86363E-005	0.00000E+000	-3.71645E-005	-5.99601E-002	3.76860E-001	3.57640E+000	9	...........
	40	0.546667	3.63292E-001	-9.98918E-005	0.00000E+000	-3.62899E-005	-5.99601E-002	3.63369E-001	3.57640E+000	9	...........
	41	0.56	3.49817E-001	-9.98584E-005	0.00000E+000	-3.49322E-005	-5.99601E-002	3.49884E-001	3.57640E+000	9	...........
	42	0.573333	3.36345E-001	-9.86332E-005	0.00000E+000	-3.31748E-005	-5.99601E-002	3.36412E-001	3.57640E+000	9	...........
	43	0.586667	3.22921E-001	-9.80747E-005	0.00000E+000	-3.16704E-005	-5.99601E-002	3.22983E-001	3.57640E+000	9	...........
	44	0.6	3.09521E-001	-9.85832E-005	0.00000E+000	-3.05135E-005	-5.99601E-002	3.09586E-001	3.57640E+000	9	...........
	45	0.613333	2.96171E-001	-9.89843E-005	0.00000E+000	-2.93163E-005	-5.99601E-002	2.96231E-001	3.57640E+000	9	...........
	46	0.626667	2.82874E-001	-9.87040E-005	0.00000E+000	-2.79208E-005	-5.99601E-002	2.82933E-001	3.57640E+000	9	...........
	47	0.64	2.69646E-001	-9.87072E-005	0.00000E+000	-2.66160E-005	-5.99601E-002	2.69698E-001	3.57640E+000	9	...........
	48	0.653333	2.56474E-001	-9.71266E-005	0.00000E+000	-2.49104E-005	-5.99601E-002	2.56528E-001	3.57640E+000	9	...........
	49	0.666667	2.43383E-001	-9.84644E-005	0.00000E+000	-2.39646E-005	-5.99601E-002	2.43423E-001	3.57640E+000	9	...........
	50	0.68	2.30358E-001	-9.85019E-005	0.00000E+000	-2.26907E-005	-5.99601E-002	2.30396E-001	3.57640E+000	9	...........
	51	0.693333	2.17403E-001	-9.93740E-005	0.00000E+000	-2.16042E-005	-5.99601E-002	2.17440E-001	3.57640E+000	9	...........
	52	0.706667	2.04535E-001	-9.88603E-005	0.00000E+000	-2.02204E-005	-5.99601E-002	2.04569E-001	3.57640E+000	9	...........
	53	0.72	1.91746E-001	-9.78736E-005	0.00000E+000	-1.87669E-005	-5.99601E-002	1.91779E-001	3.57640E+000	9	...........
	54	0.733333	1.79028E-001	-9.88593E-005	0.00000E+000	-1.76986E-005	-5.99601E-002	1.79064E-001	3.57640E+000	9	...........
	55	0.746667	1.66391E-001	-9.79299E-005	0.00000E+000	-1.62946E-005	-5.99601E-002	1.66427E-001	3.57640E+000	9	...........
	56	0.76	1.53833E-001	-9.88499E-005	0.00000E+000	-1.52064E-005	-5.99601E-002	1.53856E-001	3.57640E+000	9	...........
	57	0.773333	1.41353E-001	-9.91948E-005	0.00000E+000	-1.40215E-005	-5.99601E-002	1.41378E-001	3.57640E+000	9	...........
	58	0.786667	1.28948E-001	-9.85248E-005	0.00000E+000	-1.27045E-005	-5.99601E-002	1.28971E-001	3.57640E+000	9	...........
	59	0.8	1.16636E-001	-9.91479E-005	0.00000E+000	-1.15642E-005	-5.99601E-002	1.16662E-001	3.57640E+000	9	...........
	60	0.813333	1.04407E-001	-9.88301E-005	0.00000E+000	-1.03186E-005	-5.99601E-002	1.04431E-001	3.57640E+000	9	...........
	61	0.826667	9.22828E-002	-9.91250E-005	0.00000E+000	-9.14752E-006	-5.99601E-002	9.23019E-002	3.57640E+000	9	...........
	62	0.84	8.02680E-002	-9.92093E-005	0.00000E+000	-7.96334E-006	-5.99601E-002	8.02803E-002	3.57640E+000	9	...........
	63	0.853333	6.83760E-002	-9.96490E-005	0.00000E+000	-6.81360E-006	-5.99601E-002	6.83867E-002	3.57640E+000	9	...........
	64	0.866667	5.66048E-002	-9.78789E-005	0.00000E+000	-5.54042E-006	-5.99601E-002	5.66129E-002	3.57640E+000	9	...........
	65	0.88	4.49977E-002	-9.83310E-005	0.00000E+000	-4.42467E-006	-5.99601E-002	4.49991E-002	3.57640E+000	9	...........
	66	0.893333	3.35311E-002	-9.90187E-005	0.00000E+000	-3.32020E-006	-5.99601E-002	3.35294E-002	3.57640E+000	9	...........
	67	0.906667	2.22129E-002	-9.85582E-005	0.00000E+000	-2.18926E-006	-5.99601E-002	2.22056E-002	3.57640E+000	9	...........
	68	0.92	1.10662E-002	-9.87363E-005	0.00000E+000	-1.09264E-006	-5.99601E-002	1.10565E-002	3.57640E+000	9	...........
	69	0.928333	2.13934E-003	-9.95688E-005	0.00000E+000	-2.13012E-007	-5.99601E-002	2.12457E-003	3.57640E+000	9	...........
STARTTIMEOFFSET	QUANT	1881.44	Start Time Offset (s)
