EXPLAIN
TAG	PWR800_DISCHARGE
TITLE	LABEL	PWR Cyclic Charge Discharge (Cell) - Discharge Step	Test &Identifier
DATE	LABEL	12-7-2017	Date
TIME	LABEL	16:35:02	Time
NOTES	NOTES	2	&Notes...
	supercap test cell
	6M KOH
PSTAT	PSTAT	IFC5000-01520	Potentiostat
CAPACITY	QUANT	1.00000E-003	Capacity (A-hr)
CELLTYPE	SELECTOR	1	&Cell Type
WORKINGCONNECTION	SELECTOR	0	&Working Lead
MAXDISCHARGETIME	VARIABLEANDUNITS	1.00000E+002	s	1.00000E+002	second(s)	Max &Discharge Time
DISCHARGEMODE	MULTIPARAM	0	1.00000E-004	&Discharge Mode	Constant Current	Amp(s)
SAMPLETIME	QUANT	1.00000E-002	Sa&mple Period (s)
DISCHARGESTOPAT1	MULTIPARAM	3	0.00000E+000	Discharge Stop At &1	Voltage < Limit	V
DISCHARGESTOPAT2	MULTIPARAM	0	0.00000E+000	Discharge Stop At &2	None	N/A
AESBHCSELECTOR	TOGGLE	F	Save Both Half Cells
IRCOMP	TOGGLE	F	IR &Measure
EOC	QUANT	0	Open Circuit (V)
SEQUENCER	TOGGLE	TRUE	Run as Sequence
PSTATMODEL	IQUANT	53	Pstat Model
PSTATSECTION	LABEL	IFC5000-01520	Pstat Section
PSTATSERIALNO	LABEL	01520	Pstat Serial Number
CTRLMODE	IQUANT	0	Control Mode
ELECTROMETER	IQUANT	1	RE=0 or CS=1
IESTAB	IQUANT	0	I/E Stability
CASPEED	IQUANT	4	Control Amp Speed
CONVENTION	IQUANT	1	Current Convention
ICHRANGE	IQUANT	2	Ich Range
ICHRANGEMODE	TOGGLE	T	Ich Auto Range
ICHOFFSETENABLE	TOGGLE	F	Ich Offset Enable
ICHOFFSET	QUANT	0	Ich Offset (V)
ICHFILTER	IQUANT	1	Ich Filter
VCHRANGE	IQUANT	2	Vch Range
VCHRANGEMODE	TOGGLE	T	Vch Auto Range
VCHOFFSETENABLE	TOGGLE	F	Vch Offset Enable
VCHOFFSET	QUANT	0	Vch Offset (V)
VCHFILTER	IQUANT	1	Vch Filter
IERANGELOWERLIMIT	IQUANT	9	I/E Range Lower Limit
IERANGEMODE	TOGGLE	F	I/E AutoRange
IERANGE	IQUANT	9	I/E Range
ACHSELECT	IQUANT	1	Ach Select
ACHRANGE	IQUANT	2	Ach Range
ACHOFFSETENABLE	TOGGLE	F	Ach Offset Enable
ACHOFFSET	QUANT	0	Ach Offset (V)
ACHFILTER	IQUANT	1	Ach Filter
CABLEID	IQUANT	14	Cable ID
DCCALDATE	LABEL	5-7-2017	DC Calibration Date
ACCALDATE	LABEL	12/3/2015	AC Calibration Date
FRAMEWORKVERSION	QUANT	7.01	Framework Version
INSTRUMENTVERSION	LABEL	4.00	Instrument Version
CURVE	TABLE	71
	Pt	T	Vf	Im	Vu	Pwr	Sig	Ach	Temp	IERange	Over
	#	s	V	A	V	W	V	V	deg C	#	bits
	0	0.013333	8.46582E-001	-9.88218E-005	0.00000E+000	-8.36607E-005	-5.99601E-002	8.46858E-001	3.57670E+000	9	...........
	1	0.026667	8.33531E-001	-9.97970E-005	0.00000E+000	-8.31838E-005	-5.99601E-002	8.33783E-001	3.57670E+000	9	...........
	2	0.04	8.21090E-001	-9.80331E-005	0.00000E+000	-8.04939E-005	-5.99601E-002	8.21346E-001	3.57670E+000	9	...........
	3	0.053333	8.08999E-001	-9.81789E-005	0.00000E+000	-7.94267E-005	-5.99601E-002	8.09258E-001	3.57670E+000	9	...........
	4	0.066667	7.97199E-001	-9.88405E-005	0.00000E+000	-7.87955E-005	-5.99601E-002	7.97466E-001	3.57670E+000	9	...........
	5	0.08	7.85571E-001	-9.85290E-005	0.00000E+000	-7.74015E-005	-5.99601E-002	7.85825E-001	3.57670E+000	9	...........
	6	0.093333	7.74140E-001	-9.92437E-005	0.00000E+000	-7.68285E-005	-5.99601E-002	7.74397E-001	3.57670E+000	9	...........
	7	0.106667	7.62807E-001	-9.97511E-005	0.00000E+000	-7.60909E-005	-5.99601E-002	7.63061E-001	3.57670E+000	9	...........
	8	0.12	7.51607E-001	-9.90166E-005	0.00000E+000	-7.44215E-005	-5.99601E-002	7.51836E-001	3.57670E+000	9	...........
	9	0.133333	7.40491E-001	-9.85280E-005	0.00000E+000	-7.29591E-005	-5.99601E-002	7.40725E-001	3.57670E+000	9	...........
	10	0.146667	7.29497E-001	-9.94625E-005	0.00000E+000	-7.25576E-005	-5.99601E-002	7.29709E-001	3.57670E+000	9	...........
	11	0.16	7.18560E-001	-9.84873E-005	0.00000E+000	-7.07690E-005	-5.99601E-002	7.18770E-001	3.57670E+000	9	...........
	12	0.173333	7.07705E-001	-9.84373E-005	0.00000E+000	-6.96646E-005	-5.99601E-002	7.07923E-001	3.57670E+000	9	...........
	13	0.186667	6.96928E-001	-9.90812E-005	0.00000E+000	-6.90524E-005	-5.99601E-002	6.97138E-001	3.57670E+000	9	...........
	14	0.2	6.86223E-001	-9.90499E-005	0.00000E+000	-6.79703E-005	-5.99601E-002	6.86450E-001	3.57670E+000	9	...........
	15	0.213333	6.75577E-001	-9.84831E-005	0.00000E+000	-6.65330E-005	-5.99601E-002	6.75792E-001	3.57670E+000	9	...........
	16	0.226667	6.64932E-001	-9.92458E-005	0.00000E+000	-6.59917E-005	-5.99601E-002	6.65179E-001	3.57670E+000	9	...........
	17	0.24	6.54272E-001	-9.86519E-005	0.00000E+000	-6.45452E-005	-5.99601E-002	6.54509E-001	3.57670E+000	9	...........
	18	0.253333	6.43556E-001	-9.82227E-005	0.00000E+000	-6.32117E-005	-5.99601E-002	6.43788E-001	3.57670E+000	9	...........
	19	0.266667	6.32720E-001	-9.80810E-005	0.00000E+000	-6.20578E-005	-5.99601E-002	6.32984E-001	3.57670E+000	9	...........
	20	0.28	6.21753E-001	-9.86144E-005	0.00000E+000	-6.13138E-005	-5.99601E-002	6.21997E-001	3.57670E+000	9	...........
	21	0.293333	6.10546E-001	-9.76538E-005	0.00000E+000	-5.96221E-005	-5.99601E-002	6.10841E-001	3.57670E+000	9	...........
	22	0.306667	5.99204E-001	-9.83623E-005	0.00000E+000	-5.89391E-005	-5.99601E-002	5.99471E-001	3.57670E+000	9	...........
	23	0.32	5.87675E-001	-9.92166E-005	0.00000E+000	-5.83071E-005	-5.99601E-002	5.87906E-001	3.57670E+000	9	...........
	24	0.333333	5.75912E-001	-9.89937E-005	0.00000E+000	-5.70116E-005	-5.99601E-002	5.76167E-001	3.57670E+000	9	...........
	25	0.346667	5.63979E-001	-1.00101E-004	0.00000E+000	-5.64549E-005	-5.99601E-002	5.64226E-001	3.57670E+000	9	...........
	26	0.36	5.51852E-001	-9.99282E-005	0.00000E+000	-5.51456E-005	-5.99601E-002	5.52101E-001	3.57670E+000	9	...........
	27	0.373333	5.39591E-001	-9.95157E-005	0.00000E+000	-5.36977E-005	-5.99601E-002	5.39822E-001	3.57670E+000	9	...........
	28	0.386667	5.27143E-001	-9.81341E-005	0.00000E+000	-5.17307E-005	-5.99601E-002	5.27387E-001	3.57670E+000	9	...........
	29	0.4	5.14600E-001	-9.79945E-005	0.00000E+000	-5.04280E-005	-5.99601E-002	5.14819E-001	3.57670E+000	9	...........
	30	0.413333	5.01863E-001	-9.87926E-005	0.00000E+000	-4.95804E-005	-5.99601E-002	5.02120E-001	3.57670E+000	9	...........
	31	0.426667	4.89123E-001	-9.88791E-005	0.00000E+000	-4.83640E-005	-5.99601E-002	4.89335E-001	3.57670E+000	9	...........
	32	0.44	4.76509E-001	-9.87228E-005	0.00000E+000	-4.70423E-005	-5.99601E-002	4.76612E-001	3.57670E+000	9	...........
	33	0.453333	4.63544E-001	-9.96803E-005	0.00000E+000	-4.62062E-005	-5.99601E-002	4.63640E-001	3.57670E+000	9	...........
	34	0.466667	4.50507E-001	-9.85738E-005	0.00000E+000	-4.44082E-005	-5.99601E-002	4.50600E-001	3.57670E+000	9	...........
	35	0.48	4.37407E-001	-9.94834E-005	0.00000E+000	-4.35147E-005	-5.99601E-002	4.37500E-001	3.57670E+000	9	...........
	36	0.493333	4.24266E-001	-9.82727E-005	0.00000E+000	-4.16937E-005	-5.99601E-002	4.24356E-001	3.57670E+000	9	...........
	37	0.506667	4.11092E-001	-9.81987E-005	0.00000E+000	-4.03687E-005	-5.99601E-002	4.11176E-001	3.57670E+000	9	...........
	38	0.52	3.97909E-001	-9.74256E-005	0.00000E+000	-3.87665E-005	-5.99601E-002	3.97988E-001	3.57670E+000	9	...........
	39	0.533333	3.84718E-001	-9.83727E-005	0.00000E+000	-3.78457E-005	-5.99601E-002	3.84795E-001	3.57670E+000	9	...........
	40	0.546667	3.71520E-001	-9.83508E-005	0.00000E+000	-3.65393E-005	-5.99601E-002	3.71597E-001	3.57670E+000	9	...........
	41	0.56	3.58338E-001	-9.89822E-005	0.00000E+000	-3.54690E-005	-5.99601E-002	3.58411E-001	3.57670E+000	9	...........
	42	0.573333	3.45184E-001	-9.93375E-005	0.00000E+000	-3.42897E-005	-5.99601E-002	3.45250E-001	3.57670E+000	9	...........
	43	0.586667	3.32047E-001	-9.96480E-005	0.00000E+000	-3.30878E-005	-5.99601E-002	3.32119E-001	3.57670E+000	9	...........
	44	0.6	3.18960E-001	-9.91593E-005	0.00000E+000	-3.16279E-005	-5.99601E-002	3.19025E-001	3.57670E+000	9	...........
	45	0.613333	3.05914E-001	-9.89114E-005	0.00000E+000	-3.02584E-005	-5.99601E-002	3.05981E-001	3.57670E+000	9	...........
	46	0.626667	2.92916E-001	-9.85894E-005	0.00000E+000	-2.88784E-005	-5.99601E-002	2.92980E-001	3.57670E+000	9	...........
	47	0.64	2.79972E-001	-9.89489E-005	0.00000E+000	-2.77029E-005	-5.99601E-002	2.80032E-001	3.57670E+000	9	...........
	48	0.653333	2.67086E-001	-9.97782E-005	0.00000E+000	-2.66494E-005	-5.99601E-002	2.67142E-001	3.57670E+000	9	...........
	49	0.666667	2.54257E-001	-9.86488E-005	0.00000E+000	-2.50821E-005	-5.99601E-002	2.54312E-001	3.57670E+000	9	...........
	50	0.68	2.41488E-001	-9.95886E-005	0.00000E+000	-2.40495E-005	-5.99601E-002	2.41540E-001	3.57670E+000	9	...........
	51	0.693333	2.28791E-001	-9.82769E-005	0.00000E+000	-2.24849E-005	-5.99601E-002	2.28833E-001	3.57670E+000	9	...........
	52	0.706667	2.16143E-001	-9.87822E-005	0.00000E+000	-2.13511E-005	-5.99601E-002	2.16188E-001	3.57670E+000	9	...........
	53	0.72	2.03559E-001	-9.78893E-005	0.00000E+000	-1.99262E-005	-5.99601E-002	2.03604E-001	3.57670E+000	9	...........
	54	0.733333	1.91045E-001	-9.86686E-005	0.00000E+000	-1.88502E-005	-5.99601E-002	1.91077E-001	3.57670E+000	9	...........
	55	0.746667	1.78575E-001	-9.83758E-005	0.00000E+000	-1.75675E-005	-5.99601E-002	1.78609E-001	3.57670E+000	9	...........
	56	0.76	1.66168E-001	-9.92656E-005	0.00000E+000	-1.64947E-005	-5.99601E-002	1.66199E-001	3.57670E+000	9	...........
	57	0.773333	1.53825E-001	-9.86363E-005	0.00000E+000	-1.51727E-005	-5.99601E-002	1.53851E-001	3.57670E+000	9	...........
	58	0.786667	1.41534E-001	-9.82779E-005	0.00000E+000	-1.39097E-005	-5.99601E-002	1.41561E-001	3.57670E+000	9	...........
	59	0.8	1.29314E-001	-9.93698E-005	0.00000E+000	-1.28499E-005	-5.99601E-002	1.29337E-001	3.57670E+000	9	...........
	60	0.813333	1.17161E-001	-9.81122E-005	0.00000E+000	-1.14949E-005	-5.99601E-002	1.17182E-001	3.57670E+000	9	...........
	61	0.826667	1.05090E-001	-9.79153E-005	0.00000E+000	-1.02899E-005	-5.99601E-002	1.05108E-001	3.57670E+000	9	...........
	62	0.84	9.30999E-002	-9.92906E-005	0.00000E+000	-9.24395E-006	-5.99601E-002	9.31112E-002	3.57670E+000	9	...........
	63	0.853333	8.12163E-002	-9.81414E-005	0.00000E+000	-7.97068E-006	-5.99601E-002	8.12274E-002	3.57670E+000	9	...........
	64	0.866667	6.94365E-002	-9.89343E-005	0.00000E+000	-6.86965E-006	-5.99601E-002	6.94430E-002	3.57670E+000	9	...........
	65	0.88	5.77560E-002	-9.93677E-005	0.00000E+000	-5.73908E-006	-5.99601E-002	5.77685E-002	3.57670E+000	9	...........
	66	0.893333	4.62345E-002	-9.90770E-005	0.00000E+000	-4.58078E-006	-5.99601E-002	4.62412E-002	3.57670E+000	9	...........
	67	0.906667	3.48367E-002	-9.78132E-005	0.00000E+000	-3.40749E-006	-5.99601E-002	3.48367E-002	3.57722E+000	9	...........
	68	0.92	2.35676E-002	-9.89822E-005	0.00000E+000	-2.33277E-006	-5.99601E-002	2.35583E-002	3.57810E+000	9	...........
	69	0.933333	1.24533E-002	-9.85488E-005	0.00000E+000	-1.22726E-006	-5.99601E-002	1.24415E-002	3.57810E+000	9	...........
	70	0.943333	2.85393E-003	-9.84144E-005	0.00000E+000	-2.80868E-007	-5.99601E-002	2.83885E-003	3.57810E+000	9	...........
STARTTIMEOFFSET	QUANT	1067.827	Start Time Offset (s)
