EXPLAIN
TAG	PWR800_DISCHARGE
TITLE	LABEL	PWR Cyclic Charge Discharge (Cell) - Discharge Step	Test &Identifier
DATE	LABEL	12-7-2017	Date
TIME	LABEL	16:24:13	Time
NOTES	NOTES	2	&Notes...
	supercap test cell
	6M KOH
PSTAT	PSTAT	IFC5000-01520	Potentiostat
CAPACITY	QUANT	1.00000E-003	Capacity (A-hr)
CELLTYPE	SELECTOR	1	&Cell Type
WORKINGCONNECTION	SELECTOR	0	&Working Lead
MAXDISCHARGETIME	VARIABLEANDUNITS	1.00000E+002	s	1.00000E+002	second(s)	Max &Discharge Time
DISCHARGEMODE	MULTIPARAM	0	1.00000E-004	&Discharge Mode	Constant Current	Amp(s)
SAMPLETIME	QUANT	1.00000E-002	Sa&mple Period (s)
DISCHARGESTOPAT1	MULTIPARAM	3	0.00000E+000	Discharge Stop At &1	Voltage < Limit	V
DISCHARGESTOPAT2	MULTIPARAM	0	0.00000E+000	Discharge Stop At &2	None	N/A
AESBHCSELECTOR	TOGGLE	F	Save Both Half Cells
IRCOMP	TOGGLE	F	IR &Measure
EOC	QUANT	0	Open Circuit (V)
SEQUENCER	TOGGLE	TRUE	Run as Sequence
PSTATMODEL	IQUANT	53	Pstat Model
PSTATSECTION	LABEL	IFC5000-01520	Pstat Section
PSTATSERIALNO	LABEL	01520	Pstat Serial Number
CTRLMODE	IQUANT	0	Control Mode
ELECTROMETER	IQUANT	1	RE=0 or CS=1
IESTAB	IQUANT	0	I/E Stability
CASPEED	IQUANT	4	Control Amp Speed
CONVENTION	IQUANT	1	Current Convention
ICHRANGE	IQUANT	2	Ich Range
ICHRANGEMODE	TOGGLE	T	Ich Auto Range
ICHOFFSETENABLE	TOGGLE	F	Ich Offset Enable
ICHOFFSET	QUANT	0	Ich Offset (V)
ICHFILTER	IQUANT	1	Ich Filter
VCHRANGE	IQUANT	2	Vch Range
VCHRANGEMODE	TOGGLE	T	Vch Auto Range
VCHOFFSETENABLE	TOGGLE	F	Vch Offset Enable
VCHOFFSET	QUANT	0	Vch Offset (V)
VCHFILTER	IQUANT	1	Vch Filter
IERANGELOWERLIMIT	IQUANT	9	I/E Range Lower Limit
IERANGEMODE	TOGGLE	F	I/E AutoRange
IERANGE	IQUANT	9	I/E Range
ACHSELECT	IQUANT	1	Ach Select
ACHRANGE	IQUANT	2	Ach Range
ACHOFFSETENABLE	TOGGLE	F	Ach Offset Enable
ACHOFFSET	QUANT	0	Ach Offset (V)
ACHFILTER	IQUANT	1	Ach Filter
CABLEID	IQUANT	14	Cable ID
DCCALDATE	LABEL	5-7-2017	DC Calibration Date
ACCALDATE	LABEL	12/3/2015	AC Calibration Date
FRAMEWORKVERSION	QUANT	7.01	Framework Version
INSTRUMENTVERSION	LABEL	4.00	Instrument Version
CURVE	TABLE	71
	Pt	T	Vf	Im	Vu	Pwr	Sig	Ach	Temp	IERange	Over
	#	s	V	A	V	W	V	V	deg C	#	bits
	0	0.013333	8.45009E-001	-9.83633E-005	0.00000E+000	-8.31179E-005	-5.99601E-002	8.45325E-001	3.57830E+000	9	...........
	1	0.026667	8.32070E-001	-9.79632E-005	0.00000E+000	-8.15123E-005	-5.99601E-002	8.32347E-001	3.57830E+000	9	...........
	2	0.04	8.19714E-001	-9.95282E-005	0.00000E+000	-8.15847E-005	-5.99601E-002	8.19997E-001	3.57830E+000	9	...........
	3	0.053333	8.07712E-001	-9.78382E-005	0.00000E+000	-7.90252E-005	-5.99601E-002	8.07993E-001	3.57830E+000	9	...........
	4	0.066667	7.96004E-001	-9.97334E-005	0.00000E+000	-7.93882E-005	-5.99601E-002	7.96285E-001	3.57830E+000	9	...........
	5	0.08	7.84480E-001	-9.89353E-005	0.00000E+000	-7.76128E-005	-5.99601E-002	7.84724E-001	3.57830E+000	9	...........
	6	0.093333	7.73122E-001	-9.89874E-005	0.00000E+000	-7.65294E-005	-5.99601E-002	7.73391E-001	3.57830E+000	9	...........
	7	0.106667	7.61909E-001	-9.83873E-005	0.00000E+000	-7.49622E-005	-5.99601E-002	7.62174E-001	3.57830E+000	9	...........
	8	0.12	7.50828E-001	-9.89874E-005	0.00000E+000	-7.43225E-005	-5.99601E-002	7.51079E-001	3.57830E+000	9	...........
	9	0.133333	7.39837E-001	-9.78257E-005	0.00000E+000	-7.23751E-005	-5.99601E-002	7.40078E-001	3.57830E+000	9	...........
	10	0.146667	7.28973E-001	-9.83633E-005	0.00000E+000	-7.17043E-005	-5.99601E-002	7.29196E-001	3.57830E+000	9	...........
	11	0.16	7.18176E-001	-9.86238E-005	0.00000E+000	-7.08292E-005	-5.99601E-002	7.18420E-001	3.57830E+000	9	...........
	12	0.173333	7.07418E-001	-9.81883E-005	0.00000E+000	-6.94602E-005	-5.99601E-002	7.07664E-001	3.57830E+000	9	...........
	13	0.186667	6.96708E-001	-9.85769E-005	0.00000E+000	-6.86793E-005	-5.99601E-002	6.96937E-001	3.57830E+000	9	...........
	14	0.2	6.86017E-001	-9.93625E-005	0.00000E+000	-6.81644E-005	-5.99601E-002	6.86232E-001	3.57830E+000	9	...........
	15	0.213333	6.75322E-001	-9.88832E-005	0.00000E+000	-6.67780E-005	-5.99601E-002	6.75524E-001	3.57830E+000	9	...........
	16	0.226667	6.64505E-001	-9.86551E-005	0.00000E+000	-6.55567E-005	-5.99601E-002	6.64707E-001	3.57830E+000	9	...........
	17	0.24	6.53551E-001	-9.89947E-005	0.00000E+000	-6.46980E-005	-5.99601E-002	6.53788E-001	3.57830E+000	9	...........
	18	0.253333	6.42484E-001	-9.75548E-005	0.00000E+000	-6.26774E-005	-5.99601E-002	6.42716E-001	3.57764E+000	9	...........
	19	0.266667	6.31232E-001	-9.95084E-005	0.00000E+000	-6.28129E-005	-5.99601E-002	6.31464E-001	3.57690E+000	9	...........
	20	0.28	6.19835E-001	-9.88832E-005	0.00000E+000	-6.12913E-005	-5.99601E-002	6.20041E-001	3.57690E+000	9	...........
	21	0.293333	6.08180E-001	-9.84759E-005	0.00000E+000	-5.98910E-005	-5.99601E-002	6.08422E-001	3.57690E+000	9	...........
	22	0.306667	5.96436E-001	-9.79924E-005	0.00000E+000	-5.84462E-005	-5.99601E-002	5.96673E-001	3.57690E+000	9	...........
	23	0.32	5.84530E-001	-9.95688E-005	0.00000E+000	-5.82009E-005	-5.99601E-002	5.84736E-001	3.57690E+000	9	...........
	24	0.333333	5.72467E-001	-9.75069E-005	0.00000E+000	-5.58195E-005	-5.99601E-002	5.72693E-001	3.57690E+000	9	...........
	25	0.346667	5.60266E-001	-9.92802E-005	0.00000E+000	-5.56233E-005	-5.99601E-002	5.60500E-001	3.57690E+000	9	...........
	26	0.36	5.47956E-001	-9.93948E-005	0.00000E+000	-5.44640E-005	-5.99601E-002	5.48177E-001	3.57690E+000	9	...........
	27	0.373333	5.35554E-001	-9.95177E-005	0.00000E+000	-5.32972E-005	-5.99601E-002	5.35764E-001	3.57690E+000	9	...........
	28	0.386667	5.23054E-001	-9.90593E-005	0.00000E+000	-5.18133E-005	-5.99601E-002	5.23267E-001	3.57690E+000	9	...........
	29	0.4	5.10461E-001	-9.73465E-005	0.00000E+000	-4.96916E-005	-5.99601E-002	5.10658E-001	3.57690E+000	9	...........
	30	0.413333	4.97763E-001	-9.85696E-005	0.00000E+000	-4.90643E-005	-5.99601E-002	4.98001E-001	3.57690E+000	9	...........
	31	0.426667	4.85175E-001	-9.88228E-005	0.00000E+000	-4.79463E-005	-5.99601E-002	4.85356E-001	3.57690E+000	9	...........
	32	0.44	4.72583E-001	-9.89739E-005	0.00000E+000	-4.67734E-005	-5.99601E-002	4.72684E-001	3.57690E+000	9	...........
	33	0.453333	4.59763E-001	-9.90291E-005	0.00000E+000	-4.55299E-005	-5.99601E-002	4.59864E-001	3.57690E+000	9	...........
	34	0.466667	4.46895E-001	-9.93927E-005	0.00000E+000	-4.44181E-005	-5.99601E-002	4.46996E-001	3.57690E+000	9	...........
	35	0.48	4.34015E-001	-9.81195E-005	0.00000E+000	-4.25853E-005	-5.99601E-002	4.34115E-001	3.57690E+000	9	...........
	36	0.493333	4.21119E-001	-9.87311E-005	0.00000E+000	-4.15776E-005	-5.99601E-002	4.21218E-001	3.57690E+000	9	...........
	37	0.506667	4.08226E-001	-9.87124E-005	0.00000E+000	-4.02969E-005	-5.99601E-002	4.08318E-001	3.57690E+000	9	...........
	38	0.52	3.95336E-001	-9.86728E-005	0.00000E+000	-3.90089E-005	-5.99601E-002	3.95414E-001	3.57690E+000	9	...........
	39	0.533333	3.82447E-001	-9.92510E-005	0.00000E+000	-3.79583E-005	-5.99601E-002	3.82527E-001	3.57690E+000	9	...........
	40	0.546667	3.69579E-001	-9.94302E-005	0.00000E+000	-3.67473E-005	-5.99601E-002	3.69661E-001	3.57690E+000	9	...........
	41	0.56	3.56742E-001	-9.83310E-005	0.00000E+000	-3.50788E-005	-5.99601E-002	3.56819E-001	3.57690E+000	9	...........
	42	0.573333	3.43940E-001	-9.85248E-005	0.00000E+000	-3.38866E-005	-5.99601E-002	3.44010E-001	3.57690E+000	9	...........
	43	0.586667	3.31161E-001	-9.93229E-005	0.00000E+000	-3.28919E-005	-5.99601E-002	3.31230E-001	3.57690E+000	9	...........
	44	0.6	3.18425E-001	-9.79028E-005	0.00000E+000	-3.11747E-005	-5.99601E-002	3.18496E-001	3.57690E+000	9	...........
	45	0.613333	3.05727E-001	-9.77507E-005	0.00000E+000	-2.98851E-005	-5.99601E-002	3.05791E-001	3.57690E+000	9	...........
	46	0.626667	2.93063E-001	-9.86426E-005	0.00000E+000	-2.89085E-005	-5.99601E-002	2.93129E-001	3.57690E+000	9	...........
	47	0.64	2.80436E-001	-9.92177E-005	0.00000E+000	-2.78243E-005	-5.99601E-002	2.80498E-001	3.57690E+000	9	...........
	48	0.653333	2.67858E-001	-9.77528E-005	0.00000E+000	-2.61839E-005	-5.99601E-002	2.67913E-001	3.57690E+000	9	...........
	49	0.666667	2.55313E-001	-9.77695E-005	0.00000E+000	-2.49618E-005	-5.99601E-002	2.55373E-001	3.57690E+000	9	...........
	50	0.68	2.42819E-001	-9.90708E-005	0.00000E+000	-2.40563E-005	-5.99601E-002	2.42868E-001	3.57690E+000	9	...........
	51	0.693333	2.30354E-001	-9.82060E-005	0.00000E+000	-2.26221E-005	-5.99601E-002	2.30399E-001	3.57690E+000	9	...........
	52	0.706667	2.17922E-001	-9.86373E-005	0.00000E+000	-2.14952E-005	-5.99601E-002	2.17963E-001	3.57690E+000	9	...........
	53	0.72	2.05530E-001	-9.76309E-005	0.00000E+000	-2.00661E-005	-5.99601E-002	2.05568E-001	3.57690E+000	9	...........
	54	0.733333	1.93168E-001	-9.84363E-005	0.00000E+000	-1.90147E-005	-5.99601E-002	1.93208E-001	3.57690E+000	9	...........
	55	0.746667	1.80840E-001	-9.80987E-005	0.00000E+000	-1.77402E-005	-5.99601E-002	1.80878E-001	3.57690E+000	9	...........
	56	0.76	1.68545E-001	-9.87499E-005	0.00000E+000	-1.66438E-005	-5.99601E-002	1.68578E-001	3.57690E+000	9	...........
	57	0.773333	1.56287E-001	-9.90551E-005	0.00000E+000	-1.54811E-005	-5.99601E-002	1.56319E-001	3.57690E+000	9	...........
	58	0.786667	1.44072E-001	-9.91406E-005	0.00000E+000	-1.42833E-005	-5.99601E-002	1.44103E-001	3.57690E+000	9	...........
	59	0.8	1.31898E-001	-9.88259E-005	0.00000E+000	-1.30350E-005	-5.99601E-002	1.31928E-001	3.57690E+000	9	...........
	60	0.813333	1.19787E-001	-9.83092E-005	0.00000E+000	-1.17762E-005	-5.99601E-002	1.19817E-001	3.57690E+000	9	...........
	61	0.826667	1.07738E-001	-9.93771E-005	0.00000E+000	-1.07067E-005	-5.99601E-002	1.07761E-001	3.57690E+000	9	...........
	62	0.84	9.57621E-002	-9.82143E-005	0.00000E+000	-9.40521E-006	-5.99601E-002	9.57814E-002	3.57690E+000	9	...........
	63	0.853333	8.38618E-002	-9.93656E-005	0.00000E+000	-8.33299E-006	-5.99601E-002	8.38759E-002	3.57690E+000	9	...........
	64	0.866667	7.20461E-002	-9.95250E-005	0.00000E+000	-7.17039E-006	-5.99601E-002	7.20597E-002	3.57690E+000	9	...........
	65	0.88	6.03339E-002	-9.85019E-005	0.00000E+000	-5.94300E-006	-5.99601E-002	6.03365E-002	3.57690E+000	9	...........
	66	0.893333	4.87427E-002	-9.82216E-005	0.00000E+000	-4.78759E-006	-5.99601E-002	4.87462E-002	3.57690E+000	9	...........
	67	0.906667	3.72850E-002	-9.93094E-005	0.00000E+000	-3.70275E-006	-5.99601E-002	3.72863E-002	3.57690E+000	9	...........
	68	0.92	2.59260E-002	-9.80154E-005	0.00000E+000	-2.54115E-006	-5.99601E-002	2.59237E-002	3.57690E+000	9	...........
	69	0.933333	1.47133E-002	-9.85926E-005	0.00000E+000	-1.45062E-006	-5.99601E-002	1.47046E-002	3.57690E+000	9	...........
	70	0.946667	3.65190E-003	-9.82623E-005	0.00000E+000	-3.58844E-007	-5.99601E-002	3.63844E-003	3.57690E+000	9	...........
STARTTIMEOFFSET	QUANT	605.6049	Start Time Offset (s)
