EXPLAIN
TAG	PWR800_DISCHARGE
TITLE	LABEL	PWR Cyclic Charge Discharge (Cell) - Discharge Step	Test &Identifier
DATE	LABEL	12-7-2017	Date
TIME	LABEL	16:10:07	Time
NOTES	NOTES	2	&Notes...
	supercap test cell
	6M KOH
PSTAT	PSTAT	IFC5000-01520	Potentiostat
CAPACITY	QUANT	1.00000E-003	Capacity (A-hr)
CELLTYPE	SELECTOR	1	&Cell Type
WORKINGCONNECTION	SELECTOR	0	&Working Lead
MAXDISCHARGETIME	VARIABLEANDUNITS	1.00000E+002	s	1.00000E+002	second(s)	Max &Discharge Time
DISCHARGEMODE	MULTIPARAM	0	1.00000E-004	&Discharge Mode	Constant Current	Amp(s)
SAMPLETIME	QUANT	1.00000E-002	Sa&mple Period (s)
DISCHARGESTOPAT1	MULTIPARAM	3	0.00000E+000	Discharge Stop At &1	Voltage < Limit	V
DISCHARGESTOPAT2	MULTIPARAM	0	0.00000E+000	Discharge Stop At &2	None	N/A
AESBHCSELECTOR	TOGGLE	F	Save Both Half Cells
IRCOMP	TOGGLE	F	IR &Measure
EOC	QUANT	0	Open Circuit (V)
SEQUENCER	TOGGLE	TRUE	Run as Sequence
PSTATMODEL	IQUANT	53	Pstat Model
PSTATSECTION	LABEL	IFC5000-01520	Pstat Section
PSTATSERIALNO	LABEL	01520	Pstat Serial Number
CTRLMODE	IQUANT	0	Control Mode
ELECTROMETER	IQUANT	1	RE=0 or CS=1
IESTAB	IQUANT	0	I/E Stability
CASPEED	IQUANT	4	Control Amp Speed
CONVENTION	IQUANT	1	Current Convention
ICHRANGE	IQUANT	2	Ich Range
ICHRANGEMODE	TOGGLE	T	Ich Auto Range
ICHOFFSETENABLE	TOGGLE	F	Ich Offset Enable
ICHOFFSET	QUANT	0	Ich Offset (V)
ICHFILTER	IQUANT	1	Ich Filter
VCHRANGE	IQUANT	2	Vch Range
VCHRANGEMODE	TOGGLE	T	Vch Auto Range
VCHOFFSETENABLE	TOGGLE	F	Vch Offset Enable
VCHOFFSET	QUANT	0	Vch Offset (V)
VCHFILTER	IQUANT	1	Vch Filter
IERANGELOWERLIMIT	IQUANT	9	I/E Range Lower Limit
IERANGEMODE	TOGGLE	F	I/E AutoRange
IERANGE	IQUANT	9	I/E Range
ACHSELECT	IQUANT	1	Ach Select
ACHRANGE	IQUANT	2	Ach Range
ACHOFFSETENABLE	TOGGLE	F	Ach Offset Enable
ACHOFFSET	QUANT	0	Ach Offset (V)
ACHFILTER	IQUANT	1	Ach Filter
CABLEID	IQUANT	14	Cable ID
DCCALDATE	LABEL	5-7-2017	DC Calibration Date
ACCALDATE	LABEL	12/3/2015	AC Calibration Date
FRAMEWORKVERSION	QUANT	7.01	Framework Version
INSTRUMENTVERSION	LABEL	4.00	Instrument Version
CURVE	TABLE	76
	Pt	T	Vf	Im	Vu	Pwr	Sig	Ach	Temp	IERange	Over
	#	s	V	A	V	W	V	V	deg C	#	bits
	0	0.013333	8.18576E-001	-9.88905E-005	0.00000E+000	-8.09495E-005	-5.99601E-002	8.18866E-001	3.57720E+000	9	...........
	1	0.026667	8.04804E-001	-9.91031E-005	0.00000E+000	-7.97585E-005	-5.99601E-002	8.05118E-001	3.57720E+000	9	...........
	2	0.04	7.91629E-001	-9.86947E-005	0.00000E+000	-7.81296E-005	-5.99601E-002	7.91901E-001	3.57720E+000	9	...........
	3	0.053333	7.78781E-001	-9.87759E-005	0.00000E+000	-7.69248E-005	-5.99601E-002	7.79076E-001	3.57720E+000	9	...........
	4	0.066667	7.66197E-001	-9.89385E-005	0.00000E+000	-7.58064E-005	-5.99601E-002	7.66485E-001	3.57720E+000	9	...........
	5	0.08	7.53799E-001	-9.83039E-005	0.00000E+000	-7.41014E-005	-5.99601E-002	7.54060E-001	3.57720E+000	9	...........
	6	0.093333	7.41537E-001	-9.89791E-005	0.00000E+000	-7.33966E-005	-5.99601E-002	7.41790E-001	3.57720E+000	9	...........
	7	0.106667	7.29416E-001	-9.84300E-005	0.00000E+000	-7.17964E-005	-5.99601E-002	7.29668E-001	3.57720E+000	9	...........
	8	0.12	7.17372E-001	-9.85686E-005	0.00000E+000	-7.07103E-005	-5.99601E-002	7.17599E-001	3.57720E+000	9	...........
	9	0.133333	7.05412E-001	-9.86624E-005	0.00000E+000	-6.95976E-005	-5.99601E-002	7.05644E-001	3.57720E+000	9	...........
	10	0.146667	6.93548E-001	-9.78987E-005	0.00000E+000	-6.78974E-005	-5.99601E-002	6.93770E-001	3.57720E+000	9	...........
	11	0.16	6.81748E-001	-9.88218E-005	0.00000E+000	-6.73716E-005	-5.99601E-002	6.82015E-001	3.57720E+000	9	...........
	12	0.173333	6.70015E-001	-9.85603E-005	0.00000E+000	-6.60369E-005	-5.99601E-002	6.70262E-001	3.57720E+000	9	...........
	13	0.186667	6.58328E-001	-9.91395E-005	0.00000E+000	-6.52664E-005	-5.99601E-002	6.58570E-001	3.57720E+000	9	...........
	14	0.2	6.46724E-001	-9.93844E-005	0.00000E+000	-6.42743E-005	-5.99601E-002	6.46973E-001	3.57720E+000	9	...........
	15	0.213333	6.35157E-001	-9.85102E-005	0.00000E+000	-6.25695E-005	-5.99601E-002	6.35409E-001	3.57720E+000	9	...........
	16	0.226667	6.23699E-001	-9.90218E-005	0.00000E+000	-6.17598E-005	-5.99601E-002	6.23949E-001	3.57720E+000	9	...........
	17	0.24	6.12254E-001	-9.83581E-005	0.00000E+000	-6.02202E-005	-5.99601E-002	6.12532E-001	3.57720E+000	9	...........
	18	0.253333	6.00882E-001	-9.85613E-005	0.00000E+000	-5.92237E-005	-5.99601E-002	6.01165E-001	3.57720E+000	9	...........
	19	0.266667	5.89574E-001	-9.87488E-005	0.00000E+000	-5.82198E-005	-5.99601E-002	5.89872E-001	3.57720E+000	9	...........
	20	0.28	5.78329E-001	-9.84165E-005	0.00000E+000	-5.69171E-005	-5.99601E-002	5.78605E-001	3.57720E+000	9	...........
	21	0.293333	5.67156E-001	-9.87926E-005	0.00000E+000	-5.60308E-005	-5.99601E-002	5.67414E-001	3.57720E+000	9	...........
	22	0.306667	5.55968E-001	-9.87843E-005	0.00000E+000	-5.49209E-005	-5.99601E-002	5.56250E-001	3.57720E+000	9	...........
	23	0.32	5.44887E-001	-9.86165E-005	0.00000E+000	-5.37348E-005	-5.99601E-002	5.45149E-001	3.57720E+000	9	...........
	24	0.333333	5.33832E-001	-9.86894E-005	0.00000E+000	-5.26836E-005	-5.99601E-002	5.34070E-001	3.57720E+000	9	...........
	25	0.346667	5.22828E-001	-9.84561E-005	0.00000E+000	-5.14756E-005	-5.99601E-002	5.23029E-001	3.57720E+000	9	...........
	26	0.36	5.11838E-001	-9.90760E-005	0.00000E+000	-5.07109E-005	-5.99601E-002	5.12045E-001	3.57720E+000	9	...........
	27	0.373333	5.00880E-001	-9.89655E-005	0.00000E+000	-4.95699E-005	-5.99601E-002	5.01085E-001	3.57720E+000	9	...........
	28	0.386667	4.89945E-001	-9.85623E-005	0.00000E+000	-4.82901E-005	-5.99601E-002	4.90168E-001	3.57720E+000	9	...........
	29	0.4	4.79364E-001	-9.89801E-005	0.00000E+000	-4.74475E-005	-5.99601E-002	4.79434E-001	3.57720E+000	9	...........
	30	0.413333	4.68462E-001	-9.84748E-005	0.00000E+000	-4.61317E-005	-5.99601E-002	4.68561E-001	3.57720E+000	9	...........
	31	0.426667	4.57551E-001	-9.90114E-005	0.00000E+000	-4.53028E-005	-5.99601E-002	4.57651E-001	3.57720E+000	9	...........
	32	0.44	4.46641E-001	-9.84644E-005	0.00000E+000	-4.39783E-005	-5.99601E-002	4.46734E-001	3.57720E+000	9	...........
	33	0.453333	4.35719E-001	-9.83581E-005	0.00000E+000	-4.28566E-005	-5.99601E-002	4.35810E-001	3.57720E+000	9	...........
	34	0.466667	4.24768E-001	-9.83696E-005	0.00000E+000	-4.17843E-005	-5.99601E-002	4.24864E-001	3.57720E+000	9	...........
	35	0.48	4.13807E-001	-9.88384E-005	0.00000E+000	-4.09000E-005	-5.99601E-002	4.13889E-001	3.57720E+000	9	...........
	36	0.493333	4.02826E-001	-9.86363E-005	0.00000E+000	-3.97333E-005	-5.99601E-002	4.02907E-001	3.57720E+000	9	...........
	37	0.506667	3.91815E-001	-9.87572E-005	0.00000E+000	-3.86946E-005	-5.99601E-002	3.91891E-001	3.57720E+000	9	...........
	38	0.52	3.80780E-001	-9.87405E-005	0.00000E+000	-3.75984E-005	-5.99601E-002	3.80857E-001	3.57720E+000	9	...........
	39	0.533333	3.69724E-001	-9.89728E-005	0.00000E+000	-3.65926E-005	-5.99601E-002	3.69801E-001	3.57720E+000	9	...........
	40	0.546667	3.58641E-001	-9.86863E-005	0.00000E+000	-3.53930E-005	-5.99601E-002	3.58712E-001	3.57720E+000	9	...........
	41	0.56	3.47538E-001	-9.81675E-005	0.00000E+000	-3.41169E-005	-5.99601E-002	3.47604E-001	3.57720E+000	9	...........
	42	0.573333	3.36418E-001	-9.86384E-005	0.00000E+000	-3.31837E-005	-5.99601E-002	3.36484E-001	3.57720E+000	9	...........
	43	0.586667	3.25289E-001	-9.86728E-005	0.00000E+000	-3.20972E-005	-5.99601E-002	3.25354E-001	3.57720E+000	9	...........
	44	0.6	3.14148E-001	-9.87228E-005	0.00000E+000	-3.10136E-005	-5.99601E-002	3.14212E-001	3.57720E+000	9	...........
	45	0.613333	3.02997E-001	-9.90260E-005	0.00000E+000	-3.00046E-005	-5.99601E-002	3.03060E-001	3.57720E+000	9	...........
	46	0.626667	2.91853E-001	-9.87582E-005	0.00000E+000	-2.88228E-005	-5.99601E-002	2.91901E-001	3.57720E+000	9	...........
	47	0.64	2.80703E-001	-9.85655E-005	0.00000E+000	-2.76676E-005	-5.99601E-002	2.80765E-001	3.57720E+000	9	...........
	48	0.653333	2.69570E-001	-9.88186E-005	0.00000E+000	-2.66385E-005	-5.99601E-002	2.69626E-001	3.57720E+000	9	...........
	49	0.666667	2.58455E-001	-9.87707E-005	0.00000E+000	-2.55278E-005	-5.99601E-002	2.58509E-001	3.57720E+000	9	...........
	50	0.68	2.47372E-001	-9.92989E-005	0.00000E+000	-2.45638E-005	-5.99601E-002	2.47423E-001	3.57720E+000	9	...........
	51	0.693333	2.36324E-001	-9.87884E-005	0.00000E+000	-2.33460E-005	-5.99601E-002	2.36371E-001	3.57720E+000	9	...........
	52	0.706667	2.25329E-001	-9.83008E-005	0.00000E+000	-2.21501E-005	-5.99601E-002	2.25366E-001	3.57720E+000	9	...........
	53	0.72	2.14387E-001	-9.86551E-005	0.00000E+000	-2.11504E-005	-5.99601E-002	2.14423E-001	3.57720E+000	9	...........
	54	0.733333	2.03513E-001	-9.88040E-005	0.00000E+000	-2.01079E-005	-5.99601E-002	2.03547E-001	3.57720E+000	9	...........
	55	0.746667	1.92705E-001	-9.84196E-005	0.00000E+000	-1.89659E-005	-5.99601E-002	1.92745E-001	3.57720E+000	9	...........
	56	0.76	1.81984E-001	-9.90937E-005	0.00000E+000	-1.80335E-005	-5.99601E-002	1.82021E-001	3.57720E+000	9	...........
	57	0.773333	1.71348E-001	-9.84529E-005	0.00000E+000	-1.68697E-005	-5.99601E-002	1.71382E-001	3.57720E+000	9	...........
	58	0.786667	1.60812E-001	-9.85436E-005	0.00000E+000	-1.58470E-005	-5.99601E-002	1.60842E-001	3.57855E+000	9	...........
	59	0.8	1.50383E-001	-9.89124E-005	0.00000E+000	-1.48748E-005	-5.99601E-002	1.50404E-001	3.57860E+000	9	...........
	60	0.813333	1.40053E-001	-9.89676E-005	0.00000E+000	-1.38607E-005	-5.99601E-002	1.40081E-001	3.57860E+000	9	...........
	61	0.826667	1.29852E-001	-9.94604E-005	0.00000E+000	-1.29152E-005	-5.99601E-002	1.29874E-001	3.57860E+000	9	...........
	62	0.84	1.19757E-001	-9.88572E-005	0.00000E+000	-1.18389E-005	-5.99601E-002	1.19779E-001	3.57860E+000	9	...........
	63	0.853333	1.09794E-001	-9.83633E-005	0.00000E+000	-1.07997E-005	-5.99601E-002	1.09821E-001	3.57860E+000	9	...........
	64	0.866667	9.99721E-002	-9.83362E-005	0.00000E+000	-9.83088E-006	-5.99601E-002	9.99887E-002	3.57860E+000	9	...........
	65	0.88	9.02777E-002	-9.85321E-005	0.00000E+000	-8.89525E-006	-5.99601E-002	9.02897E-002	3.57860E+000	9	...........
	66	0.893333	8.07201E-002	-9.87030E-005	0.00000E+000	-7.96732E-006	-5.99601E-002	8.07301E-002	3.57860E+000	9	...........
	67	0.906667	7.13025E-002	-9.90843E-005	0.00000E+000	-7.06496E-006	-5.99601E-002	7.13123E-002	3.57860E+000	9	...........
	68	0.92	6.20227E-002	-9.78841E-005	0.00000E+000	-6.07104E-006	-5.99601E-002	6.20229E-002	3.57860E+000	9	...........
	69	0.933333	5.28851E-002	-9.86030E-005	0.00000E+000	-5.21463E-006	-5.99601E-002	5.28884E-002	3.57860E+000	9	...........
	70	0.946667	4.39273E-002	-9.84831E-005	0.00000E+000	-4.32610E-006	-5.99601E-002	4.39308E-002	3.57860E+000	9	...........
	71	0.96	3.50843E-002	-9.88405E-005	0.00000E+000	-3.46775E-006	-5.99601E-002	3.50830E-002	3.57860E+000	9	...........
	72	0.97333	2.63759E-002	-9.86957E-005	0.00000E+000	-2.60318E-006	-5.99601E-002	2.63717E-002	3.57860E+000	9	...........
	73	0.98667	1.78067E-002	-9.87947E-005	0.00000E+000	-1.75921E-006	-5.99601E-002	1.77946E-002	3.57860E+000	9	...........
	74	1	9.37082E-003	-9.83112E-005	0.00000E+000	-9.21257E-007	-5.99601E-002	9.35317E-003	3.57860E+000	9	...........
	75	1.01	2.10000E-003	-9.94716E-005	0.00000E+000	-2.08890E-007	-5.99601E-002	2.07390E-003	3.57860E+000	9	...........
STARTTIMEOFFSET	QUANT	1.355	Start Time Offset (s)
