EXPLAIN
TAG	PWR800_DISCHARGE
TITLE	LABEL	PWR Cyclic Charge Discharge (Cell) - Discharge Step	Test &Identifier
DATE	LABEL	12-7-2017	Date
TIME	LABEL	16:55:19	Time
NOTES	NOTES	2	&Notes...
	supercap test cell
	6M KOH
PSTAT	PSTAT	IFC5000-01520	Potentiostat
CAPACITY	QUANT	1.00000E-003	Capacity (A-hr)
CELLTYPE	SELECTOR	1	&Cell Type
WORKINGCONNECTION	SELECTOR	0	&Working Lead
MAXDISCHARGETIME	VARIABLEANDUNITS	1.00000E+002	s	1.00000E+002	second(s)	Max &Discharge Time
DISCHARGEMODE	MULTIPARAM	0	1.00000E-004	&Discharge Mode	Constant Current	Amp(s)
SAMPLETIME	QUANT	1.00000E-002	Sa&mple Period (s)
DISCHARGESTOPAT1	MULTIPARAM	3	0.00000E+000	Discharge Stop At &1	Voltage < Limit	V
DISCHARGESTOPAT2	MULTIPARAM	0	0.00000E+000	Discharge Stop At &2	None	N/A
AESBHCSELECTOR	TOGGLE	F	Save Both Half Cells
IRCOMP	TOGGLE	F	IR &Measure
EOC	QUANT	0	Open Circuit (V)
SEQUENCER	TOGGLE	TRUE	Run as Sequence
PSTATMODEL	IQUANT	53	Pstat Model
PSTATSECTION	LABEL	IFC5000-01520	Pstat Section
PSTATSERIALNO	LABEL	01520	Pstat Serial Number
CTRLMODE	IQUANT	0	Control Mode
ELECTROMETER	IQUANT	1	RE=0 or CS=1
IESTAB	IQUANT	0	I/E Stability
CASPEED	IQUANT	4	Control Amp Speed
CONVENTION	IQUANT	1	Current Convention
ICHRANGE	IQUANT	2	Ich Range
ICHRANGEMODE	TOGGLE	T	Ich Auto Range
ICHOFFSETENABLE	TOGGLE	F	Ich Offset Enable
ICHOFFSET	QUANT	0	Ich Offset (V)
ICHFILTER	IQUANT	1	Ich Filter
VCHRANGE	IQUANT	2	Vch Range
VCHRANGEMODE	TOGGLE	T	Vch Auto Range
VCHOFFSETENABLE	TOGGLE	F	Vch Offset Enable
VCHOFFSET	QUANT	0	Vch Offset (V)
VCHFILTER	IQUANT	1	Vch Filter
IERANGELOWERLIMIT	IQUANT	9	I/E Range Lower Limit
IERANGEMODE	TOGGLE	F	I/E AutoRange
IERANGE	IQUANT	9	I/E Range
ACHSELECT	IQUANT	1	Ach Select
ACHRANGE	IQUANT	2	Ach Range
ACHOFFSETENABLE	TOGGLE	F	Ach Offset Enable
ACHOFFSET	QUANT	0	Ach Offset (V)
ACHFILTER	IQUANT	1	Ach Filter
CABLEID	IQUANT	14	Cable ID
DCCALDATE	LABEL	5-7-2017	DC Calibration Date
ACCALDATE	LABEL	12/3/2015	AC Calibration Date
FRAMEWORKVERSION	QUANT	7.01	Framework Version
INSTRUMENTVERSION	LABEL	4.00	Instrument Version
CURVE	TABLE	70
	Pt	T	Vf	Im	Vu	Pwr	Sig	Ach	Temp	IERange	Over
	#	s	V	A	V	W	V	V	deg C	#	bits
	0	0.013333	8.46802E-001	-9.83665E-005	0.00000E+000	-8.32969E-005	-5.99601E-002	8.47096E-001	3.57740E+000	9	...........
	1	0.026667	8.33560E-001	-9.94854E-005	0.00000E+000	-8.29270E-005	-5.99601E-002	8.33835E-001	3.57740E+000	9	...........
	2	0.04	8.20934E-001	-9.90760E-005	0.00000E+000	-8.13348E-005	-5.99601E-002	8.21212E-001	3.57740E+000	9	...........
	3	0.053333	8.08629E-001	-9.81727E-005	0.00000E+000	-7.93853E-005	-5.99601E-002	8.08913E-001	3.57740E+000	9	...........
	4	0.066667	7.96635E-001	-9.92812E-005	0.00000E+000	-7.90909E-005	-5.99601E-002	7.96891E-001	3.57740E+000	9	...........
	5	0.08	7.84774E-001	-9.85373E-005	0.00000E+000	-7.73295E-005	-5.99601E-002	7.85034E-001	3.57740E+000	9	...........
	6	0.093333	7.73100E-001	-9.76205E-005	0.00000E+000	-7.54704E-005	-5.99601E-002	7.73336E-001	3.57740E+000	9	...........
	7	0.106667	7.61525E-001	-9.94229E-005	0.00000E+000	-7.57131E-005	-5.99601E-002	7.61780E-001	3.57740E+000	9	...........
	8	0.12	7.50090E-001	-9.86311E-005	0.00000E+000	-7.39822E-005	-5.99601E-002	7.50315E-001	3.57740E+000	9	...........
	9	0.133333	7.38716E-001	-9.88739E-005	0.00000E+000	-7.30397E-005	-5.99601E-002	7.38951E-001	3.57740E+000	9	...........
	10	0.146667	7.27449E-001	-9.83383E-005	0.00000E+000	-7.15361E-005	-5.99601E-002	7.27690E-001	3.57740E+000	9	...........
	11	0.16	7.16237E-001	-9.79445E-005	0.00000E+000	-7.01515E-005	-5.99601E-002	7.16485E-001	3.57740E+000	9	...........
	12	0.173333	7.05116E-001	-9.70058E-005	0.00000E+000	-6.84003E-005	-5.99601E-002	7.05360E-001	3.57740E+000	9	...........
	13	0.186667	6.94073E-001	-9.85498E-005	0.00000E+000	-6.84008E-005	-5.99601E-002	6.94312E-001	3.57740E+000	9	...........
	14	0.2	6.83103E-001	-9.91104E-005	0.00000E+000	-6.77026E-005	-5.99601E-002	6.83352E-001	3.57740E+000	9	...........
	15	0.213333	6.72225E-001	-9.83425E-005	0.00000E+000	-6.61083E-005	-5.99601E-002	6.72459E-001	3.57740E+000	9	...........
	16	0.226667	6.61380E-001	-9.88561E-005	0.00000E+000	-6.53814E-005	-5.99601E-002	6.61630E-001	3.57740E+000	9	...........
	17	0.24	6.50576E-001	-9.91843E-005	0.00000E+000	-6.45269E-005	-5.99601E-002	6.50806E-001	3.57740E+000	9	...........
	18	0.253333	6.39770E-001	-9.93437E-005	0.00000E+000	-6.35572E-005	-5.99601E-002	6.39992E-001	3.57740E+000	9	...........
	19	0.266667	6.28901E-001	-9.88020E-005	0.00000E+000	-6.21367E-005	-5.99601E-002	6.29116E-001	3.57740E+000	9	...........
	20	0.28	6.17926E-001	-9.84259E-005	0.00000E+000	-6.08199E-005	-5.99601E-002	6.18137E-001	3.57740E+000	9	...........
	21	0.293333	6.06716E-001	-9.91114E-005	0.00000E+000	-6.01324E-005	-5.99601E-002	6.06955E-001	3.57740E+000	9	...........
	22	0.306667	5.95399E-001	-9.91093E-005	0.00000E+000	-5.90096E-005	-5.99601E-002	5.95622E-001	3.57740E+000	9	...........
	23	0.32	5.83825E-001	-9.86165E-005	0.00000E+000	-5.75748E-005	-5.99601E-002	5.84067E-001	3.57740E+000	9	...........
	24	0.333333	5.72070E-001	-9.81383E-005	0.00000E+000	-5.61420E-005	-5.99601E-002	5.72282E-001	3.57740E+000	9	...........
	25	0.346667	5.60071E-001	-9.73412E-005	0.00000E+000	-5.45180E-005	-5.99601E-002	5.60311E-001	3.57740E+000	9	...........
	26	0.36	5.47896E-001	-9.79643E-005	0.00000E+000	-5.36743E-005	-5.99601E-002	5.48111E-001	3.57740E+000	9	...........
	27	0.373333	5.35508E-001	-9.92583E-005	0.00000E+000	-5.31536E-005	-5.99601E-002	5.35732E-001	3.57740E+000	9	...........
	28	0.386667	5.22971E-001	-9.79747E-005	0.00000E+000	-5.12379E-005	-5.99601E-002	5.23184E-001	3.57740E+000	9	...........
	29	0.4	5.10230E-001	-9.77507E-005	0.00000E+000	-4.98753E-005	-5.99601E-002	5.10434E-001	3.57740E+000	9	...........
	30	0.413333	4.97351E-001	-9.95625E-005	0.00000E+000	-4.95176E-005	-5.99601E-002	4.97556E-001	3.57740E+000	9	...........
	31	0.426667	4.84508E-001	-9.94469E-005	0.00000E+000	-4.81828E-005	-5.99601E-002	4.84628E-001	3.57740E+000	9	...........
	32	0.44	4.71545E-001	-9.91885E-005	0.00000E+000	-4.67718E-005	-5.99601E-002	4.71649E-001	3.57740E+000	9	...........
	33	0.453333	4.58342E-001	-9.90895E-005	0.00000E+000	-4.54169E-005	-5.99601E-002	4.58439E-001	3.57740E+000	9	...........
	34	0.466667	4.45058E-001	-9.85102E-005	0.00000E+000	-4.38427E-005	-5.99601E-002	4.45152E-001	3.57740E+000	9	...........
	35	0.48	4.31690E-001	-9.88228E-005	0.00000E+000	-4.26608E-005	-5.99601E-002	4.31783E-001	3.57740E+000	9	...........
	36	0.493333	4.18267E-001	-9.87978E-005	0.00000E+000	-4.13238E-005	-5.99601E-002	4.18354E-001	3.57740E+000	9	...........
	37	0.506667	4.04812E-001	-9.86061E-005	0.00000E+000	-3.99169E-005	-5.99601E-002	4.04897E-001	3.57740E+000	9	...........
	38	0.52	3.91325E-001	-9.79810E-005	0.00000E+000	-3.83424E-005	-5.99601E-002	3.91404E-001	3.57740E+000	9	...........
	39	0.533333	3.77816E-001	-9.95188E-005	0.00000E+000	-3.75997E-005	-5.99601E-002	3.77888E-001	3.57740E+000	9	...........
	40	0.546667	3.64304E-001	-9.88166E-005	0.00000E+000	-3.59993E-005	-5.99601E-002	3.64379E-001	3.57740E+000	9	...........
	41	0.56	3.50805E-001	-9.94959E-005	0.00000E+000	-3.49036E-005	-5.99601E-002	3.50875E-001	3.57740E+000	9	...........
	42	0.573333	3.37313E-001	-9.77903E-005	0.00000E+000	-3.29859E-005	-5.99601E-002	3.37382E-001	3.57740E+000	9	...........
	43	0.586667	3.23857E-001	-9.95313E-005	0.00000E+000	-3.22339E-005	-5.99601E-002	3.23914E-001	3.57740E+000	9	...........
	44	0.6	3.10443E-001	-9.88166E-005	0.00000E+000	-3.06769E-005	-5.99601E-002	3.10502E-001	3.57740E+000	9	...........
	45	0.613333	2.97079E-001	-9.82519E-005	0.00000E+000	-2.91886E-005	-5.99601E-002	2.97138E-001	3.57740E+000	9	...........
	46	0.626667	2.83769E-001	-9.84165E-005	0.00000E+000	-2.79275E-005	-5.99601E-002	2.83823E-001	3.57740E+000	9	...........
	47	0.64	2.70510E-001	-9.86321E-005	0.00000E+000	-2.66809E-005	-5.99601E-002	2.70562E-001	3.57740E+000	9	...........
	48	0.653333	2.57325E-001	-9.81477E-005	0.00000E+000	-2.52559E-005	-5.99601E-002	2.57376E-001	3.57740E+000	9	...........
	49	0.666667	2.44219E-001	-9.83144E-005	0.00000E+000	-2.40102E-005	-5.99601E-002	2.44261E-001	3.57740E+000	9	...........
	50	0.68	2.31179E-001	-9.80278E-005	0.00000E+000	-2.26619E-005	-5.99601E-002	2.31219E-001	3.57740E+000	9	...........
	51	0.693333	2.18212E-001	-9.87270E-005	0.00000E+000	-2.15434E-005	-5.99601E-002	2.18251E-001	3.57740E+000	9	...........
	52	0.706667	2.05315E-001	-9.84269E-005	0.00000E+000	-2.02085E-005	-5.99601E-002	2.05354E-001	3.57740E+000	9	...........
	53	0.72	1.92496E-001	-9.79591E-005	0.00000E+000	-1.88568E-005	-5.99601E-002	1.92536E-001	3.57740E+000	9	...........
	54	0.733333	1.79755E-001	-9.80716E-005	0.00000E+000	-1.76289E-005	-5.99601E-002	1.79795E-001	3.57740E+000	9	...........
	55	0.746667	1.67100E-001	-9.96751E-005	0.00000E+000	-1.66557E-005	-5.99601E-002	1.67133E-001	3.57766E+000	9	...........
	56	0.76	1.54535E-001	-9.79997E-005	0.00000E+000	-1.51444E-005	-5.99601E-002	1.54564E-001	3.57770E+000	9	...........
	57	0.773333	1.42035E-001	-9.83237E-005	0.00000E+000	-1.39654E-005	-5.99601E-002	1.42061E-001	3.57770E+000	9	...........
	58	0.786667	1.29623E-001	-9.68224E-005	0.00000E+000	-1.25504E-005	-5.99601E-002	1.29651E-001	3.57770E+000	9	...........
	59	0.8	1.17290E-001	-9.99303E-005	0.00000E+000	-1.17208E-005	-5.99601E-002	1.17315E-001	3.57770E+000	9	...........
	60	0.813333	1.05055E-001	-9.97918E-005	0.00000E+000	-1.04836E-005	-5.99601E-002	1.05071E-001	3.57770E+000	9	...........
	61	0.826667	9.29189E-002	-9.83779E-005	0.00000E+000	-9.14117E-006	-5.99601E-002	9.29356E-002	3.57770E+000	9	...........
	62	0.84	8.08908E-002	-9.85655E-005	0.00000E+000	-7.97304E-006	-5.99601E-002	8.09039E-002	3.57770E+000	9	...........
	63	0.853333	6.89888E-002	-9.94167E-005	0.00000E+000	-6.85864E-006	-5.99601E-002	6.89991E-002	3.57770E+000	9	...........
	64	0.866667	5.72045E-002	-9.82310E-005	0.00000E+000	-5.61926E-006	-5.99601E-002	5.72144E-002	3.57770E+000	9	...........
	65	0.88	4.55787E-002	-9.88478E-005	0.00000E+000	-4.50536E-006	-5.99601E-002	4.55871E-002	3.57770E+000	9	...........
	66	0.893333	3.40986E-002	-9.98897E-005	0.00000E+000	-3.40610E-006	-5.99601E-002	3.40985E-002	3.57770E+000	9	...........
	67	0.906667	2.27642E-002	-9.97324E-005	0.00000E+000	-2.27033E-006	-5.99601E-002	2.27558E-002	3.57770E+000	9	...........
	68	0.92	1.15978E-002	-9.95417E-005	0.00000E+000	-1.15447E-006	-5.99601E-002	1.15844E-002	3.57770E+000	9	...........
	69	0.928333	2.66791E-003	-9.64048E-005	0.00000E+000	-2.57199E-007	-5.99601E-002	2.64106E-003	3.57770E+000	9	...........
STARTTIMEOFFSET	QUANT	1929.196	Start Time Offset (s)
