EXPLAIN
TAG	PWR800_DISCHARGE
TITLE	LABEL	PWR Cyclic Charge Discharge (Cell) - Discharge Step	Test &Identifier
DATE	LABEL	12-7-2017	Date
TIME	LABEL	16:43:07	Time
NOTES	NOTES	2	&Notes...
	supercap test cell
	6M KOH
PSTAT	PSTAT	IFC5000-01520	Potentiostat
CAPACITY	QUANT	1.00000E-003	Capacity (A-hr)
CELLTYPE	SELECTOR	1	&Cell Type
WORKINGCONNECTION	SELECTOR	0	&Working Lead
MAXDISCHARGETIME	VARIABLEANDUNITS	1.00000E+002	s	1.00000E+002	second(s)	Max &Discharge Time
DISCHARGEMODE	MULTIPARAM	0	1.00000E-004	&Discharge Mode	Constant Current	Amp(s)
SAMPLETIME	QUANT	1.00000E-002	Sa&mple Period (s)
DISCHARGESTOPAT1	MULTIPARAM	3	0.00000E+000	Discharge Stop At &1	Voltage < Limit	V
DISCHARGESTOPAT2	MULTIPARAM	0	0.00000E+000	Discharge Stop At &2	None	N/A
AESBHCSELECTOR	TOGGLE	F	Save Both Half Cells
IRCOMP	TOGGLE	F	IR &Measure
EOC	QUANT	0	Open Circuit (V)
SEQUENCER	TOGGLE	TRUE	Run as Sequence
PSTATMODEL	IQUANT	53	Pstat Model
PSTATSECTION	LABEL	IFC5000-01520	Pstat Section
PSTATSERIALNO	LABEL	01520	Pstat Serial Number
CTRLMODE	IQUANT	0	Control Mode
ELECTROMETER	IQUANT	1	RE=0 or CS=1
IESTAB	IQUANT	0	I/E Stability
CASPEED	IQUANT	4	Control Amp Speed
CONVENTION	IQUANT	1	Current Convention
ICHRANGE	IQUANT	2	Ich Range
ICHRANGEMODE	TOGGLE	T	Ich Auto Range
ICHOFFSETENABLE	TOGGLE	F	Ich Offset Enable
ICHOFFSET	QUANT	0	Ich Offset (V)
ICHFILTER	IQUANT	1	Ich Filter
VCHRANGE	IQUANT	2	Vch Range
VCHRANGEMODE	TOGGLE	T	Vch Auto Range
VCHOFFSETENABLE	TOGGLE	F	Vch Offset Enable
VCHOFFSET	QUANT	0	Vch Offset (V)
VCHFILTER	IQUANT	1	Vch Filter
IERANGELOWERLIMIT	IQUANT	9	I/E Range Lower Limit
IERANGEMODE	TOGGLE	F	I/E AutoRange
IERANGE	IQUANT	9	I/E Range
ACHSELECT	IQUANT	1	Ach Select
ACHRANGE	IQUANT	2	Ach Range
ACHOFFSETENABLE	TOGGLE	F	Ach Offset Enable
ACHOFFSET	QUANT	0	Ach Offset (V)
ACHFILTER	IQUANT	1	Ach Filter
CABLEID	IQUANT	14	Cable ID
DCCALDATE	LABEL	5-7-2017	DC Calibration Date
ACCALDATE	LABEL	12/3/2015	AC Calibration Date
FRAMEWORKVERSION	QUANT	7.01	Framework Version
INSTRUMENTVERSION	LABEL	4.00	Instrument Version
CURVE	TABLE	71
	Pt	T	Vf	Im	Vu	Pwr	Sig	Ach	Temp	IERange	Over
	#	s	V	A	V	W	V	V	deg C	#	bits
	0	0.013333	8.45275E-001	-9.76330E-005	0.00000E+000	-8.25267E-005	-5.99601E-002	8.45549E-001	3.57690E+000	9	...........
	1	0.026667	8.32141E-001	-9.94823E-005	0.00000E+000	-8.27834E-005	-5.99601E-002	8.32425E-001	3.57690E+000	9	...........
	2	0.04	8.19591E-001	-9.93604E-005	0.00000E+000	-8.14349E-005	-5.99601E-002	8.19853E-001	3.57690E+000	9	...........
	3	0.053333	8.07416E-001	-9.89708E-005	0.00000E+000	-7.99106E-005	-5.99601E-002	8.07653E-001	3.57690E+000	9	...........
	4	0.066667	7.95519E-001	-9.77205E-005	0.00000E+000	-7.77385E-005	-5.99601E-002	7.95748E-001	3.57690E+000	9	...........
	5	0.08	7.83801E-001	-9.78674E-005	0.00000E+000	-7.67086E-005	-5.99601E-002	7.84025E-001	3.57690E+000	9	...........
	6	0.093333	7.72234E-001	-9.86363E-005	0.00000E+000	-7.61703E-005	-5.99601E-002	7.72491E-001	3.57690E+000	9	...........
	7	0.106667	7.60818E-001	-9.78872E-005	0.00000E+000	-7.44743E-005	-5.99601E-002	7.61039E-001	3.57690E+000	9	...........
	8	0.12	7.49492E-001	-9.93104E-005	0.00000E+000	-7.44324E-005	-5.99601E-002	7.49738E-001	3.57690E+000	9	...........
	9	0.133333	7.38243E-001	-1.00130E-004	0.00000E+000	-7.39205E-005	-5.99601E-002	7.38495E-001	3.57690E+000	9	...........
	10	0.146667	7.27159E-001	-9.91916E-005	0.00000E+000	-7.21281E-005	-5.99601E-002	7.27398E-001	3.57690E+000	9	...........
	11	0.16	7.16087E-001	-9.88103E-005	0.00000E+000	-7.07568E-005	-5.99601E-002	7.16356E-001	3.57690E+000	9	...........
	12	0.173333	7.05128E-001	-9.97199E-005	0.00000E+000	-7.03153E-005	-5.99601E-002	7.05408E-001	3.57690E+000	9	...........
	13	0.186667	6.94259E-001	-9.84019E-005	0.00000E+000	-6.83164E-005	-5.99601E-002	6.94523E-001	3.57690E+000	9	...........
	14	0.2	6.83447E-001	-9.85154E-005	0.00000E+000	-6.73300E-005	-5.99601E-002	6.83742E-001	3.57690E+000	9	...........
	15	0.213333	6.72746E-001	-9.90614E-005	0.00000E+000	-6.66432E-005	-5.99601E-002	6.72988E-001	3.57690E+000	9	...........
	16	0.226667	6.62001E-001	-9.96855E-005	0.00000E+000	-6.59919E-005	-5.99601E-002	6.62269E-001	3.57690E+000	9	...........
	17	0.24	6.51308E-001	-9.79424E-005	0.00000E+000	-6.37907E-005	-5.99601E-002	6.51567E-001	3.57690E+000	9	...........
	18	0.253333	6.40593E-001	-9.96667E-005	0.00000E+000	-6.38458E-005	-5.99601E-002	6.40824E-001	3.57690E+000	9	...........
	19	0.266667	6.29748E-001	-9.86509E-005	0.00000E+000	-6.21252E-005	-5.99601E-002	6.30013E-001	3.57690E+000	9	...........
	20	0.28	6.18826E-001	-9.90718E-005	0.00000E+000	-6.13083E-005	-5.99601E-002	6.19036E-001	3.57690E+000	9	...........
	21	0.293333	6.07622E-001	-9.62504E-005	0.00000E+000	-5.84839E-005	-5.99601E-002	6.07882E-001	3.57690E+000	9	...........
	22	0.306667	5.96313E-001	-9.88051E-005	0.00000E+000	-5.89188E-005	-5.99601E-002	5.96553E-001	3.57690E+000	9	...........
	23	0.32	5.84771E-001	-9.79966E-005	0.00000E+000	-5.73056E-005	-5.99601E-002	5.85015E-001	3.57690E+000	9	...........
	24	0.333333	5.73041E-001	-9.97240E-005	0.00000E+000	-5.71459E-005	-5.99601E-002	5.73268E-001	3.57690E+000	9	...........
	25	0.346667	5.61061E-001	-9.96969E-005	0.00000E+000	-5.59361E-005	-5.99601E-002	5.61290E-001	3.57690E+000	9	...........
	26	0.36	5.48934E-001	-9.91291E-005	0.00000E+000	-5.44154E-005	-5.99601E-002	5.49162E-001	3.57690E+000	9	...........
	27	0.373333	5.36616E-001	-9.95000E-005	0.00000E+000	-5.33933E-005	-5.99601E-002	5.36839E-001	3.57690E+000	9	...........
	28	0.386667	5.24120E-001	-9.73975E-005	0.00000E+000	-5.10480E-005	-5.99601E-002	5.24340E-001	3.57690E+000	9	...........
	29	0.4	5.11468E-001	-9.78799E-005	0.00000E+000	-5.00624E-005	-5.99601E-002	5.11706E-001	3.57690E+000	9	...........
	30	0.413333	4.98684E-001	-9.79851E-005	0.00000E+000	-4.88637E-005	-5.99601E-002	4.98921E-001	3.57690E+000	9	...........
	31	0.426667	4.85934E-001	-9.85446E-005	0.00000E+000	-4.78862E-005	-5.99601E-002	4.86084E-001	3.57690E+000	9	...........
	32	0.44	4.73136E-001	-9.96199E-005	0.00000E+000	-4.71337E-005	-5.99601E-002	4.73240E-001	3.57690E+000	9	...........
	33	0.453333	4.60053E-001	-9.83310E-005	0.00000E+000	-4.52375E-005	-5.99601E-002	4.60154E-001	3.57690E+000	9	...........
	34	0.466667	4.46898E-001	-9.84269E-005	0.00000E+000	-4.39868E-005	-5.99601E-002	4.47001E-001	3.57690E+000	9	...........
	35	0.48	4.33683E-001	-9.79497E-005	0.00000E+000	-4.24791E-005	-5.99601E-002	4.33781E-001	3.57690E+000	9	...........
	36	0.493333	4.20408E-001	-9.92927E-005	0.00000E+000	-4.17434E-005	-5.99601E-002	4.20498E-001	3.57690E+000	9	...........
	37	0.506667	4.07109E-001	-9.82633E-005	0.00000E+000	-4.00039E-005	-5.99601E-002	4.07198E-001	3.57690E+000	9	...........
	38	0.52	3.93782E-001	-9.67026E-005	0.00000E+000	-3.80797E-005	-5.99601E-002	3.93864E-001	3.57690E+000	9	...........
	39	0.533333	3.80441E-001	-9.81914E-005	0.00000E+000	-3.73560E-005	-5.99601E-002	3.80519E-001	3.57690E+000	9	...........
	40	0.546667	3.67100E-001	-9.76840E-005	0.00000E+000	-3.58598E-005	-5.99601E-002	3.67184E-001	3.57690E+000	9	...........
	41	0.56	3.53773E-001	-9.81883E-005	0.00000E+000	-3.47363E-005	-5.99601E-002	3.53848E-001	3.57690E+000	9	...........
	42	0.573333	3.40472E-001	-9.86165E-005	0.00000E+000	-3.35761E-005	-5.99601E-002	3.40542E-001	3.57690E+000	9	...........
	43	0.586667	3.27195E-001	-9.80497E-005	0.00000E+000	-3.20814E-005	-5.99601E-002	3.27264E-001	3.57690E+000	9	...........
	44	0.6	3.13953E-001	-9.80320E-005	0.00000E+000	-3.07774E-005	-5.99601E-002	3.14024E-001	3.57690E+000	9	...........
	45	0.613333	3.00762E-001	-9.93083E-005	0.00000E+000	-2.98681E-005	-5.99601E-002	3.00822E-001	3.57690E+000	9	...........
	46	0.626667	2.87611E-001	-9.86051E-005	0.00000E+000	-2.83599E-005	-5.99601E-002	2.87674E-001	3.57690E+000	9	...........
	47	0.64	2.74520E-001	-9.73590E-005	0.00000E+000	-2.67270E-005	-5.99601E-002	2.74584E-001	3.57690E+000	9	...........
	48	0.653333	2.61497E-001	-9.78549E-005	0.00000E+000	-2.55887E-005	-5.99601E-002	2.61558E-001	3.57690E+000	9	...........
	49	0.666667	2.48544E-001	-9.82904E-005	0.00000E+000	-2.44295E-005	-5.99601E-002	2.48600E-001	3.57690E+000	9	...........
	50	0.68	2.35661E-001	-9.82154E-005	0.00000E+000	-2.31456E-005	-5.99601E-002	2.35705E-001	3.57790E+000	9	...........
	51	0.693333	2.22832E-001	-9.73069E-005	0.00000E+000	-2.16831E-005	-5.99601E-002	2.22876E-001	3.57790E+000	9	...........
	52	0.706667	2.10072E-001	-9.95761E-005	0.00000E+000	-2.09182E-005	-5.99601E-002	2.10113E-001	3.57790E+000	9	...........
	53	0.72	1.97388E-001	-9.84644E-005	0.00000E+000	-1.94357E-005	-5.99601E-002	1.97432E-001	3.57790E+000	9	...........
	54	0.733333	1.84777E-001	-9.85998E-005	0.00000E+000	-1.82190E-005	-5.99601E-002	1.84817E-001	3.57790E+000	9	...........
	55	0.746667	1.72226E-001	-9.89114E-005	0.00000E+000	-1.70351E-005	-5.99601E-002	1.72259E-001	3.57790E+000	9	...........
	56	0.76	1.59747E-001	-9.94531E-005	0.00000E+000	-1.58874E-005	-5.99601E-002	1.59785E-001	3.57790E+000	9	...........
	57	0.773333	1.47342E-001	-9.80424E-005	0.00000E+000	-1.44458E-005	-5.99601E-002	1.47370E-001	3.57790E+000	9	...........
	58	0.786667	1.35001E-001	-9.82310E-005	0.00000E+000	-1.32613E-005	-5.99601E-002	1.35030E-001	3.57790E+000	9	...........
	59	0.8	1.22735E-001	-9.90176E-005	0.00000E+000	-1.21529E-005	-5.99601E-002	1.22764E-001	3.57790E+000	9	...........
	60	0.813333	1.10549E-001	-9.81112E-005	0.00000E+000	-1.08461E-005	-5.99601E-002	1.10574E-001	3.57790E+000	9	...........
	61	0.826667	9.84492E-002	-9.80529E-005	0.00000E+000	-9.65322E-006	-5.99601E-002	9.84668E-002	3.57790E+000	9	...........
	62	0.84	8.64395E-002	-9.86176E-005	0.00000E+000	-8.52445E-006	-5.99601E-002	8.64595E-002	3.57790E+000	9	...........
	63	0.853333	7.45518E-002	-9.80612E-005	0.00000E+000	-7.31064E-006	-5.99601E-002	7.45645E-002	3.57790E+000	9	...........
	64	0.866667	6.27745E-002	-9.81633E-005	0.00000E+000	-6.16215E-006	-5.99601E-002	6.27816E-002	3.57790E+000	9	...........
	65	0.88	5.11296E-002	-9.70141E-005	0.00000E+000	-4.96029E-006	-5.99601E-002	5.11349E-002	3.57790E+000	9	...........
	66	0.893333	3.96401E-002	-9.98897E-005	0.00000E+000	-3.95964E-006	-5.99601E-002	3.96424E-002	3.57790E+000	9	...........
	67	0.906667	2.82669E-002	-9.91250E-005	0.00000E+000	-2.80196E-006	-5.99601E-002	2.82691E-002	3.57790E+000	9	...........
	68	0.92	1.70616E-002	-9.95490E-005	0.00000E+000	-1.69847E-006	-5.99601E-002	1.70548E-002	3.57790E+000	9	...........
	69	0.933333	6.01150E-003	-9.73652E-005	0.00000E+000	-5.85311E-007	-5.99601E-002	5.99926E-003	3.57790E+000	9	...........
	70	0.935	-1.38187E-004	-1.00227E-004	0.00000E+000	1.38501E-008	-5.99601E-002	-1.49959E-004	3.57790E+000	9	...........
STARTTIMEOFFSET	QUANT	1410.89	Start Time Offset (s)
