EXPLAIN
TAG	PWR800_DISCHARGE
TITLE	LABEL	PWR Cyclic Charge Discharge (Cell) - Discharge Step	Test &Identifier
DATE	LABEL	12-7-2017	Date
TIME	LABEL	16:43:27	Time
NOTES	NOTES	2	&Notes...
	supercap test cell
	6M KOH
PSTAT	PSTAT	IFC5000-01520	Potentiostat
CAPACITY	QUANT	1.00000E-003	Capacity (A-hr)
CELLTYPE	SELECTOR	1	&Cell Type
WORKINGCONNECTION	SELECTOR	0	&Working Lead
MAXDISCHARGETIME	VARIABLEANDUNITS	1.00000E+002	s	1.00000E+002	second(s)	Max &Discharge Time
DISCHARGEMODE	MULTIPARAM	0	1.00000E-004	&Discharge Mode	Constant Current	Amp(s)
SAMPLETIME	QUANT	1.00000E-002	Sa&mple Period (s)
DISCHARGESTOPAT1	MULTIPARAM	3	0.00000E+000	Discharge Stop At &1	Voltage < Limit	V
DISCHARGESTOPAT2	MULTIPARAM	0	0.00000E+000	Discharge Stop At &2	None	N/A
AESBHCSELECTOR	TOGGLE	F	Save Both Half Cells
IRCOMP	TOGGLE	F	IR &Measure
EOC	QUANT	0	Open Circuit (V)
SEQUENCER	TOGGLE	TRUE	Run as Sequence
PSTATMODEL	IQUANT	53	Pstat Model
PSTATSECTION	LABEL	IFC5000-01520	Pstat Section
PSTATSERIALNO	LABEL	01520	Pstat Serial Number
CTRLMODE	IQUANT	0	Control Mode
ELECTROMETER	IQUANT	1	RE=0 or CS=1
IESTAB	IQUANT	0	I/E Stability
CASPEED	IQUANT	4	Control Amp Speed
CONVENTION	IQUANT	1	Current Convention
ICHRANGE	IQUANT	2	Ich Range
ICHRANGEMODE	TOGGLE	T	Ich Auto Range
ICHOFFSETENABLE	TOGGLE	F	Ich Offset Enable
ICHOFFSET	QUANT	0	Ich Offset (V)
ICHFILTER	IQUANT	1	Ich Filter
VCHRANGE	IQUANT	2	Vch Range
VCHRANGEMODE	TOGGLE	T	Vch Auto Range
VCHOFFSETENABLE	TOGGLE	F	Vch Offset Enable
VCHOFFSET	QUANT	0	Vch Offset (V)
VCHFILTER	IQUANT	1	Vch Filter
IERANGELOWERLIMIT	IQUANT	9	I/E Range Lower Limit
IERANGEMODE	TOGGLE	F	I/E AutoRange
IERANGE	IQUANT	9	I/E Range
ACHSELECT	IQUANT	1	Ach Select
ACHRANGE	IQUANT	2	Ach Range
ACHOFFSETENABLE	TOGGLE	F	Ach Offset Enable
ACHOFFSET	QUANT	0	Ach Offset (V)
ACHFILTER	IQUANT	1	Ach Filter
CABLEID	IQUANT	14	Cable ID
DCCALDATE	LABEL	5-7-2017	DC Calibration Date
ACCALDATE	LABEL	12/3/2015	AC Calibration Date
FRAMEWORKVERSION	QUANT	7.01	Framework Version
INSTRUMENTVERSION	LABEL	4.00	Instrument Version
CURVE	TABLE	71
	Pt	T	Vf	Im	Vu	Pwr	Sig	Ach	Temp	IERange	Over
	#	s	V	A	V	W	V	V	deg C	#	bits
	0	0.013333	8.45853E-001	-9.89718E-005	0.00000E+000	-8.37156E-005	-5.99601E-002	8.46150E-001	3.57700E+000	9	...........
	1	0.026667	8.32745E-001	-9.91552E-005	0.00000E+000	-8.25710E-005	-5.99601E-002	8.33020E-001	3.57700E+000	9	...........
	2	0.04	8.20203E-001	-9.93031E-005	0.00000E+000	-8.14487E-005	-5.99601E-002	8.20480E-001	3.57700E+000	9	...........
	3	0.053333	8.08053E-001	-9.84634E-005	0.00000E+000	-7.95636E-005	-5.99601E-002	8.08285E-001	3.57700E+000	9	...........
	4	0.066667	7.96144E-001	-9.96636E-005	0.00000E+000	-7.93466E-005	-5.99601E-002	7.96390E-001	3.57700E+000	9	...........
	5	0.08	7.84453E-001	-9.85936E-005	0.00000E+000	-7.73420E-005	-5.99601E-002	7.84659E-001	3.57700E+000	9	...........
	6	0.093333	7.72898E-001	-9.71714E-005	0.00000E+000	-7.51036E-005	-5.99601E-002	7.73141E-001	3.57700E+000	9	...........
	7	0.106667	7.61489E-001	-9.79518E-005	0.00000E+000	-7.45892E-005	-5.99601E-002	7.61720E-001	3.57700E+000	9	...........
	8	0.12	7.50171E-001	-9.97303E-005	0.00000E+000	-7.48148E-005	-5.99601E-002	7.50411E-001	3.57700E+000	9	...........
	9	0.133333	7.38948E-001	-9.74371E-005	0.00000E+000	-7.20010E-005	-5.99601E-002	7.39198E-001	3.57700E+000	9	...........
	10	0.146667	7.27832E-001	-9.96678E-005	0.00000E+000	-7.25414E-005	-5.99601E-002	7.28084E-001	3.57700E+000	9	...........
	11	0.16	7.16789E-001	-9.84019E-005	0.00000E+000	-7.05334E-005	-5.99601E-002	7.17043E-001	3.57700E+000	9	...........
	12	0.173333	7.05837E-001	-9.80518E-005	0.00000E+000	-6.92086E-005	-5.99601E-002	7.06114E-001	3.57650E+000	9	...........
	13	0.186667	6.94966E-001	-9.83446E-005	0.00000E+000	-6.83461E-005	-5.99601E-002	6.95235E-001	3.57650E+000	9	...........
	14	0.2	6.84169E-001	-9.89301E-005	0.00000E+000	-6.76850E-005	-5.99601E-002	6.84432E-001	3.57650E+000	9	...........
	15	0.213333	6.73447E-001	-9.88082E-005	0.00000E+000	-6.65421E-005	-5.99601E-002	6.73695E-001	3.57650E+000	9	...........
	16	0.226667	6.62749E-001	-9.82560E-005	0.00000E+000	-6.51191E-005	-5.99601E-002	6.62987E-001	3.57650E+000	9	...........
	17	0.24	6.52076E-001	-9.84404E-005	0.00000E+000	-6.41907E-005	-5.99601E-002	6.52309E-001	3.57650E+000	9	...........
	18	0.253333	6.41377E-001	-9.87582E-005	0.00000E+000	-6.33413E-005	-5.99601E-002	6.41596E-001	3.57650E+000	9	...........
	19	0.266667	6.30584E-001	-9.82914E-005	0.00000E+000	-6.19811E-005	-5.99601E-002	6.30808E-001	3.57650E+000	9	...........
	20	0.28	6.19713E-001	-9.87488E-005	0.00000E+000	-6.11959E-005	-5.99601E-002	6.19906E-001	3.57650E+000	9	...........
	21	0.293333	6.08561E-001	-9.88489E-005	0.00000E+000	-6.01556E-005	-5.99601E-002	6.08805E-001	3.57650E+000	9	...........
	22	0.306667	5.97303E-001	-9.79466E-005	0.00000E+000	-5.85038E-005	-5.99601E-002	5.97568E-001	3.57650E+000	9	...........
	23	0.32	5.85838E-001	-9.75225E-005	0.00000E+000	-5.71324E-005	-5.99601E-002	5.86090E-001	3.57650E+000	9	...........
	24	0.333333	5.74156E-001	-9.80299E-005	0.00000E+000	-5.62845E-005	-5.99601E-002	5.74405E-001	3.57650E+000	9	...........
	25	0.346667	5.62266E-001	-9.97918E-005	0.00000E+000	-5.61095E-005	-5.99601E-002	5.62512E-001	3.57650E+000	9	...........
	26	0.36	5.50161E-001	-9.88718E-005	0.00000E+000	-5.43954E-005	-5.99601E-002	5.50405E-001	3.57650E+000	9	...........
	27	0.373333	5.37923E-001	-9.92000E-005	0.00000E+000	-5.33619E-005	-5.99601E-002	5.38126E-001	3.57650E+000	9	...........
	28	0.386667	5.25471E-001	-9.80195E-005	0.00000E+000	-5.15064E-005	-5.99601E-002	5.25686E-001	3.57650E+000	9	...........
	29	0.4	5.12876E-001	-9.75486E-005	0.00000E+000	-5.00303E-005	-5.99601E-002	5.13099E-001	3.57650E+000	9	...........
	30	0.413333	5.00120E-001	-9.74652E-005	0.00000E+000	-4.87443E-005	-5.99601E-002	5.00391E-001	3.57650E+000	9	...........
	31	0.426667	4.87375E-001	-9.77643E-005	0.00000E+000	-4.76478E-005	-5.99601E-002	4.87580E-001	3.57650E+000	9	...........
	32	0.44	4.74646E-001	-9.94136E-005	0.00000E+000	-4.71862E-005	-5.99601E-002	4.74747E-001	3.57650E+000	9	...........
	33	0.453333	4.61604E-001	-9.91718E-005	0.00000E+000	-4.57781E-005	-5.99601E-002	4.61702E-001	3.57650E+000	9	...........
	34	0.466667	4.48479E-001	-9.90239E-005	0.00000E+000	-4.44101E-005	-5.99601E-002	4.48577E-001	3.57650E+000	9	...........
	35	0.48	4.35284E-001	-9.97334E-005	0.00000E+000	-4.34123E-005	-5.99601E-002	4.35380E-001	3.57650E+000	9	...........
	36	0.493333	4.22048E-001	-9.93948E-005	0.00000E+000	-4.19494E-005	-5.99601E-002	4.22139E-001	3.57650E+000	9	...........
	37	0.506667	4.08758E-001	-9.96615E-005	0.00000E+000	-4.07375E-005	-5.99601E-002	4.08843E-001	3.57650E+000	9	...........
	38	0.52	3.95452E-001	-9.91854E-005	0.00000E+000	-3.92231E-005	-5.99601E-002	3.95532E-001	3.57650E+000	9	...........
	39	0.533333	3.82129E-001	-9.94625E-005	0.00000E+000	-3.80075E-005	-5.99601E-002	3.82207E-001	3.57650E+000	9	...........
	40	0.546667	3.68810E-001	-9.79778E-005	0.00000E+000	-3.61352E-005	-5.99601E-002	3.68888E-001	3.57650E+000	9	...........
	41	0.56	3.55481E-001	-9.72777E-005	0.00000E+000	-3.45803E-005	-5.99601E-002	3.55550E-001	3.57650E+000	9	...........
	42	0.573333	3.42172E-001	-9.93688E-005	0.00000E+000	-3.40012E-005	-5.99601E-002	3.42243E-001	3.57650E+000	9	...........
	43	0.586667	3.28902E-001	-9.92000E-005	0.00000E+000	-3.26271E-005	-5.99601E-002	3.28970E-001	3.57650E+000	9	...........
	44	0.6	3.15678E-001	-9.81789E-005	0.00000E+000	-3.09929E-005	-5.99601E-002	3.15742E-001	3.57650E+000	9	...........
	45	0.613333	3.02485E-001	-9.82852E-005	0.00000E+000	-2.97298E-005	-5.99601E-002	3.02547E-001	3.57650E+000	9	...........
	46	0.626667	2.89355E-001	-9.86498E-005	0.00000E+000	-2.85448E-005	-5.99601E-002	2.89416E-001	3.57650E+000	9	...........
	47	0.64	2.76271E-001	-9.83633E-005	0.00000E+000	-2.71750E-005	-5.99601E-002	2.76333E-001	3.57650E+000	9	...........
	48	0.653333	2.63252E-001	-9.93917E-005	0.00000E+000	-2.61651E-005	-5.99601E-002	2.63312E-001	3.57650E+000	9	...........
	49	0.666667	2.50296E-001	-9.86988E-005	0.00000E+000	-2.47039E-005	-5.99601E-002	2.50345E-001	3.57650E+000	9	...........
	50	0.68	2.37408E-001	-9.80487E-005	0.00000E+000	-2.32776E-005	-5.99601E-002	2.37453E-001	3.57650E+000	9	...........
	51	0.693333	2.24590E-001	-9.91208E-005	0.00000E+000	-2.22616E-005	-5.99601E-002	2.24636E-001	3.57650E+000	9	...........
	52	0.706667	2.11854E-001	-9.86009E-005	0.00000E+000	-2.08890E-005	-5.99601E-002	2.11894E-001	3.57650E+000	9	...........
	53	0.72	1.99183E-001	-9.83092E-005	0.00000E+000	-1.95815E-005	-5.99601E-002	1.99219E-001	3.57650E+000	9	...........
	54	0.733333	1.86574E-001	-9.82748E-005	0.00000E+000	-1.83355E-005	-5.99601E-002	1.86613E-001	3.57650E+000	9	...........
	55	0.746667	1.74045E-001	-9.87540E-005	0.00000E+000	-1.71876E-005	-5.99601E-002	1.74074E-001	3.57650E+000	9	...........
	56	0.76	1.61587E-001	-9.85728E-005	0.00000E+000	-1.59280E-005	-5.99601E-002	1.61615E-001	3.57650E+000	9	...........
	57	0.773333	1.49197E-001	-9.97824E-005	0.00000E+000	-1.48872E-005	-5.99601E-002	1.49221E-001	3.57650E+000	9	...........
	58	0.786667	1.36882E-001	-9.72589E-005	0.00000E+000	-1.33130E-005	-5.99601E-002	1.36909E-001	3.57650E+000	9	...........
	59	0.8	1.24639E-001	-9.88884E-005	0.00000E+000	-1.23254E-005	-5.99601E-002	1.24658E-001	3.57650E+000	9	...........
	60	0.813333	1.12478E-001	-9.85425E-005	0.00000E+000	-1.10838E-005	-5.99601E-002	1.12494E-001	3.57650E+000	9	...........
	61	0.826667	1.00388E-001	-9.97865E-005	0.00000E+000	-1.00174E-005	-5.99601E-002	1.00413E-001	3.57650E+000	9	...........
	62	0.84	8.84113E-002	-9.96761E-005	0.00000E+000	-8.81249E-006	-5.99601E-002	8.84242E-002	3.57650E+000	9	...........
	63	0.853333	7.65225E-002	-9.94271E-005	0.00000E+000	-7.60841E-006	-5.99601E-002	7.65381E-002	3.57650E+000	9	...........
	64	0.866667	6.47647E-002	-9.81352E-005	0.00000E+000	-6.35570E-006	-5.99601E-002	6.47722E-002	3.57650E+000	9	...........
	65	0.88	5.31226E-002	-9.93365E-005	0.00000E+000	-5.27701E-006	-5.99601E-002	5.31323E-002	3.57650E+000	9	...........
	66	0.893333	4.16598E-002	-9.87884E-005	0.00000E+000	-4.11550E-006	-5.99601E-002	4.16666E-002	3.57650E+000	9	...........
	67	0.906667	3.03022E-002	-9.92104E-005	0.00000E+000	-3.00629E-006	-5.99601E-002	3.03033E-002	3.57650E+000	9	...........
	68	0.92	1.90941E-002	-9.99428E-005	0.00000E+000	-1.90832E-006	-5.99601E-002	1.90922E-002	3.57650E+000	9	...........
	69	0.933333	8.06328E-003	-9.92979E-005	0.00000E+000	-8.00667E-007	-5.99601E-002	8.04411E-003	3.57650E+000	9	...........
	70	0.938333	5.61351E-004	-9.83630E-005	0.00000E+000	-5.52162E-008	-5.99601E-002	5.53045E-004	3.57650E+000	9	...........
STARTTIMEOFFSET	QUANT	1424.368	Start Time Offset (s)
