EXPLAIN
TAG	PWR800_DISCHARGE
TITLE	LABEL	PWR Cyclic Charge Discharge (Cell) - Discharge Step	Test &Identifier
DATE	LABEL	12-7-2017	Date
TIME	LABEL	16:43:49	Time
NOTES	NOTES	2	&Notes...
	supercap test cell
	6M KOH
PSTAT	PSTAT	IFC5000-01520	Potentiostat
CAPACITY	QUANT	1.00000E-003	Capacity (A-hr)
CELLTYPE	SELECTOR	1	&Cell Type
WORKINGCONNECTION	SELECTOR	0	&Working Lead
MAXDISCHARGETIME	VARIABLEANDUNITS	1.00000E+002	s	1.00000E+002	second(s)	Max &Discharge Time
DISCHARGEMODE	MULTIPARAM	0	1.00000E-004	&Discharge Mode	Constant Current	Amp(s)
SAMPLETIME	QUANT	1.00000E-002	Sa&mple Period (s)
DISCHARGESTOPAT1	MULTIPARAM	3	0.00000E+000	Discharge Stop At &1	Voltage < Limit	V
DISCHARGESTOPAT2	MULTIPARAM	0	0.00000E+000	Discharge Stop At &2	None	N/A
AESBHCSELECTOR	TOGGLE	F	Save Both Half Cells
IRCOMP	TOGGLE	F	IR &Measure
EOC	QUANT	0	Open Circuit (V)
SEQUENCER	TOGGLE	TRUE	Run as Sequence
PSTATMODEL	IQUANT	53	Pstat Model
PSTATSECTION	LABEL	IFC5000-01520	Pstat Section
PSTATSERIALNO	LABEL	01520	Pstat Serial Number
CTRLMODE	IQUANT	0	Control Mode
ELECTROMETER	IQUANT	1	RE=0 or CS=1
IESTAB	IQUANT	0	I/E Stability
CASPEED	IQUANT	4	Control Amp Speed
CONVENTION	IQUANT	1	Current Convention
ICHRANGE	IQUANT	2	Ich Range
ICHRANGEMODE	TOGGLE	T	Ich Auto Range
ICHOFFSETENABLE	TOGGLE	F	Ich Offset Enable
ICHOFFSET	QUANT	0	Ich Offset (V)
ICHFILTER	IQUANT	1	Ich Filter
VCHRANGE	IQUANT	2	Vch Range
VCHRANGEMODE	TOGGLE	T	Vch Auto Range
VCHOFFSETENABLE	TOGGLE	F	Vch Offset Enable
VCHOFFSET	QUANT	0	Vch Offset (V)
VCHFILTER	IQUANT	1	Vch Filter
IERANGELOWERLIMIT	IQUANT	9	I/E Range Lower Limit
IERANGEMODE	TOGGLE	F	I/E AutoRange
IERANGE	IQUANT	9	I/E Range
ACHSELECT	IQUANT	1	Ach Select
ACHRANGE	IQUANT	2	Ach Range
ACHOFFSETENABLE	TOGGLE	F	Ach Offset Enable
ACHOFFSET	QUANT	0	Ach Offset (V)
ACHFILTER	IQUANT	1	Ach Filter
CABLEID	IQUANT	14	Cable ID
DCCALDATE	LABEL	5-7-2017	DC Calibration Date
ACCALDATE	LABEL	12/3/2015	AC Calibration Date
FRAMEWORKVERSION	QUANT	7.01	Framework Version
INSTRUMENTVERSION	LABEL	4.00	Instrument Version
CURVE	TABLE	71
	Pt	T	Vf	Im	Vu	Pwr	Sig	Ach	Temp	IERange	Over
	#	s	V	A	V	W	V	V	deg C	#	bits
	0	0.013333	8.44915E-001	-9.89593E-005	0.00000E+000	-8.36122E-005	-5.99601E-002	8.45187E-001	3.57790E+000	9	...........
	1	0.026667	8.31739E-001	-9.84644E-005	0.00000E+000	-8.18967E-005	-5.99601E-002	8.32061E-001	3.57790E+000	9	...........
	2	0.04	8.19185E-001	-9.66130E-005	0.00000E+000	-7.91439E-005	-5.99601E-002	8.19490E-001	3.57790E+000	9	...........
	3	0.053333	8.07008E-001	-9.94761E-005	0.00000E+000	-8.02780E-005	-5.99601E-002	8.07266E-001	3.57790E+000	9	...........
	4	0.066667	7.95078E-001	-9.79257E-005	0.00000E+000	-7.78586E-005	-5.99601E-002	7.95381E-001	3.57790E+000	9	...........
	5	0.08	7.83351E-001	-9.91218E-005	0.00000E+000	-7.76472E-005	-5.99601E-002	7.83626E-001	3.57790E+000	9	...........
	6	0.093333	7.71785E-001	-9.90322E-005	0.00000E+000	-7.64316E-005	-5.99601E-002	7.72057E-001	3.57790E+000	9	...........
	7	0.106667	7.60357E-001	-9.94302E-005	0.00000E+000	-7.56025E-005	-5.99601E-002	7.60599E-001	3.57790E+000	9	...........
	8	0.12	7.49014E-001	-9.81529E-005	0.00000E+000	-7.35179E-005	-5.99601E-002	7.49279E-001	3.57790E+000	9	...........
	9	0.133333	7.37784E-001	-9.92927E-005	0.00000E+000	-7.32566E-005	-5.99601E-002	7.38030E-001	3.57790E+000	9	...........
	10	0.146667	7.26650E-001	-1.00098E-004	0.00000E+000	-7.27363E-005	-5.99601E-002	7.26915E-001	3.57790E+000	9	...........
	11	0.16	7.15595E-001	-9.83039E-005	0.00000E+000	-7.03458E-005	-5.99601E-002	7.15845E-001	3.57790E+000	9	...........
	12	0.173333	7.04612E-001	-9.85582E-005	0.00000E+000	-6.94453E-005	-5.99601E-002	7.04883E-001	3.57790E+000	9	...........
	13	0.186667	6.93748E-001	-9.79851E-005	0.00000E+000	-6.79770E-005	-5.99601E-002	6.94005E-001	3.57790E+000	9	...........
	14	0.2	6.82938E-001	-9.74079E-005	0.00000E+000	-6.65235E-005	-5.99601E-002	6.83172E-001	3.57790E+000	9	...........
	15	0.213333	6.72190E-001	-9.83925E-005	0.00000E+000	-6.61384E-005	-5.99601E-002	6.72442E-001	3.57790E+000	9	...........
	16	0.226667	6.61456E-001	-9.79372E-005	0.00000E+000	-6.47811E-005	-5.99601E-002	6.61714E-001	3.57790E+000	9	...........
	17	0.24	6.50763E-001	-9.88666E-005	0.00000E+000	-6.43387E-005	-5.99601E-002	6.51007E-001	3.57790E+000	9	...........
	18	0.253333	6.40027E-001	-9.93187E-005	0.00000E+000	-6.35666E-005	-5.99601E-002	6.40287E-001	3.57790E+000	9	...........
	19	0.266667	6.29208E-001	-1.00246E-004	0.00000E+000	-6.30756E-005	-5.99601E-002	6.29418E-001	3.57790E+000	9	...........
	20	0.28	6.18255E-001	-9.95188E-005	0.00000E+000	-6.15280E-005	-5.99601E-002	6.18504E-001	3.57790E+000	9	...........
	21	0.293333	6.07086E-001	-9.81893E-005	0.00000E+000	-5.96094E-005	-5.99601E-002	6.07348E-001	3.57790E+000	9	...........
	22	0.306667	5.95777E-001	-9.93437E-005	0.00000E+000	-5.91867E-005	-5.99601E-002	5.96015E-001	3.57790E+000	9	...........
	23	0.32	5.84217E-001	-9.83706E-005	0.00000E+000	-5.74698E-005	-5.99601E-002	5.84465E-001	3.57790E+000	9	...........
	24	0.333333	5.72488E-001	-9.78861E-005	0.00000E+000	-5.60386E-005	-5.99601E-002	5.72722E-001	3.57790E+000	9	...........
	25	0.346667	5.60520E-001	-9.88843E-005	0.00000E+000	-5.54266E-005	-5.99601E-002	5.60756E-001	3.57790E+000	9	...........
	26	0.36	5.48375E-001	-9.87947E-005	0.00000E+000	-5.41766E-005	-5.99601E-002	5.48595E-001	3.57790E+000	9	...........
	27	0.373333	5.36048E-001	-9.81945E-005	0.00000E+000	-5.26370E-005	-5.99601E-002	5.36260E-001	3.57790E+000	9	...........
	28	0.386667	5.23579E-001	-9.88884E-005	0.00000E+000	-5.17759E-005	-5.99601E-002	5.23761E-001	3.57790E+000	9	...........
	29	0.4	5.10908E-001	-9.92990E-005	0.00000E+000	-5.07326E-005	-5.99601E-002	5.11123E-001	3.57678E+000	9	...........
	30	0.413333	4.98131E-001	-9.80143E-005	0.00000E+000	-4.88239E-005	-5.99601E-002	4.98340E-001	3.57640E+000	9	...........
	31	0.426667	4.85359E-001	-9.93792E-005	0.00000E+000	-4.82346E-005	-5.99601E-002	4.85523E-001	3.57640E+000	9	...........
	32	0.44	4.72542E-001	-9.95938E-005	0.00000E+000	-4.70623E-005	-5.99601E-002	4.72641E-001	3.57640E+000	9	...........
	33	0.453333	4.59452E-001	-9.74767E-005	0.00000E+000	-4.47858E-005	-5.99601E-002	4.59545E-001	3.57640E+000	9	...........
	34	0.466667	4.46281E-001	-9.73610E-005	0.00000E+000	-4.34504E-005	-5.99601E-002	4.46376E-001	3.57640E+000	9	...........
	35	0.48	4.33049E-001	-9.76549E-005	0.00000E+000	-4.22893E-005	-5.99601E-002	4.33140E-001	3.57640E+000	9	...........
	36	0.493333	4.19759E-001	-9.83081E-005	0.00000E+000	-4.12658E-005	-5.99601E-002	4.19852E-001	3.57640E+000	9	...........
	37	0.506667	4.06450E-001	-9.86519E-005	0.00000E+000	-4.00971E-005	-5.99601E-002	4.06533E-001	3.57640E+000	9	...........
	38	0.52	3.93113E-001	-9.85707E-005	0.00000E+000	-3.87494E-005	-5.99601E-002	3.93190E-001	3.57640E+000	9	...........
	39	0.533333	3.79756E-001	-1.00573E-004	0.00000E+000	-3.81933E-005	-5.99601E-002	3.79828E-001	3.57640E+000	9	...........
	40	0.546667	3.66406E-001	-9.84571E-005	0.00000E+000	-3.60752E-005	-5.99601E-002	3.66477E-001	3.57640E+000	9	...........
	41	0.56	3.53065E-001	-9.79622E-005	0.00000E+000	-3.45870E-005	-5.99601E-002	3.53138E-001	3.57640E+000	9	...........
	42	0.573333	3.39743E-001	-9.90562E-005	0.00000E+000	-3.36537E-005	-5.99601E-002	3.39815E-001	3.57640E+000	9	...........
	43	0.586667	3.26458E-001	-9.78601E-005	0.00000E+000	-3.19472E-005	-5.99601E-002	3.26523E-001	3.57640E+000	9	...........
	44	0.6	3.13205E-001	-9.76476E-005	0.00000E+000	-3.05837E-005	-5.99601E-002	3.13266E-001	3.57640E+000	9	...........
	45	0.613333	3.00002E-001	-9.89197E-005	0.00000E+000	-2.96761E-005	-5.99601E-002	3.00062E-001	3.57640E+000	9	...........
	46	0.626667	2.86841E-001	-9.94709E-005	0.00000E+000	-2.85323E-005	-5.99601E-002	2.86897E-001	3.57640E+000	9	...........
	47	0.64	2.73742E-001	-9.76736E-005	0.00000E+000	-2.67374E-005	-5.99601E-002	2.73797E-001	3.57640E+000	9	...........
	48	0.653333	2.60702E-001	-9.94990E-005	0.00000E+000	-2.59396E-005	-5.99601E-002	2.60754E-001	3.57640E+000	9	...........
	49	0.666667	2.47736E-001	-9.77622E-005	0.00000E+000	-2.42192E-005	-5.99601E-002	2.47789E-001	3.57640E+000	9	...........
	50	0.68	2.34850E-001	-9.85144E-005	0.00000E+000	-2.31362E-005	-5.99601E-002	2.34892E-001	3.57640E+000	9	...........
	51	0.693333	2.22019E-001	-9.82862E-005	0.00000E+000	-2.18214E-005	-5.99601E-002	2.22063E-001	3.57640E+000	9	...........
	52	0.706667	2.09263E-001	-9.71339E-005	0.00000E+000	-2.03266E-005	-5.99601E-002	2.09302E-001	3.57640E+000	9	...........
	53	0.72	1.96569E-001	-9.90322E-005	0.00000E+000	-1.94667E-005	-5.99601E-002	1.96611E-001	3.57640E+000	9	...........
	54	0.733333	1.83961E-001	-9.80018E-005	0.00000E+000	-1.80285E-005	-5.99601E-002	1.84000E-001	3.57640E+000	9	...........
	55	0.746667	1.71417E-001	-9.87780E-005	0.00000E+000	-1.69323E-005	-5.99601E-002	1.71453E-001	3.57640E+000	9	...........
	56	0.76	1.58938E-001	-9.88926E-005	0.00000E+000	-1.57178E-005	-5.99601E-002	1.58966E-001	3.57640E+000	9	...........
	57	0.773333	1.46528E-001	-9.98324E-005	0.00000E+000	-1.46283E-005	-5.99601E-002	1.46555E-001	3.57640E+000	9	...........
	58	0.786667	1.34185E-001	-9.99022E-005	0.00000E+000	-1.34054E-005	-5.99601E-002	1.34210E-001	3.57640E+000	9	...........
	59	0.8	1.21922E-001	-9.84779E-005	0.00000E+000	-1.20066E-005	-5.99601E-002	1.21945E-001	3.57640E+000	9	...........
	60	0.813333	1.09744E-001	-9.78955E-005	0.00000E+000	-1.07434E-005	-5.99601E-002	1.09766E-001	3.57640E+000	9	...........
	61	0.826667	9.76579E-002	-9.92073E-005	0.00000E+000	-9.68837E-006	-5.99601E-002	9.76707E-002	3.57640E+000	9	...........
	62	0.84	8.56633E-002	-9.96011E-005	0.00000E+000	-8.53216E-006	-5.99601E-002	8.56799E-002	3.57640E+000	9	...........
	63	0.853333	7.37870E-002	-9.84165E-005	0.00000E+000	-7.26186E-006	-5.99601E-002	7.37985E-002	3.57640E+000	9	...........
	64	0.866667	6.20281E-002	-9.70766E-005	0.00000E+000	-6.02148E-006	-5.99601E-002	6.20346E-002	3.57640E+000	9	...........
	65	0.88	5.03998E-002	-9.82727E-005	0.00000E+000	-4.95292E-006	-5.99601E-002	5.04037E-002	3.57640E+000	9	...........
	66	0.893333	3.89244E-002	-1.00264E-004	0.00000E+000	-3.90271E-006	-5.99601E-002	3.89299E-002	3.57640E+000	9	...........
	67	0.906667	2.75825E-002	-9.81331E-005	0.00000E+000	-2.70675E-006	-5.99601E-002	2.75777E-002	3.57640E+000	9	...........
	68	0.92	1.63821E-002	-9.76882E-005	0.00000E+000	-1.60034E-006	-5.99601E-002	1.63729E-002	3.57640E+000	9	...........
	69	0.933333	5.35880E-003	-9.86509E-005	0.00000E+000	-5.28650E-007	-5.99601E-002	5.33861E-003	3.57640E+000	9	...........
	70	0.935	-7.65678E-004	-9.99772E-005	0.00000E+000	7.65504E-008	-5.99601E-002	-7.83353E-004	3.57640E+000	9	...........
STARTTIMEOFFSET	QUANT	1439.818	Start Time Offset (s)
