EXPLAIN
TAG	PWR800_DISCHARGE
TITLE	LABEL	PWR Cyclic Charge Discharge (Cell) - Discharge Step	Test &Identifier
DATE	LABEL	12-7-2017	Date
TIME	LABEL	16:24:35	Time
NOTES	NOTES	2	&Notes...
	supercap test cell
	6M KOH
PSTAT	PSTAT	IFC5000-01520	Potentiostat
CAPACITY	QUANT	1.00000E-003	Capacity (A-hr)
CELLTYPE	SELECTOR	1	&Cell Type
WORKINGCONNECTION	SELECTOR	0	&Working Lead
MAXDISCHARGETIME	VARIABLEANDUNITS	1.00000E+002	s	1.00000E+002	second(s)	Max &Discharge Time
DISCHARGEMODE	MULTIPARAM	0	1.00000E-004	&Discharge Mode	Constant Current	Amp(s)
SAMPLETIME	QUANT	1.00000E-002	Sa&mple Period (s)
DISCHARGESTOPAT1	MULTIPARAM	3	0.00000E+000	Discharge Stop At &1	Voltage < Limit	V
DISCHARGESTOPAT2	MULTIPARAM	0	0.00000E+000	Discharge Stop At &2	None	N/A
AESBHCSELECTOR	TOGGLE	F	Save Both Half Cells
IRCOMP	TOGGLE	F	IR &Measure
EOC	QUANT	0	Open Circuit (V)
SEQUENCER	TOGGLE	TRUE	Run as Sequence
PSTATMODEL	IQUANT	53	Pstat Model
PSTATSECTION	LABEL	IFC5000-01520	Pstat Section
PSTATSERIALNO	LABEL	01520	Pstat Serial Number
CTRLMODE	IQUANT	0	Control Mode
ELECTROMETER	IQUANT	1	RE=0 or CS=1
IESTAB	IQUANT	0	I/E Stability
CASPEED	IQUANT	4	Control Amp Speed
CONVENTION	IQUANT	1	Current Convention
ICHRANGE	IQUANT	2	Ich Range
ICHRANGEMODE	TOGGLE	T	Ich Auto Range
ICHOFFSETENABLE	TOGGLE	F	Ich Offset Enable
ICHOFFSET	QUANT	0	Ich Offset (V)
ICHFILTER	IQUANT	1	Ich Filter
VCHRANGE	IQUANT	2	Vch Range
VCHRANGEMODE	TOGGLE	T	Vch Auto Range
VCHOFFSETENABLE	TOGGLE	F	Vch Offset Enable
VCHOFFSET	QUANT	0	Vch Offset (V)
VCHFILTER	IQUANT	1	Vch Filter
IERANGELOWERLIMIT	IQUANT	9	I/E Range Lower Limit
IERANGEMODE	TOGGLE	F	I/E AutoRange
IERANGE	IQUANT	9	I/E Range
ACHSELECT	IQUANT	1	Ach Select
ACHRANGE	IQUANT	2	Ach Range
ACHOFFSETENABLE	TOGGLE	F	Ach Offset Enable
ACHOFFSET	QUANT	0	Ach Offset (V)
ACHFILTER	IQUANT	1	Ach Filter
CABLEID	IQUANT	14	Cable ID
DCCALDATE	LABEL	5-7-2017	DC Calibration Date
ACCALDATE	LABEL	12/3/2015	AC Calibration Date
FRAMEWORKVERSION	QUANT	7.01	Framework Version
INSTRUMENTVERSION	LABEL	4.00	Instrument Version
CURVE	TABLE	71
	Pt	T	Vf	Im	Vu	Pwr	Sig	Ach	Temp	IERange	Over
	#	s	V	A	V	W	V	V	deg C	#	bits
	0	0.013333	8.46677E-001	-9.84832E-005	0.00000E+000	-8.33834E-005	-5.99601E-002	8.46989E-001	3.57830E+000	9	...........
	1	0.026667	8.33671E-001	-9.79435E-005	0.00000E+000	-8.16526E-005	-5.99601E-002	8.33997E-001	3.57830E+000	9	...........
	2	0.04	8.21309E-001	-9.77820E-005	0.00000E+000	-8.03092E-005	-5.99601E-002	8.21597E-001	3.57830E+000	9	...........
	3	0.053333	8.09319E-001	-9.83487E-005	0.00000E+000	-7.95955E-005	-5.99601E-002	8.09588E-001	3.57830E+000	9	...........
	4	0.066667	7.97606E-001	-9.80351E-005	0.00000E+000	-7.81934E-005	-5.99601E-002	7.97861E-001	3.57830E+000	9	...........
	5	0.08	7.86074E-001	-9.89468E-005	0.00000E+000	-7.77796E-005	-5.99601E-002	7.86316E-001	3.57830E+000	9	...........
	6	0.093333	7.74705E-001	-9.80404E-005	0.00000E+000	-7.59524E-005	-5.99601E-002	7.74974E-001	3.57830E+000	9	...........
	7	0.106667	7.63499E-001	-9.96032E-005	0.00000E+000	-7.60469E-005	-5.99601E-002	7.63734E-001	3.57830E+000	9	...........
	8	0.12	7.52400E-001	-9.91052E-005	0.00000E+000	-7.45667E-005	-5.99601E-002	7.52670E-001	3.57830E+000	9	...........
	9	0.133333	7.41394E-001	-9.81289E-005	0.00000E+000	-7.27522E-005	-5.99601E-002	7.41679E-001	3.57830E+000	9	...........
	10	0.146667	7.30503E-001	-9.85144E-005	0.00000E+000	-7.19650E-005	-5.99601E-002	7.30779E-001	3.57830E+000	9	...........
	11	0.16	7.19704E-001	-9.91531E-005	0.00000E+000	-7.13608E-005	-5.99601E-002	7.19981E-001	3.57830E+000	9	...........
	12	0.173333	7.08926E-001	-9.88395E-005	0.00000E+000	-7.00699E-005	-5.99601E-002	7.09188E-001	3.57830E+000	9	...........
	13	0.186667	6.98236E-001	-9.86092E-005	0.00000E+000	-6.88525E-005	-5.99601E-002	6.98500E-001	3.57830E+000	9	...........
	14	0.2	6.87551E-001	-9.92833E-005	0.00000E+000	-6.82623E-005	-5.99601E-002	6.87799E-001	3.57830E+000	9	...........
	15	0.213333	6.76852E-001	-9.96199E-005	0.00000E+000	-6.74278E-005	-5.99601E-002	6.77107E-001	3.57830E+000	9	...........
	16	0.226667	6.66038E-001	-9.84519E-005	0.00000E+000	-6.55727E-005	-5.99601E-002	6.66290E-001	3.57830E+000	9	...........
	17	0.24	6.55101E-001	-9.95386E-005	0.00000E+000	-6.52078E-005	-5.99601E-002	6.55345E-001	3.57830E+000	9	...........
	18	0.253333	6.44063E-001	-9.82789E-005	0.00000E+000	-6.32978E-005	-5.99601E-002	6.44314E-001	3.57830E+000	9	...........
	19	0.266667	6.32828E-001	-9.97959E-005	0.00000E+000	-6.31536E-005	-5.99601E-002	6.33057E-001	3.57830E+000	9	...........
	20	0.28	6.21446E-001	-9.75079E-005	0.00000E+000	-6.05959E-005	-5.99601E-002	6.21668E-001	3.57680E+000	9	...........
	21	0.293333	6.09814E-001	-9.86551E-005	0.00000E+000	-6.01613E-005	-5.99601E-002	6.10101E-001	3.57680E+000	9	...........
	22	0.306667	5.98082E-001	-9.85842E-005	0.00000E+000	-5.89615E-005	-5.99601E-002	5.98372E-001	3.57680E+000	9	...........
	23	0.32	5.86189E-001	-9.84811E-005	0.00000E+000	-5.77286E-005	-5.99601E-002	5.86445E-001	3.57680E+000	9	...........
	24	0.333333	5.74136E-001	-9.90364E-005	0.00000E+000	-5.68604E-005	-5.99601E-002	5.74392E-001	3.57680E+000	9	...........
	25	0.346667	5.61947E-001	-9.87374E-005	0.00000E+000	-5.54851E-005	-5.99601E-002	5.62195E-001	3.57680E+000	9	...........
	26	0.36	5.49640E-001	-9.95511E-005	0.00000E+000	-5.47172E-005	-5.99601E-002	5.49875E-001	3.57680E+000	9	...........
	27	0.373333	5.37231E-001	-9.80997E-005	0.00000E+000	-5.27022E-005	-5.99601E-002	5.37481E-001	3.57680E+000	9	...........
	28	0.386667	5.24740E-001	-9.94677E-005	0.00000E+000	-5.21947E-005	-5.99601E-002	5.24965E-001	3.57680E+000	9	...........
	29	0.4	5.12127E-001	-9.87988E-005	0.00000E+000	-5.05975E-005	-5.99601E-002	5.12336E-001	3.57680E+000	9	...........
	30	0.413333	4.99439E-001	-9.89009E-005	0.00000E+000	-4.93949E-005	-5.99601E-002	4.99668E-001	3.57680E+000	9	...........
	31	0.426667	4.86791E-001	-9.93344E-005	0.00000E+000	-4.83551E-005	-5.99601E-002	4.86990E-001	3.57680E+000	9	...........
	32	0.44	4.74232E-001	-9.81852E-005	0.00000E+000	-4.65625E-005	-5.99601E-002	4.74337E-001	3.57680E+000	9	...........
	33	0.453333	4.61388E-001	-9.92187E-005	0.00000E+000	-4.57784E-005	-5.99601E-002	4.61490E-001	3.57680E+000	9	...........
	34	0.466667	4.48503E-001	-9.81393E-005	0.00000E+000	-4.40158E-005	-5.99601E-002	4.48604E-001	3.57680E+000	9	...........
	35	0.48	4.35598E-001	-9.92739E-005	0.00000E+000	-4.32435E-005	-5.99601E-002	4.35693E-001	3.57680E+000	9	...........
	36	0.493333	4.22676E-001	-9.91562E-005	0.00000E+000	-4.19109E-005	-5.99601E-002	4.22766E-001	3.57680E+000	9	...........
	37	0.506667	4.09746E-001	-9.88103E-005	0.00000E+000	-4.04871E-005	-5.99601E-002	4.09833E-001	3.57680E+000	9	...........
	38	0.52	3.96823E-001	-9.83425E-005	0.00000E+000	-3.90246E-005	-5.99601E-002	3.96902E-001	3.57680E+000	9	...........
	39	0.533333	3.83904E-001	-9.83727E-005	0.00000E+000	-3.77657E-005	-5.99601E-002	3.83985E-001	3.57680E+000	9	...........
	40	0.546667	3.70998E-001	-1.00404E-004	0.00000E+000	-3.72499E-005	-5.99601E-002	3.71076E-001	3.57680E+000	9	...........
	41	0.56	3.58128E-001	-9.91625E-005	0.00000E+000	-3.55128E-005	-5.99601E-002	3.58203E-001	3.57680E+000	9	...........
	42	0.573333	3.45274E-001	-9.84936E-005	0.00000E+000	-3.40072E-005	-5.99601E-002	3.45352E-001	3.57680E+000	9	...........
	43	0.586667	3.32464E-001	-9.91645E-005	0.00000E+000	-3.29686E-005	-5.99601E-002	3.32533E-001	3.57680E+000	9	...........
	44	0.6	3.19688E-001	-9.83831E-005	0.00000E+000	-3.14519E-005	-5.99601E-002	3.19760E-001	3.57680E+000	9	...........
	45	0.613333	3.06949E-001	-9.84769E-005	0.00000E+000	-3.02274E-005	-5.99601E-002	3.07018E-001	3.57680E+000	9	...........
	46	0.626667	2.94259E-001	-9.86165E-005	0.00000E+000	-2.90188E-005	-5.99601E-002	2.94325E-001	3.57680E+000	9	...........
	47	0.64	2.81603E-001	-9.88687E-005	0.00000E+000	-2.78417E-005	-5.99601E-002	2.81667E-001	3.57680E+000	9	...........
	48	0.653333	2.68998E-001	-9.79185E-005	0.00000E+000	-2.63399E-005	-5.99601E-002	2.69058E-001	3.57680E+000	9	...........
	49	0.666667	2.56426E-001	-9.84946E-005	0.00000E+000	-2.52566E-005	-5.99601E-002	2.56484E-001	3.57680E+000	9	...........
	50	0.68	2.43901E-001	-9.93677E-005	0.00000E+000	-2.42359E-005	-5.99601E-002	2.43956E-001	3.57680E+000	9	...........
	51	0.693333	2.31417E-001	-9.84331E-005	0.00000E+000	-2.27791E-005	-5.99601E-002	2.31467E-001	3.57680E+000	9	...........
	52	0.706667	2.18958E-001	-9.82258E-005	0.00000E+000	-2.15074E-005	-5.99601E-002	2.19008E-001	3.57680E+000	9	...........
	53	0.72	2.06538E-001	-9.85290E-005	0.00000E+000	-2.03500E-005	-5.99601E-002	2.06585E-001	3.57680E+000	9	...........
	54	0.733333	1.94143E-001	-9.88895E-005	0.00000E+000	-1.91987E-005	-5.99601E-002	1.94188E-001	3.57680E+000	9	...........
	55	0.746667	1.81785E-001	-9.95157E-005	0.00000E+000	-1.80904E-005	-5.99601E-002	1.81827E-001	3.57680E+000	9	...........
	56	0.76	1.69464E-001	-9.86248E-005	0.00000E+000	-1.67133E-005	-5.99601E-002	1.69501E-001	3.57680E+000	9	...........
	57	0.773333	1.57186E-001	-9.86811E-005	0.00000E+000	-1.55113E-005	-5.99601E-002	1.57217E-001	3.57680E+000	9	...........
	58	0.786667	1.44949E-001	-9.83508E-005	0.00000E+000	-1.42558E-005	-5.99601E-002	1.44975E-001	3.57680E+000	9	...........
	59	0.8	1.32761E-001	-9.95532E-005	0.00000E+000	-1.32168E-005	-5.99601E-002	1.32788E-001	3.57680E+000	9	...........
	60	0.813333	1.20623E-001	-9.91416E-005	0.00000E+000	-1.19588E-005	-5.99601E-002	1.20648E-001	3.57680E+000	9	...........
	61	0.826667	1.08555E-001	-9.84311E-005	0.00000E+000	-1.06852E-005	-5.99601E-002	1.08577E-001	3.57680E+000	9	...........
	62	0.84	9.65534E-002	-9.89739E-005	0.00000E+000	-9.55626E-006	-5.99601E-002	9.65743E-002	3.57680E+000	9	...........
	63	0.853333	8.46346E-002	-9.79205E-005	0.00000E+000	-8.28747E-006	-5.99601E-002	8.46517E-002	3.57680E+000	9	...........
	64	0.866667	7.28015E-002	-9.77976E-005	0.00000E+000	-7.11981E-006	-5.99601E-002	7.28119E-002	3.57680E+000	9	...........
	65	0.88	6.10626E-002	-9.82102E-005	0.00000E+000	-5.99697E-006	-5.99601E-002	6.10680E-002	3.57680E+000	9	...........
	66	0.893333	4.94451E-002	-9.90406E-005	0.00000E+000	-4.89707E-006	-5.99601E-002	4.94457E-002	3.57680E+000	9	...........
	67	0.906667	3.79630E-002	-9.86269E-005	0.00000E+000	-3.74417E-006	-5.99601E-002	3.79698E-002	3.57680E+000	9	...........
	68	0.92	2.65811E-002	-9.85738E-005	0.00000E+000	-2.62020E-006	-5.99601E-002	2.65777E-002	3.57680E+000	9	...........
	69	0.933333	1.53477E-002	-9.92656E-005	0.00000E+000	-1.52350E-006	-5.99601E-002	1.53370E-002	3.57680E+000	9	...........
	70	0.946667	4.27229E-003	-9.81841E-005	0.00000E+000	-4.19471E-007	-5.99601E-002	4.25795E-003	3.57680E+000	9	...........
STARTTIMEOFFSET	QUANT	621.3833	Start Time Offset (s)
