EXPLAIN
TAG	PWR800_DISCHARGE
TITLE	LABEL	PWR Cyclic Charge Discharge (Cell) - Discharge Step	Test &Identifier
DATE	LABEL	12-7-2017	Date
TIME	LABEL	16:26:53	Time
NOTES	NOTES	2	&Notes...
	supercap test cell
	6M KOH
PSTAT	PSTAT	IFC5000-01520	Potentiostat
CAPACITY	QUANT	1.00000E-003	Capacity (A-hr)
CELLTYPE	SELECTOR	1	&Cell Type
WORKINGCONNECTION	SELECTOR	0	&Working Lead
MAXDISCHARGETIME	VARIABLEANDUNITS	1.00000E+002	s	1.00000E+002	second(s)	Max &Discharge Time
DISCHARGEMODE	MULTIPARAM	0	1.00000E-004	&Discharge Mode	Constant Current	Amp(s)
SAMPLETIME	QUANT	1.00000E-002	Sa&mple Period (s)
DISCHARGESTOPAT1	MULTIPARAM	3	0.00000E+000	Discharge Stop At &1	Voltage < Limit	V
DISCHARGESTOPAT2	MULTIPARAM	0	0.00000E+000	Discharge Stop At &2	None	N/A
AESBHCSELECTOR	TOGGLE	F	Save Both Half Cells
IRCOMP	TOGGLE	F	IR &Measure
EOC	QUANT	0	Open Circuit (V)
SEQUENCER	TOGGLE	TRUE	Run as Sequence
PSTATMODEL	IQUANT	53	Pstat Model
PSTATSECTION	LABEL	IFC5000-01520	Pstat Section
PSTATSERIALNO	LABEL	01520	Pstat Serial Number
CTRLMODE	IQUANT	0	Control Mode
ELECTROMETER	IQUANT	1	RE=0 or CS=1
IESTAB	IQUANT	0	I/E Stability
CASPEED	IQUANT	4	Control Amp Speed
CONVENTION	IQUANT	1	Current Convention
ICHRANGE	IQUANT	2	Ich Range
ICHRANGEMODE	TOGGLE	T	Ich Auto Range
ICHOFFSETENABLE	TOGGLE	F	Ich Offset Enable
ICHOFFSET	QUANT	0	Ich Offset (V)
ICHFILTER	IQUANT	1	Ich Filter
VCHRANGE	IQUANT	2	Vch Range
VCHRANGEMODE	TOGGLE	T	Vch Auto Range
VCHOFFSETENABLE	TOGGLE	F	Vch Offset Enable
VCHOFFSET	QUANT	0	Vch Offset (V)
VCHFILTER	IQUANT	1	Vch Filter
IERANGELOWERLIMIT	IQUANT	9	I/E Range Lower Limit
IERANGEMODE	TOGGLE	F	I/E AutoRange
IERANGE	IQUANT	9	I/E Range
ACHSELECT	IQUANT	1	Ach Select
ACHRANGE	IQUANT	2	Ach Range
ACHOFFSETENABLE	TOGGLE	F	Ach Offset Enable
ACHOFFSET	QUANT	0	Ach Offset (V)
ACHFILTER	IQUANT	1	Ach Filter
CABLEID	IQUANT	14	Cable ID
DCCALDATE	LABEL	5-7-2017	DC Calibration Date
ACCALDATE	LABEL	12/3/2015	AC Calibration Date
FRAMEWORKVERSION	QUANT	7.01	Framework Version
INSTRUMENTVERSION	LABEL	4.00	Instrument Version
CURVE	TABLE	71
	Pt	T	Vf	Im	Vu	Pwr	Sig	Ach	Temp	IERange	Over
	#	s	V	A	V	W	V	V	deg C	#	bits
	0	0.013333	8.46993E-001	-9.82696E-005	0.00000E+000	-8.32337E-005	-5.99601E-002	8.47268E-001	3.57820E+000	9	...........
	1	0.026667	8.34017E-001	-9.88968E-005	0.00000E+000	-8.24816E-005	-5.99601E-002	8.34283E-001	3.57820E+000	9	...........
	2	0.04	8.21603E-001	-9.92958E-005	0.00000E+000	-8.15817E-005	-5.99601E-002	8.21890E-001	3.57820E+000	9	...........
	3	0.053333	8.09581E-001	-9.90968E-005	0.00000E+000	-8.02269E-005	-5.99601E-002	8.09851E-001	3.57820E+000	9	...........
	4	0.066667	7.97833E-001	-1.00353E-004	0.00000E+000	-8.00652E-005	-5.99601E-002	7.98112E-001	3.57820E+000	9	...........
	5	0.08	7.86291E-001	-9.76507E-005	0.00000E+000	-7.67818E-005	-5.99601E-002	7.86539E-001	3.57820E+000	9	...........
	6	0.093333	7.74894E-001	-9.93167E-005	0.00000E+000	-7.69599E-005	-5.99601E-002	7.75162E-001	3.57820E+000	9	...........
	7	0.106667	7.63654E-001	-9.86530E-005	0.00000E+000	-7.53367E-005	-5.99601E-002	7.63905E-001	3.57820E+000	9	...........
	8	0.12	7.52525E-001	-9.80893E-005	0.00000E+000	-7.38146E-005	-5.99601E-002	7.52779E-001	3.57820E+000	9	...........
	9	0.133333	7.41498E-001	-9.86071E-005	0.00000E+000	-7.31170E-005	-5.99601E-002	7.41750E-001	3.57820E+000	9	...........
	10	0.146667	7.30570E-001	-9.94146E-005	0.00000E+000	-7.26293E-005	-5.99601E-002	7.30818E-001	3.57820E+000	9	...........
	11	0.16	7.19727E-001	-9.98105E-005	0.00000E+000	-7.18364E-005	-5.99601E-002	7.19976E-001	3.57820E+000	9	...........
	12	0.173333	7.08953E-001	-9.97532E-005	0.00000E+000	-7.07204E-005	-5.99601E-002	7.09190E-001	3.57820E+000	9	...........
	13	0.186667	6.98248E-001	-9.71089E-005	0.00000E+000	-6.78061E-005	-5.99601E-002	6.98504E-001	3.57820E+000	9	...........
	14	0.2	6.87558E-001	-9.85446E-005	0.00000E+000	-6.77552E-005	-5.99601E-002	6.87797E-001	3.57820E+000	9	...........
	15	0.213333	6.76899E-001	-9.80122E-005	0.00000E+000	-6.63444E-005	-5.99601E-002	6.77142E-001	3.57820E+000	9	...........
	16	0.226667	6.66194E-001	-9.85707E-005	0.00000E+000	-6.56672E-005	-5.99601E-002	6.66428E-001	3.57820E+000	9	...........
	17	0.24	6.55381E-001	-9.90718E-005	0.00000E+000	-6.49298E-005	-5.99601E-002	6.55621E-001	3.57820E+000	9	...........
	18	0.253333	6.44442E-001	-9.88447E-005	0.00000E+000	-6.36997E-005	-5.99601E-002	6.44692E-001	3.57820E+000	9	...........
	19	0.266667	6.33323E-001	-9.98522E-005	0.00000E+000	-6.32387E-005	-5.99601E-002	6.33558E-001	3.57820E+000	9	...........
	20	0.28	6.22065E-001	-9.95834E-005	0.00000E+000	-6.19474E-005	-5.99601E-002	6.22294E-001	3.57775E+000	9	...........
	21	0.293333	6.10572E-001	-9.92896E-005	0.00000E+000	-6.06234E-005	-5.99601E-002	6.10833E-001	3.57730E+000	9	...........
	22	0.306667	5.98907E-001	-9.87582E-005	0.00000E+000	-5.91469E-005	-5.99601E-002	5.99182E-001	3.57730E+000	9	...........
	23	0.32	5.87110E-001	-9.82529E-005	0.00000E+000	-5.76852E-005	-5.99601E-002	5.87377E-001	3.57730E+000	9	...........
	24	0.333333	5.75116E-001	-9.85352E-005	0.00000E+000	-5.66692E-005	-5.99601E-002	5.75400E-001	3.57730E+000	9	...........
	25	0.346667	5.62984E-001	-9.71016E-005	0.00000E+000	-5.46667E-005	-5.99601E-002	5.63255E-001	3.57730E+000	9	...........
	26	0.36	5.50735E-001	-9.83206E-005	0.00000E+000	-5.41486E-005	-5.99601E-002	5.50966E-001	3.57730E+000	9	...........
	27	0.373333	5.38327E-001	-9.83706E-005	0.00000E+000	-5.29555E-005	-5.99601E-002	5.38562E-001	3.57730E+000	9	...........
	28	0.386667	5.25827E-001	-9.96594E-005	0.00000E+000	-5.24036E-005	-5.99601E-002	5.26036E-001	3.57730E+000	9	...........
	29	0.4	5.13209E-001	-9.79580E-005	0.00000E+000	-5.02729E-005	-5.99601E-002	5.13449E-001	3.57730E+000	9	...........
	30	0.413333	5.00498E-001	-9.91083E-005	0.00000E+000	-4.96035E-005	-5.99601E-002	5.00728E-001	3.57730E+000	9	...........
	31	0.426667	4.87829E-001	-9.78747E-005	0.00000E+000	-4.77461E-005	-5.99601E-002	4.87981E-001	3.57730E+000	9	...........
	32	0.44	4.75237E-001	-9.77486E-005	0.00000E+000	-4.64538E-005	-5.99601E-002	4.75341E-001	3.57730E+000	9	...........
	33	0.453333	4.62341E-001	-9.88614E-005	0.00000E+000	-4.57076E-005	-5.99601E-002	4.62437E-001	3.57730E+000	9	...........
	34	0.466667	4.49398E-001	-9.85644E-005	0.00000E+000	-4.42947E-005	-5.99601E-002	4.49495E-001	3.57730E+000	9	...........
	35	0.48	4.36418E-001	-9.83102E-005	0.00000E+000	-4.29044E-005	-5.99601E-002	4.36513E-001	3.57730E+000	9	...........
	36	0.493333	4.23415E-001	-9.78716E-005	0.00000E+000	-4.14403E-005	-5.99601E-002	4.23515E-001	3.57730E+000	9	...........
	37	0.506667	4.10402E-001	-9.78195E-005	0.00000E+000	-4.01453E-005	-5.99601E-002	4.10492E-001	3.57730E+000	9	...........
	38	0.52	3.97389E-001	-9.83467E-005	0.00000E+000	-3.90819E-005	-5.99601E-002	3.97474E-001	3.57730E+000	9	...........
	39	0.533333	3.84372E-001	-9.85623E-005	0.00000E+000	-3.78846E-005	-5.99601E-002	3.84460E-001	3.57730E+000	9	...........
	40	0.546667	3.71379E-001	-9.82977E-005	0.00000E+000	-3.65057E-005	-5.99601E-002	3.71457E-001	3.57730E+000	9	...........
	41	0.56	3.58398E-001	-9.84831E-005	0.00000E+000	-3.52962E-005	-5.99601E-002	3.58475E-001	3.57730E+000	9	...........
	42	0.573333	3.45443E-001	-9.83477E-005	0.00000E+000	-3.39735E-005	-5.99601E-002	3.45514E-001	3.57730E+000	9	...........
	43	0.586667	3.32525E-001	-9.97501E-005	0.00000E+000	-3.31694E-005	-5.99601E-002	3.32600E-001	3.57730E+000	9	...........
	44	0.6	3.19653E-001	-9.98241E-005	0.00000E+000	-3.19091E-005	-5.99601E-002	3.19721E-001	3.57730E+000	9	...........
	45	0.613333	3.06820E-001	-9.84800E-005	0.00000E+000	-3.02157E-005	-5.99601E-002	3.06886E-001	3.57730E+000	9	...........
	46	0.626667	2.94029E-001	-9.95636E-005	0.00000E+000	-2.92746E-005	-5.99601E-002	2.94092E-001	3.57730E+000	9	...........
	47	0.64	2.81289E-001	-9.85425E-005	0.00000E+000	-2.77189E-005	-5.99601E-002	2.81351E-001	3.57730E+000	9	...........
	48	0.653333	2.68604E-001	-9.73204E-005	0.00000E+000	-2.61407E-005	-5.99601E-002	2.68659E-001	3.57730E+000	9	...........
	49	0.666667	2.55959E-001	-9.90739E-005	0.00000E+000	-2.53589E-005	-5.99601E-002	2.56013E-001	3.57730E+000	9	...........
	50	0.68	2.43365E-001	-9.93146E-005	0.00000E+000	-2.41697E-005	-5.99601E-002	2.43417E-001	3.57730E+000	9	...........
	51	0.693333	2.30815E-001	-9.92656E-005	0.00000E+000	-2.29120E-005	-5.99601E-002	2.30865E-001	3.57730E+000	9	...........
	52	0.706667	2.18308E-001	-9.87603E-005	0.00000E+000	-2.15602E-005	-5.99601E-002	2.18358E-001	3.57730E+000	9	...........
	53	0.72	2.05844E-001	-9.76132E-005	0.00000E+000	-2.00931E-005	-5.99601E-002	2.05886E-001	3.57730E+000	9	...........
	54	0.733333	1.93420E-001	-9.89572E-005	0.00000E+000	-1.91403E-005	-5.99601E-002	1.93463E-001	3.57730E+000	9	...........
	55	0.746667	1.81027E-001	-9.90979E-005	0.00000E+000	-1.79394E-005	-5.99601E-002	1.81072E-001	3.57730E+000	9	...........
	56	0.76	1.68687E-001	-9.82894E-005	0.00000E+000	-1.65802E-005	-5.99601E-002	1.68724E-001	3.57730E+000	9	...........
	57	0.773333	1.56386E-001	-9.97918E-005	0.00000E+000	-1.56060E-005	-5.99601E-002	1.56421E-001	3.57730E+000	9	...........
	58	0.786667	1.44132E-001	-9.85957E-005	0.00000E+000	-1.42108E-005	-5.99601E-002	1.44158E-001	3.57730E+000	9	...........
	59	0.8	1.31926E-001	-9.82446E-005	0.00000E+000	-1.29610E-005	-5.99601E-002	1.31958E-001	3.57730E+000	9	...........
	60	0.813333	1.19783E-001	-9.84842E-005	0.00000E+000	-1.17967E-005	-5.99601E-002	1.19808E-001	3.57730E+000	9	...........
	61	0.826667	1.07703E-001	-9.94604E-005	0.00000E+000	-1.07121E-005	-5.99601E-002	1.07719E-001	3.57730E+000	9	...........
	62	0.84	9.57024E-002	-9.75496E-005	0.00000E+000	-9.33574E-006	-5.99601E-002	9.57262E-002	3.57730E+000	9	...........
	63	0.853333	8.37863E-002	-9.86269E-005	0.00000E+000	-8.26359E-006	-5.99601E-002	8.38012E-002	3.57730E+000	9	...........
	64	0.866667	7.19569E-002	-9.75673E-005	0.00000E+000	-7.02065E-006	-5.99601E-002	7.19650E-002	3.57730E+000	9	...........
	65	0.88	6.02319E-002	-9.73631E-005	0.00000E+000	-5.86437E-006	-5.99601E-002	6.02428E-002	3.57730E+000	9	...........
	66	0.893333	4.86293E-002	-9.87092E-005	0.00000E+000	-4.80016E-006	-5.99601E-002	4.86385E-002	3.57730E+000	9	...........
	67	0.906667	3.71690E-002	-9.89906E-005	0.00000E+000	-3.67938E-006	-5.99601E-002	3.71715E-002	3.57730E+000	9	...........
	68	0.92	2.58110E-002	-9.89582E-005	0.00000E+000	-2.55421E-006	-5.99601E-002	2.58093E-002	3.57730E+000	9	...........
	69	0.933333	1.46016E-002	-9.82821E-005	0.00000E+000	-1.43508E-006	-5.99601E-002	1.45892E-002	3.57730E+000	9	...........
	70	0.946667	3.54114E-003	-9.88520E-005	0.00000E+000	-3.50049E-007	-5.99601E-002	3.52095E-003	3.57730E+000	9	...........
STARTTIMEOFFSET	QUANT	719.7714	Start Time Offset (s)
