EXPLAIN
TAG	PWR800_DISCHARGE
TITLE	LABEL	PWR Cyclic Charge Discharge (Cell) - Discharge Step	Test &Identifier
DATE	LABEL	12-7-2017	Date
TIME	LABEL	16:18:06	Time
NOTES	NOTES	2	&Notes...
	supercap test cell
	6M KOH
PSTAT	PSTAT	IFC5000-01520	Potentiostat
CAPACITY	QUANT	1.00000E-003	Capacity (A-hr)
CELLTYPE	SELECTOR	1	&Cell Type
WORKINGCONNECTION	SELECTOR	0	&Working Lead
MAXDISCHARGETIME	VARIABLEANDUNITS	1.00000E+002	s	1.00000E+002	second(s)	Max &Discharge Time
DISCHARGEMODE	MULTIPARAM	0	1.00000E-004	&Discharge Mode	Constant Current	Amp(s)
SAMPLETIME	QUANT	1.00000E-002	Sa&mple Period (s)
DISCHARGESTOPAT1	MULTIPARAM	3	0.00000E+000	Discharge Stop At &1	Voltage < Limit	V
DISCHARGESTOPAT2	MULTIPARAM	0	0.00000E+000	Discharge Stop At &2	None	N/A
AESBHCSELECTOR	TOGGLE	F	Save Both Half Cells
IRCOMP	TOGGLE	F	IR &Measure
EOC	QUANT	0	Open Circuit (V)
SEQUENCER	TOGGLE	TRUE	Run as Sequence
PSTATMODEL	IQUANT	53	Pstat Model
PSTATSECTION	LABEL	IFC5000-01520	Pstat Section
PSTATSERIALNO	LABEL	01520	Pstat Serial Number
CTRLMODE	IQUANT	0	Control Mode
ELECTROMETER	IQUANT	1	RE=0 or CS=1
IESTAB	IQUANT	0	I/E Stability
CASPEED	IQUANT	4	Control Amp Speed
CONVENTION	IQUANT	1	Current Convention
ICHRANGE	IQUANT	2	Ich Range
ICHRANGEMODE	TOGGLE	T	Ich Auto Range
ICHOFFSETENABLE	TOGGLE	F	Ich Offset Enable
ICHOFFSET	QUANT	0	Ich Offset (V)
ICHFILTER	IQUANT	1	Ich Filter
VCHRANGE	IQUANT	2	Vch Range
VCHRANGEMODE	TOGGLE	T	Vch Auto Range
VCHOFFSETENABLE	TOGGLE	F	Vch Offset Enable
VCHOFFSET	QUANT	0	Vch Offset (V)
VCHFILTER	IQUANT	1	Vch Filter
IERANGELOWERLIMIT	IQUANT	9	I/E Range Lower Limit
IERANGEMODE	TOGGLE	F	I/E AutoRange
IERANGE	IQUANT	9	I/E Range
ACHSELECT	IQUANT	1	Ach Select
ACHRANGE	IQUANT	2	Ach Range
ACHOFFSETENABLE	TOGGLE	F	Ach Offset Enable
ACHOFFSET	QUANT	0	Ach Offset (V)
ACHFILTER	IQUANT	1	Ach Filter
CABLEID	IQUANT	14	Cable ID
DCCALDATE	LABEL	5-7-2017	DC Calibration Date
ACCALDATE	LABEL	12/3/2015	AC Calibration Date
FRAMEWORKVERSION	QUANT	7.01	Framework Version
INSTRUMENTVERSION	LABEL	4.00	Instrument Version
CURVE	TABLE	72
	Pt	T	Vf	Im	Vu	Pwr	Sig	Ach	Temp	IERange	Over
	#	s	V	A	V	W	V	V	deg C	#	bits
	0	0.013333	8.45434E-001	-9.90687E-005	0.00000E+000	-8.37560E-005	-5.99601E-002	8.45765E-001	3.57850E+000	9	...........
	1	0.026667	8.32519E-001	-9.90031E-005	0.00000E+000	-8.24219E-005	-5.99601E-002	8.32835E-001	3.57850E+000	9	...........
	2	0.04	8.20156E-001	-9.93292E-005	0.00000E+000	-8.14654E-005	-5.99601E-002	8.20508E-001	3.57850E+000	9	...........
	3	0.053333	8.08215E-001	-9.74413E-005	0.00000E+000	-7.87535E-005	-5.99601E-002	8.08520E-001	3.57850E+000	9	...........
	4	0.066667	7.96533E-001	-9.92000E-005	0.00000E+000	-7.90161E-005	-5.99601E-002	7.96842E-001	3.57850E+000	9	...........
	5	0.08	7.85038E-001	-9.85384E-005	0.00000E+000	-7.73563E-005	-5.99601E-002	7.85326E-001	3.57850E+000	9	...........
	6	0.093333	7.73729E-001	-9.83571E-005	0.00000E+000	-7.61017E-005	-5.99601E-002	7.74020E-001	3.57850E+000	9	...........
	7	0.106667	7.62550E-001	-9.91479E-005	0.00000E+000	-7.56052E-005	-5.99601E-002	7.62831E-001	3.57850E+000	9	...........
	8	0.12	7.51474E-001	-9.86811E-005	0.00000E+000	-7.41563E-005	-5.99601E-002	7.51771E-001	3.57850E+000	9	...........
	9	0.133333	7.40508E-001	-9.90874E-005	0.00000E+000	-7.33750E-005	-5.99601E-002	7.40805E-001	3.57850E+000	9	...........
	10	0.146667	7.29607E-001	-9.83269E-005	0.00000E+000	-7.17400E-005	-5.99601E-002	7.29889E-001	3.57850E+000	9	...........
	11	0.16	7.18751E-001	-9.91593E-005	0.00000E+000	-7.12709E-005	-5.99601E-002	7.19011E-001	3.57850E+000	9	...........
	12	0.173333	7.07819E-001	-9.86394E-005	0.00000E+000	-6.98189E-005	-5.99601E-002	7.08126E-001	3.57850E+000	9	...........
	13	0.186667	6.96912E-001	-9.80351E-005	0.00000E+000	-6.83218E-005	-5.99601E-002	6.97210E-001	3.57850E+000	9	...........
	14	0.2	6.85884E-001	-9.91708E-005	0.00000E+000	-6.80196E-005	-5.99601E-002	6.86179E-001	3.57850E+000	9	...........
	15	0.213333	6.74755E-001	-9.86426E-005	0.00000E+000	-6.65595E-005	-5.99601E-002	6.75043E-001	3.57850E+000	9	...........
	16	0.226667	6.63450E-001	-9.93458E-005	0.00000E+000	-6.59110E-005	-5.99601E-002	6.63750E-001	3.57850E+000	9	...........
	17	0.24	6.52032E-001	-9.86061E-005	0.00000E+000	-6.42944E-005	-5.99601E-002	6.52311E-001	3.57850E+000	9	...........
	18	0.253333	6.40459E-001	-9.94292E-005	0.00000E+000	-6.36804E-005	-5.99601E-002	6.40729E-001	3.57850E+000	9	...........
	19	0.266667	6.28746E-001	-9.90354E-005	0.00000E+000	-6.22681E-005	-5.99601E-002	6.29009E-001	3.57850E+000	9	...........
	20	0.28	6.16909E-001	-9.89322E-005	0.00000E+000	-6.10322E-005	-5.99601E-002	6.17182E-001	3.57804E+000	9	...........
	21	0.293333	6.04939E-001	-9.83415E-005	0.00000E+000	-5.94906E-005	-5.99601E-002	6.05220E-001	3.57770E+000	9	...........
	22	0.306667	5.92903E-001	-9.84206E-005	0.00000E+000	-5.83539E-005	-5.99601E-002	5.93175E-001	3.57770E+000	9	...........
	23	0.32	5.80757E-001	-9.88364E-005	0.00000E+000	-5.73999E-005	-5.99601E-002	5.81017E-001	3.57770E+000	9	...........
	24	0.333333	5.68559E-001	-9.79643E-005	0.00000E+000	-5.56985E-005	-5.99601E-002	5.68795E-001	3.57770E+000	9	...........
	25	0.346667	5.56241E-001	-9.91937E-005	0.00000E+000	-5.51756E-005	-5.99601E-002	5.56500E-001	3.57770E+000	9	...........
	26	0.36	5.43895E-001	-9.89603E-005	0.00000E+000	-5.38240E-005	-5.99601E-002	5.44142E-001	3.57770E+000	9	...........
	27	0.373333	5.31494E-001	-9.91468E-005	0.00000E+000	-5.26960E-005	-5.99601E-002	5.31717E-001	3.57770E+000	9	...........
	28	0.386667	5.19073E-001	-9.88707E-005	0.00000E+000	-5.13212E-005	-5.99601E-002	5.19271E-001	3.57770E+000	9	...........
	29	0.4	5.06577E-001	-9.89353E-005	0.00000E+000	-5.01184E-005	-5.99601E-002	5.06796E-001	3.57770E+000	9	...........
	30	0.413333	4.94105E-001	-9.88322E-005	0.00000E+000	-4.88335E-005	-5.99601E-002	4.94320E-001	3.57770E+000	9	...........
	31	0.426667	4.81858E-001	-9.81883E-005	0.00000E+000	-4.73128E-005	-5.99601E-002	4.81958E-001	3.57770E+000	9	...........
	32	0.44	4.69424E-001	-9.82414E-005	0.00000E+000	-4.61169E-005	-5.99601E-002	4.69524E-001	3.57770E+000	9	...........
	33	0.453333	4.56896E-001	-9.92823E-005	0.00000E+000	-4.53617E-005	-5.99601E-002	4.56995E-001	3.57770E+000	9	...........
	34	0.466667	4.44376E-001	-9.92093E-005	0.00000E+000	-4.40862E-005	-5.99601E-002	4.44477E-001	3.57770E+000	9	...........
	35	0.48	4.31865E-001	-9.91854E-005	0.00000E+000	-4.28347E-005	-5.99601E-002	4.31960E-001	3.57770E+000	9	...........
	36	0.493333	4.19363E-001	-9.88478E-005	0.00000E+000	-4.14531E-005	-5.99601E-002	4.19457E-001	3.57770E+000	9	...........
	37	0.506667	4.06875E-001	-9.94969E-005	0.00000E+000	-4.04828E-005	-5.99601E-002	4.06961E-001	3.57770E+000	9	...........
	38	0.52	3.94409E-001	-9.85217E-005	0.00000E+000	-3.88579E-005	-5.99601E-002	3.94487E-001	3.57770E+000	9	...........
	39	0.533333	3.81953E-001	-9.86353E-005	0.00000E+000	-3.76740E-005	-5.99601E-002	3.82035E-001	3.57770E+000	9	...........
	40	0.546667	3.69539E-001	-9.80351E-005	0.00000E+000	-3.62278E-005	-5.99601E-002	3.69611E-001	3.57770E+000	9	...........
	41	0.56	3.57138E-001	-9.86342E-005	0.00000E+000	-3.52260E-005	-5.99601E-002	3.57213E-001	3.57770E+000	9	...........
	42	0.573333	3.44770E-001	-9.84894E-005	0.00000E+000	-3.39562E-005	-5.99601E-002	3.44839E-001	3.57770E+000	9	...........
	43	0.586667	3.32418E-001	-9.76934E-005	0.00000E+000	-3.24750E-005	-5.99601E-002	3.32485E-001	3.57770E+000	9	...........
	44	0.6	3.20096E-001	-9.93396E-005	0.00000E+000	-3.17982E-005	-5.99601E-002	3.20154E-001	3.57770E+000	9	...........
	45	0.613333	3.07789E-001	-9.76851E-005	0.00000E+000	-3.00664E-005	-5.99601E-002	3.07850E-001	3.57770E+000	9	...........
	46	0.626667	2.95503E-001	-9.94406E-005	0.00000E+000	-2.93850E-005	-5.99601E-002	2.95565E-001	3.57770E+000	9	...........
	47	0.64	2.83235E-001	-9.84488E-005	0.00000E+000	-2.78842E-005	-5.99601E-002	2.83295E-001	3.57770E+000	9	...........
	48	0.653333	2.70973E-001	-9.89416E-005	0.00000E+000	-2.68105E-005	-5.99601E-002	2.71037E-001	3.57770E+000	9	...........
	49	0.666667	2.58735E-001	-9.79643E-005	0.00000E+000	-2.53468E-005	-5.99601E-002	2.58793E-001	3.57770E+000	9	...........
	50	0.68	2.46498E-001	-9.84050E-005	0.00000E+000	-2.42566E-005	-5.99601E-002	2.46552E-001	3.57770E+000	9	...........
	51	0.693333	2.34270E-001	-9.87040E-005	0.00000E+000	-2.31234E-005	-5.99601E-002	2.34318E-001	3.57770E+000	9	...........
	52	0.706667	2.22040E-001	-9.92635E-005	0.00000E+000	-2.20405E-005	-5.99601E-002	2.22089E-001	3.57770E+000	9	...........
	53	0.72	2.09821E-001	-9.88718E-005	0.00000E+000	-2.07454E-005	-5.99601E-002	2.09866E-001	3.57770E+000	9	...........
	54	0.733333	1.97617E-001	-9.81643E-005	0.00000E+000	-1.93989E-005	-5.99601E-002	1.97656E-001	3.57770E+000	9	...........
	55	0.746667	1.85426E-001	-9.96303E-005	0.00000E+000	-1.84740E-005	-5.99601E-002	1.85464E-001	3.57770E+000	9	...........
	56	0.76	1.73264E-001	-9.89989E-005	0.00000E+000	-1.71530E-005	-5.99601E-002	1.73301E-001	3.57770E+000	9	...........
	57	0.773333	1.61123E-001	-9.84977E-005	0.00000E+000	-1.58703E-005	-5.99601E-002	1.61155E-001	3.57770E+000	9	...........
	58	0.786667	1.49016E-001	-9.82758E-005	0.00000E+000	-1.46446E-005	-5.99601E-002	1.49049E-001	3.57770E+000	9	...........
	59	0.8	1.36936E-001	-9.94021E-005	0.00000E+000	-1.36117E-005	-5.99601E-002	1.36965E-001	3.57770E+000	9	...........
	60	0.813333	1.24895E-001	-9.93708E-005	0.00000E+000	-1.24109E-005	-5.99601E-002	1.24917E-001	3.57770E+000	9	...........
	61	0.826667	1.12899E-001	-9.86176E-005	0.00000E+000	-1.11338E-005	-5.99601E-002	1.12924E-001	3.57770E+000	9	...........
	62	0.84	1.00958E-001	-9.90218E-005	0.00000E+000	-9.99706E-006	-5.99601E-002	1.00981E-001	3.57770E+000	9	...........
	63	0.853333	8.90872E-002	-9.92156E-005	0.00000E+000	-8.83884E-006	-5.99601E-002	8.91018E-002	3.57770E+000	9	...........
	64	0.866667	7.72865E-002	-9.87551E-005	0.00000E+000	-7.63244E-006	-5.99601E-002	7.72991E-002	3.57770E+000	9	...........
	65	0.88	6.55661E-002	-9.87113E-005	0.00000E+000	-6.47212E-006	-5.99601E-002	6.55760E-002	3.57770E+000	9	...........
	66	0.893333	5.39374E-002	-9.93562E-005	0.00000E+000	-5.35902E-006	-5.99601E-002	5.39437E-002	3.57770E+000	9	...........
	67	0.906667	4.24436E-002	-9.90010E-005	0.00000E+000	-4.20195E-006	-5.99601E-002	4.24446E-002	3.57770E+000	9	...........
	68	0.92	3.10431E-002	-9.96292E-005	0.00000E+000	-3.09280E-006	-5.99601E-002	3.10424E-002	3.57770E+000	9	...........
	69	0.933333	1.97736E-002	-9.90249E-005	0.00000E+000	-1.95808E-006	-5.99601E-002	1.97651E-002	3.57770E+000	9	...........
	70	0.946667	8.65218E-003	-9.93104E-005	0.00000E+000	-8.59251E-007	-5.99601E-002	8.63836E-003	3.57770E+000	9	...........
	71	0.95167	1.08536E-003	-9.77212E-005	0.00000E+000	-1.06063E-007	-5.99601E-002	1.06461E-003	3.57770E+000	9	...........
STARTTIMEOFFSET	QUANT	343.9133	Start Time Offset (s)
