EXPLAIN
TAG	PWR800_DISCHARGE
TITLE	LABEL	PWR Cyclic Charge Discharge (Cell) - Discharge Step	Test &Identifier
DATE	LABEL	12-7-2017	Date
TIME	LABEL	16:16:36	Time
NOTES	NOTES	2	&Notes...
	supercap test cell
	6M KOH
PSTAT	PSTAT	IFC5000-01520	Potentiostat
CAPACITY	QUANT	1.00000E-003	Capacity (A-hr)
CELLTYPE	SELECTOR	1	&Cell Type
WORKINGCONNECTION	SELECTOR	0	&Working Lead
MAXDISCHARGETIME	VARIABLEANDUNITS	1.00000E+002	s	1.00000E+002	second(s)	Max &Discharge Time
DISCHARGEMODE	MULTIPARAM	0	1.00000E-004	&Discharge Mode	Constant Current	Amp(s)
SAMPLETIME	QUANT	1.00000E-002	Sa&mple Period (s)
DISCHARGESTOPAT1	MULTIPARAM	3	0.00000E+000	Discharge Stop At &1	Voltage < Limit	V
DISCHARGESTOPAT2	MULTIPARAM	0	0.00000E+000	Discharge Stop At &2	None	N/A
AESBHCSELECTOR	TOGGLE	F	Save Both Half Cells
IRCOMP	TOGGLE	F	IR &Measure
EOC	QUANT	0	Open Circuit (V)
SEQUENCER	TOGGLE	TRUE	Run as Sequence
PSTATMODEL	IQUANT	53	Pstat Model
PSTATSECTION	LABEL	IFC5000-01520	Pstat Section
PSTATSERIALNO	LABEL	01520	Pstat Serial Number
CTRLMODE	IQUANT	0	Control Mode
ELECTROMETER	IQUANT	1	RE=0 or CS=1
IESTAB	IQUANT	0	I/E Stability
CASPEED	IQUANT	4	Control Amp Speed
CONVENTION	IQUANT	1	Current Convention
ICHRANGE	IQUANT	2	Ich Range
ICHRANGEMODE	TOGGLE	T	Ich Auto Range
ICHOFFSETENABLE	TOGGLE	F	Ich Offset Enable
ICHOFFSET	QUANT	0	Ich Offset (V)
ICHFILTER	IQUANT	1	Ich Filter
VCHRANGE	IQUANT	2	Vch Range
VCHRANGEMODE	TOGGLE	T	Vch Auto Range
VCHOFFSETENABLE	TOGGLE	F	Vch Offset Enable
VCHOFFSET	QUANT	0	Vch Offset (V)
VCHFILTER	IQUANT	1	Vch Filter
IERANGELOWERLIMIT	IQUANT	9	I/E Range Lower Limit
IERANGEMODE	TOGGLE	F	I/E AutoRange
IERANGE	IQUANT	9	I/E Range
ACHSELECT	IQUANT	1	Ach Select
ACHRANGE	IQUANT	2	Ach Range
ACHOFFSETENABLE	TOGGLE	F	Ach Offset Enable
ACHOFFSET	QUANT	0	Ach Offset (V)
ACHFILTER	IQUANT	1	Ach Filter
CABLEID	IQUANT	14	Cable ID
DCCALDATE	LABEL	5-7-2017	DC Calibration Date
ACCALDATE	LABEL	12/3/2015	AC Calibration Date
FRAMEWORKVERSION	QUANT	7.01	Framework Version
INSTRUMENTVERSION	LABEL	4.00	Instrument Version
CURVE	TABLE	72
	Pt	T	Vf	Im	Vu	Pwr	Sig	Ach	Temp	IERange	Over
	#	s	V	A	V	W	V	V	deg C	#	bits
	0	0.013333	8.42989E-001	-9.93594E-005	0.00000E+000	-8.37589E-005	-5.99601E-002	8.43333E-001	3.57770E+000	9	...........
	1	0.026667	8.30067E-001	-9.92375E-005	0.00000E+000	-8.23738E-005	-5.99601E-002	8.30402E-001	3.57770E+000	9	...........
	2	0.04	8.17732E-001	-9.95907E-005	0.00000E+000	-8.14385E-005	-5.99601E-002	8.18046E-001	3.57770E+000	9	...........
	3	0.053333	8.05764E-001	-9.86853E-005	0.00000E+000	-7.95171E-005	-5.99601E-002	8.06078E-001	3.57770E+000	9	...........
	4	0.066667	7.94091E-001	-9.87134E-005	0.00000E+000	-7.83874E-005	-5.99601E-002	7.94385E-001	3.57770E+000	9	...........
	5	0.08	7.82583E-001	-9.84227E-005	0.00000E+000	-7.70240E-005	-5.99601E-002	7.82889E-001	3.57770E+000	9	...........
	6	0.093333	7.71267E-001	-9.86936E-005	0.00000E+000	-7.61191E-005	-5.99601E-002	7.71579E-001	3.57770E+000	9	...........
	7	0.106667	7.60095E-001	-9.82664E-005	0.00000E+000	-7.46918E-005	-5.99601E-002	7.60394E-001	3.57770E+000	9	...........
	8	0.12	7.49022E-001	-9.97199E-005	0.00000E+000	-7.46924E-005	-5.99601E-002	7.49295E-001	3.57770E+000	9	...........
	9	0.133333	7.37994E-001	-9.86530E-005	0.00000E+000	-7.28053E-005	-5.99601E-002	7.38283E-001	3.57770E+000	9	...........
	10	0.146667	7.27045E-001	-9.84040E-005	0.00000E+000	-7.15441E-005	-5.99601E-002	7.27316E-001	3.57770E+000	9	...........
	11	0.16	7.16050E-001	-9.91250E-005	0.00000E+000	-7.09784E-005	-5.99601E-002	7.16319E-001	3.57770E+000	9	...........
	12	0.173333	7.05026E-001	-9.87155E-005	0.00000E+000	-6.95970E-005	-5.99601E-002	7.05306E-001	3.57770E+000	9	...........
	13	0.186667	6.93914E-001	-9.90551E-005	0.00000E+000	-6.87358E-005	-5.99601E-002	6.94194E-001	3.57770E+000	9	...........
	14	0.2	6.82685E-001	-9.86728E-005	0.00000E+000	-6.73624E-005	-5.99601E-002	6.82960E-001	3.57770E+000	9	...........
	15	0.213333	6.71335E-001	-9.91812E-005	0.00000E+000	-6.65838E-005	-5.99601E-002	6.71605E-001	3.57770E+000	9	...........
	16	0.226667	6.59837E-001	-9.95136E-005	0.00000E+000	-6.56627E-005	-5.99601E-002	6.60128E-001	3.57770E+000	9	...........
	17	0.24	6.48223E-001	-9.94448E-005	0.00000E+000	-6.44625E-005	-5.99601E-002	6.48499E-001	3.57770E+000	9	...........
	18	0.253333	6.36473E-001	-1.00220E-004	0.00000E+000	-6.37873E-005	-5.99601E-002	6.36772E-001	3.57770E+000	9	...........
	19	0.266667	6.24646E-001	-9.91896E-005	0.00000E+000	-6.19584E-005	-5.99601E-002	6.24928E-001	3.57770E+000	9	...........
	20	0.28	6.12717E-001	-9.86196E-005	0.00000E+000	-6.04259E-005	-5.99601E-002	6.13028E-001	3.57770E+000	9	...........
	21	0.293333	6.00670E-001	-9.81643E-005	0.00000E+000	-5.89643E-005	-5.99601E-002	6.00995E-001	3.57770E+000	9	...........
	22	0.306667	5.88613E-001	-9.93208E-005	0.00000E+000	-5.84615E-005	-5.99601E-002	5.88886E-001	3.57770E+000	9	...........
	23	0.32	5.76448E-001	-9.86488E-005	0.00000E+000	-5.68659E-005	-5.99601E-002	5.76731E-001	3.57770E+000	9	...........
	24	0.333333	5.64242E-001	-9.87874E-005	0.00000E+000	-5.57400E-005	-5.99601E-002	5.64521E-001	3.57770E+000	9	...........
	25	0.346667	5.51984E-001	-9.91260E-005	0.00000E+000	-5.47160E-005	-5.99601E-002	5.52232E-001	3.57770E+000	9	...........
	26	0.36	5.39707E-001	-9.96886E-005	0.00000E+000	-5.38027E-005	-5.99601E-002	5.39934E-001	3.57770E+000	9	...........
	27	0.373333	5.27353E-001	-9.84196E-005	0.00000E+000	-5.19018E-005	-5.99601E-002	5.27586E-001	3.57770E+000	9	...........
	28	0.386667	5.15015E-001	-9.93781E-005	0.00000E+000	-5.11813E-005	-5.99601E-002	5.15249E-001	3.57770E+000	9	...........
	29	0.4	5.02611E-001	-9.80362E-005	0.00000E+000	-4.92741E-005	-5.99601E-002	5.02849E-001	3.57770E+000	9	...........
	30	0.413333	4.90263E-001	-9.87707E-005	0.00000E+000	-4.84236E-005	-5.99601E-002	4.90504E-001	3.57770E+000	9	...........
	31	0.426667	4.78224E-001	-9.86019E-005	0.00000E+000	-4.71538E-005	-5.99601E-002	4.78323E-001	3.57770E+000	9	...........
	32	0.44	4.65851E-001	-9.89395E-005	0.00000E+000	-4.60911E-005	-5.99601E-002	4.65955E-001	3.57770E+000	9	...........
	33	0.453333	4.53492E-001	-9.91656E-005	0.00000E+000	-4.49708E-005	-5.99601E-002	4.53590E-001	3.57770E+000	9	...........
	34	0.466667	4.41145E-001	-9.84467E-005	0.00000E+000	-4.34293E-005	-5.99601E-002	4.41241E-001	3.57770E+000	9	...........
	35	0.48	4.28818E-001	-9.95355E-005	0.00000E+000	-4.26826E-005	-5.99601E-002	4.28915E-001	3.57770E+000	9	...........
	36	0.493333	4.16512E-001	-9.93844E-005	0.00000E+000	-4.13947E-005	-5.99601E-002	4.16602E-001	3.57770E+000	9	...........
	37	0.506667	4.04219E-001	-9.81716E-005	0.00000E+000	-3.96829E-005	-5.99601E-002	4.04302E-001	3.57770E+000	9	...........
	38	0.52	3.91945E-001	-9.92385E-005	0.00000E+000	-3.88961E-005	-5.99601E-002	3.92031E-001	3.57770E+000	9	...........
	39	0.533333	3.79701E-001	-9.97730E-005	0.00000E+000	-3.78839E-005	-5.99601E-002	3.79775E-001	3.57770E+000	9	...........
	40	0.546667	3.67473E-001	-9.88676E-005	0.00000E+000	-3.63312E-005	-5.99601E-002	3.67548E-001	3.57770E+000	9	...........
	41	0.56	3.55269E-001	-9.91593E-005	0.00000E+000	-3.52282E-005	-5.99601E-002	3.55337E-001	3.57770E+000	9	...........
	42	0.573333	3.43082E-001	-9.83571E-005	0.00000E+000	-3.37446E-005	-5.99601E-002	3.43151E-001	3.57770E+000	9	...........
	43	0.586667	3.30916E-001	-9.86103E-005	0.00000E+000	-3.26317E-005	-5.99601E-002	3.30977E-001	3.57770E+000	9	...........
	44	0.6	3.18764E-001	-9.85801E-005	0.00000E+000	-3.14238E-005	-5.99601E-002	3.18836E-001	3.57770E+000	9	...........
	45	0.613333	3.06626E-001	-9.80164E-005	0.00000E+000	-3.00544E-005	-5.99601E-002	3.06687E-001	3.57770E+000	9	...........
	46	0.626667	2.94499E-001	-9.89520E-005	0.00000E+000	-2.91413E-005	-5.99601E-002	2.94561E-001	3.57770E+000	9	...........
	47	0.64	2.82377E-001	-9.86384E-005	0.00000E+000	-2.78532E-005	-5.99601E-002	2.82437E-001	3.57770E+000	9	...........
	48	0.653333	2.70259E-001	-9.92416E-005	0.00000E+000	-2.68209E-005	-5.99601E-002	2.70324E-001	3.57770E+000	9	...........
	49	0.666667	2.58146E-001	-9.89749E-005	0.00000E+000	-2.55500E-005	-5.99601E-002	2.58198E-001	3.57770E+000	9	...........
	50	0.68	2.46021E-001	-9.89614E-005	0.00000E+000	-2.43466E-005	-5.99601E-002	2.46070E-001	3.57770E+000	9	...........
	51	0.693333	2.33908E-001	-9.84290E-005	0.00000E+000	-2.30233E-005	-5.99601E-002	2.33950E-001	3.57770E+000	9	...........
	52	0.706667	2.21786E-001	-9.78830E-005	0.00000E+000	-2.17091E-005	-5.99601E-002	2.21833E-001	3.57770E+000	9	...........
	53	0.72	2.09673E-001	-9.85613E-005	0.00000E+000	-2.06656E-005	-5.99601E-002	2.09711E-001	3.57770E+000	9	...........
	54	0.733333	1.97563E-001	-9.92093E-005	0.00000E+000	-1.96001E-005	-5.99601E-002	1.97603E-001	3.57770E+000	9	...........
	55	0.746667	1.85474E-001	-9.76726E-005	0.00000E+000	-1.81157E-005	-5.99601E-002	1.85506E-001	3.57770E+000	9	...........
	56	0.76	1.73383E-001	-9.83165E-005	0.00000E+000	-1.70464E-005	-5.99601E-002	1.73418E-001	3.57780E+000	9	...........
	57	0.773333	1.61316E-001	-9.91635E-005	0.00000E+000	-1.59967E-005	-5.99601E-002	1.61350E-001	3.57850E+000	9	...........
	58	0.786667	1.49284E-001	-9.85790E-005	0.00000E+000	-1.47162E-005	-5.99601E-002	1.49312E-001	3.57850E+000	9	...........
	59	0.8	1.37276E-001	-9.91573E-005	0.00000E+000	-1.36119E-005	-5.99601E-002	1.37301E-001	3.57850E+000	9	...........
	60	0.813333	1.25295E-001	-9.94219E-005	0.00000E+000	-1.24570E-005	-5.99601E-002	1.25320E-001	3.57850E+000	9	...........
	61	0.826667	1.13366E-001	-9.87905E-005	0.00000E+000	-1.11995E-005	-5.99601E-002	1.13384E-001	3.57850E+000	9	...........
	62	0.84	1.01483E-001	-9.87447E-005	0.00000E+000	-1.00209E-005	-5.99601E-002	1.01503E-001	3.57850E+000	9	...........
	63	0.853333	8.96633E-002	-9.87749E-005	0.00000E+000	-8.85648E-006	-5.99601E-002	8.96809E-002	3.57850E+000	9	...........
	64	0.866667	7.79120E-002	-9.90572E-005	0.00000E+000	-7.71774E-006	-5.99601E-002	7.79201E-002	3.57850E+000	9	...........
	65	0.88	6.62442E-002	-9.90968E-005	0.00000E+000	-6.56459E-006	-5.99601E-002	6.62541E-002	3.57850E+000	9	...........
	66	0.893333	5.46684E-002	-9.87415E-005	0.00000E+000	-5.39804E-006	-5.99601E-002	5.46714E-002	3.57850E+000	9	...........
	67	0.906667	4.32249E-002	-9.88759E-005	0.00000E+000	-4.27390E-006	-5.99601E-002	4.32341E-002	3.57850E+000	9	...........
	68	0.92	3.18751E-002	-9.82383E-005	0.00000E+000	-3.13135E-006	-5.99601E-002	3.18738E-002	3.57850E+000	9	...........
	69	0.933333	2.06514E-002	-9.89864E-005	0.00000E+000	-2.04421E-006	-5.99601E-002	2.06409E-002	3.57850E+000	9	...........
	70	0.946667	9.57330E-003	-9.90760E-005	0.00000E+000	-9.48485E-007	-5.99601E-002	9.55378E-003	3.57850E+000	9	...........
	71	0.95333	1.34863E-003	-9.99168E-005	0.00000E+000	-1.34750E-007	-5.99601E-002	1.32901E-003	3.57850E+000	9	...........
STARTTIMEOFFSET	QUANT	279.8733	Start Time Offset (s)
