EXPLAIN
TAG	PWR800_DISCHARGE
TITLE	LABEL	PWR Cyclic Charge Discharge (Cell) - Discharge Step	Test &Identifier
DATE	LABEL	12-7-2017	Date
TIME	LABEL	16:53:04	Time
NOTES	NOTES	2	&Notes...
	supercap test cell
	6M KOH
PSTAT	PSTAT	IFC5000-01520	Potentiostat
CAPACITY	QUANT	1.00000E-003	Capacity (A-hr)
CELLTYPE	SELECTOR	1	&Cell Type
WORKINGCONNECTION	SELECTOR	0	&Working Lead
MAXDISCHARGETIME	VARIABLEANDUNITS	1.00000E+002	s	1.00000E+002	second(s)	Max &Discharge Time
DISCHARGEMODE	MULTIPARAM	0	1.00000E-004	&Discharge Mode	Constant Current	Amp(s)
SAMPLETIME	QUANT	1.00000E-002	Sa&mple Period (s)
DISCHARGESTOPAT1	MULTIPARAM	3	0.00000E+000	Discharge Stop At &1	Voltage < Limit	V
DISCHARGESTOPAT2	MULTIPARAM	0	0.00000E+000	Discharge Stop At &2	None	N/A
AESBHCSELECTOR	TOGGLE	F	Save Both Half Cells
IRCOMP	TOGGLE	F	IR &Measure
EOC	QUANT	0	Open Circuit (V)
SEQUENCER	TOGGLE	TRUE	Run as Sequence
PSTATMODEL	IQUANT	53	Pstat Model
PSTATSECTION	LABEL	IFC5000-01520	Pstat Section
PSTATSERIALNO	LABEL	01520	Pstat Serial Number
CTRLMODE	IQUANT	0	Control Mode
ELECTROMETER	IQUANT	1	RE=0 or CS=1
IESTAB	IQUANT	0	I/E Stability
CASPEED	IQUANT	4	Control Amp Speed
CONVENTION	IQUANT	1	Current Convention
ICHRANGE	IQUANT	2	Ich Range
ICHRANGEMODE	TOGGLE	T	Ich Auto Range
ICHOFFSETENABLE	TOGGLE	F	Ich Offset Enable
ICHOFFSET	QUANT	0	Ich Offset (V)
ICHFILTER	IQUANT	1	Ich Filter
VCHRANGE	IQUANT	2	Vch Range
VCHRANGEMODE	TOGGLE	T	Vch Auto Range
VCHOFFSETENABLE	TOGGLE	F	Vch Offset Enable
VCHOFFSET	QUANT	0	Vch Offset (V)
VCHFILTER	IQUANT	1	Vch Filter
IERANGELOWERLIMIT	IQUANT	9	I/E Range Lower Limit
IERANGEMODE	TOGGLE	F	I/E AutoRange
IERANGE	IQUANT	9	I/E Range
ACHSELECT	IQUANT	1	Ach Select
ACHRANGE	IQUANT	2	Ach Range
ACHOFFSETENABLE	TOGGLE	F	Ach Offset Enable
ACHOFFSET	QUANT	0	Ach Offset (V)
ACHFILTER	IQUANT	1	Ach Filter
CABLEID	IQUANT	14	Cable ID
DCCALDATE	LABEL	5-7-2017	DC Calibration Date
ACCALDATE	LABEL	12/3/2015	AC Calibration Date
FRAMEWORKVERSION	QUANT	7.01	Framework Version
INSTRUMENTVERSION	LABEL	4.00	Instrument Version
CURVE	TABLE	70
	Pt	T	Vf	Im	Vu	Pwr	Sig	Ach	Temp	IERange	Over
	#	s	V	A	V	W	V	V	deg C	#	bits
	0	0.013333	8.44879E-001	-9.84144E-005	0.00000E+000	-8.31482E-005	-5.99601E-002	8.45156E-001	3.57680E+000	9	...........
	1	0.026667	8.31636E-001	-9.84279E-005	0.00000E+000	-8.18562E-005	-5.99601E-002	8.31930E-001	3.57680E+000	9	...........
	2	0.04	8.19000E-001	-9.90166E-005	0.00000E+000	-8.10946E-005	-5.99601E-002	8.19283E-001	3.57680E+000	9	...........
	3	0.053333	8.06720E-001	-9.76205E-005	0.00000E+000	-7.87524E-005	-5.99601E-002	8.06980E-001	3.57680E+000	9	...........
	4	0.066667	7.94715E-001	-9.70287E-005	0.00000E+000	-7.71102E-005	-5.99601E-002	7.94968E-001	3.57680E+000	9	...........
	5	0.08	7.82901E-001	-9.77945E-005	0.00000E+000	-7.65634E-005	-5.99601E-002	7.83130E-001	3.57680E+000	9	...........
	6	0.093333	7.71234E-001	-9.93729E-005	0.00000E+000	-7.66398E-005	-5.99601E-002	7.71470E-001	3.57680E+000	9	...........
	7	0.106667	7.59692E-001	-1.00228E-004	0.00000E+000	-7.61427E-005	-5.99601E-002	7.59920E-001	3.57680E+000	9	...........
	8	0.12	7.48248E-001	-9.90708E-005	0.00000E+000	-7.41295E-005	-5.99601E-002	7.48481E-001	3.57680E+000	9	...........
	9	0.133333	7.36874E-001	-9.95636E-005	0.00000E+000	-7.33658E-005	-5.99601E-002	7.37139E-001	3.57680E+000	9	...........
	10	0.146667	7.25638E-001	-9.97230E-005	0.00000E+000	-7.23628E-005	-5.99601E-002	7.25906E-001	3.57680E+000	9	...........
	11	0.16	7.14452E-001	-9.86582E-005	0.00000E+000	-7.04865E-005	-5.99601E-002	7.14706E-001	3.57680E+000	9	...........
	12	0.173333	7.03361E-001	-9.83915E-005	0.00000E+000	-6.92048E-005	-5.99601E-002	7.03611E-001	3.57680E+000	9	...........
	13	0.186667	6.92359E-001	-9.83352E-005	0.00000E+000	-6.80832E-005	-5.99601E-002	6.92622E-001	3.57680E+000	9	...........
	14	0.2	6.81421E-001	-9.85842E-005	0.00000E+000	-6.71773E-005	-5.99601E-002	6.81657E-001	3.57680E+000	9	...........
	15	0.213333	6.70578E-001	-9.94667E-005	0.00000E+000	-6.67002E-005	-5.99601E-002	6.70794E-001	3.57680E+000	9	...........
	16	0.226667	6.59747E-001	-9.79341E-005	0.00000E+000	-6.46117E-005	-5.99601E-002	6.59990E-001	3.57680E+000	9	...........
	17	0.24	6.48955E-001	-9.88280E-005	0.00000E+000	-6.41349E-005	-5.99601E-002	6.49192E-001	3.57680E+000	9	...........
	18	0.253333	6.38145E-001	-9.94604E-005	0.00000E+000	-6.34702E-005	-5.99601E-002	6.38378E-001	3.57680E+000	9	...........
	19	0.266667	6.27268E-001	-9.97563E-005	0.00000E+000	-6.25740E-005	-5.99601E-002	6.27483E-001	3.57680E+000	9	...........
	20	0.28	6.16250E-001	-9.87572E-005	0.00000E+000	-6.08592E-005	-5.99601E-002	6.16487E-001	3.57680E+000	9	...........
	21	0.293333	6.05038E-001	-9.91750E-005	0.00000E+000	-6.00046E-005	-5.99601E-002	6.05290E-001	3.57680E+000	9	...........
	22	0.306667	5.93695E-001	-9.85967E-005	0.00000E+000	-5.85363E-005	-5.99601E-002	5.93920E-001	3.57680E+000	9	...........
	23	0.32	5.82078E-001	-9.89187E-005	0.00000E+000	-5.75784E-005	-5.99601E-002	5.82350E-001	3.57680E+000	9	...........
	24	0.333333	5.70315E-001	-1.00354E-004	0.00000E+000	-5.72336E-005	-5.99601E-002	5.70540E-001	3.57680E+000	9	...........
	25	0.346667	5.58262E-001	-9.80299E-005	0.00000E+000	-5.47263E-005	-5.99601E-002	5.58527E-001	3.57680E+000	9	...........
	26	0.36	5.46095E-001	-9.94938E-005	0.00000E+000	-5.43330E-005	-5.99601E-002	5.46305E-001	3.57680E+000	9	...........
	27	0.373333	5.33676E-001	-9.81560E-005	0.00000E+000	-5.23835E-005	-5.99601E-002	5.33894E-001	3.57680E+000	9	...........
	28	0.386667	5.21103E-001	-9.91583E-005	0.00000E+000	-5.16717E-005	-5.99601E-002	5.21324E-001	3.57680E+000	9	...........
	29	0.4	5.08364E-001	-9.91437E-005	0.00000E+000	-5.04011E-005	-5.99601E-002	5.08593E-001	3.57680E+000	9	...........
	30	0.413333	4.95503E-001	-9.93375E-005	0.00000E+000	-4.92221E-005	-5.99601E-002	4.95709E-001	3.57680E+000	9	...........
	31	0.426667	4.82702E-001	-9.86967E-005	0.00000E+000	-4.76411E-005	-5.99601E-002	4.82843E-001	3.57680E+000	9	...........
	32	0.44	4.69710E-001	-9.74611E-005	0.00000E+000	-4.57785E-005	-5.99601E-002	4.69805E-001	3.57680E+000	9	...........
	33	0.453333	4.56513E-001	-9.86144E-005	0.00000E+000	-4.50188E-005	-5.99601E-002	4.56602E-001	3.57680E+000	9	...........
	34	0.466667	4.43231E-001	-9.92531E-005	0.00000E+000	-4.39920E-005	-5.99601E-002	4.43327E-001	3.57680E+000	9	...........
	35	0.48	4.29894E-001	-9.81841E-005	0.00000E+000	-4.22088E-005	-5.99601E-002	4.29981E-001	3.57680E+000	9	...........
	36	0.493333	4.16499E-001	-9.95532E-005	0.00000E+000	-4.14638E-005	-5.99601E-002	4.16584E-001	3.57680E+000	9	...........
	37	0.506667	4.03073E-001	-9.81237E-005	0.00000E+000	-3.95511E-005	-5.99601E-002	4.03153E-001	3.57680E+000	9	...........
	38	0.52	3.89608E-001	-9.92583E-005	0.00000E+000	-3.86719E-005	-5.99601E-002	3.89688E-001	3.57680E+000	9	...........
	39	0.533333	3.76135E-001	-9.88884E-005	0.00000E+000	-3.71954E-005	-5.99601E-002	3.76207E-001	3.57680E+000	9	...........
	40	0.546667	3.62658E-001	-9.80185E-005	0.00000E+000	-3.55472E-005	-5.99601E-002	3.62731E-001	3.57680E+000	9	...........
	41	0.56	3.49180E-001	-9.95209E-005	0.00000E+000	-3.47507E-005	-5.99601E-002	3.49253E-001	3.57680E+000	9	...........
	42	0.573333	3.35730E-001	-9.85998E-005	0.00000E+000	-3.31030E-005	-5.99601E-002	3.35795E-001	3.57680E+000	9	...........
	43	0.586667	3.22311E-001	-9.89187E-005	0.00000E+000	-3.18826E-005	-5.99601E-002	3.22373E-001	3.57680E+000	9	...........
	44	0.6	3.08927E-001	-9.76267E-005	0.00000E+000	-3.01595E-005	-5.99601E-002	3.08991E-001	3.57680E+000	9	...........
	45	0.613333	2.95597E-001	-9.94490E-005	0.00000E+000	-2.93968E-005	-5.99601E-002	2.95656E-001	3.57680E+000	9	...........
	46	0.626667	2.82316E-001	-1.00351E-004	0.00000E+000	-2.83308E-005	-5.99601E-002	2.82374E-001	3.57680E+000	9	...........
	47	0.64	2.69102E-001	-9.83592E-005	0.00000E+000	-2.64687E-005	-5.99601E-002	2.69160E-001	3.57680E+000	9	...........
	48	0.653333	2.55947E-001	-9.78299E-005	0.00000E+000	-2.50393E-005	-5.99601E-002	2.55998E-001	3.57680E+000	9	...........
	49	0.666667	2.42863E-001	-9.80831E-005	0.00000E+000	-2.38208E-005	-5.99601E-002	2.42910E-001	3.57680E+000	9	...........
	50	0.68	2.29857E-001	-9.88843E-005	0.00000E+000	-2.27293E-005	-5.99601E-002	2.29900E-001	3.57680E+000	9	...........
	51	0.693333	2.16926E-001	-9.88499E-005	0.00000E+000	-2.14431E-005	-5.99601E-002	2.16971E-001	3.57680E+000	9	...........
	52	0.706667	2.04074E-001	-9.84811E-005	0.00000E+000	-2.00974E-005	-5.99601E-002	2.04115E-001	3.57692E+000	9	...........
	53	0.72	1.91290E-001	-9.88228E-005	0.00000E+000	-1.89038E-005	-5.99601E-002	1.91335E-001	3.57780E+000	9	...........
	54	0.733333	1.78592E-001	-9.90458E-005	0.00000E+000	-1.76887E-005	-5.99601E-002	1.78632E-001	3.57780E+000	9	...........
	55	0.746667	1.65972E-001	-9.79382E-005	0.00000E+000	-1.62550E-005	-5.99601E-002	1.66001E-001	3.57780E+000	9	...........
	56	0.76	1.53423E-001	-9.72173E-005	0.00000E+000	-1.49154E-005	-5.99601E-002	1.53455E-001	3.57780E+000	9	...........
	57	0.773333	1.40953E-001	-9.91468E-005	0.00000E+000	-1.39750E-005	-5.99601E-002	1.40974E-001	3.57780E+000	9	...........
	58	0.786667	1.28557E-001	-9.96178E-005	0.00000E+000	-1.28066E-005	-5.99601E-002	1.28582E-001	3.57780E+000	9	...........
	59	0.8	1.16248E-001	-9.98053E-005	0.00000E+000	-1.16022E-005	-5.99601E-002	1.16271E-001	3.57780E+000	9	...........
	60	0.813333	1.04041E-001	-9.81904E-005	0.00000E+000	-1.02158E-005	-5.99601E-002	1.04058E-001	3.57780E+000	9	...........
	61	0.826667	9.19178E-002	-9.75402E-005	0.00000E+000	-8.96568E-006	-5.99601E-002	9.19380E-002	3.57780E+000	9	...........
	62	0.84	7.99071E-002	-9.84759E-005	0.00000E+000	-7.86892E-006	-5.99601E-002	7.99177E-002	3.57780E+000	9	...........
	63	0.853333	6.80162E-002	-9.80018E-005	0.00000E+000	-6.66571E-006	-5.99601E-002	6.80214E-002	3.57780E+000	9	...........
	64	0.866667	5.62540E-002	-9.92344E-005	0.00000E+000	-5.58233E-006	-5.99601E-002	5.62581E-002	3.57780E+000	9	...........
	65	0.88	4.46562E-002	-9.82717E-005	0.00000E+000	-4.38844E-006	-5.99601E-002	4.46601E-002	3.57780E+000	9	...........
	66	0.893333	3.31885E-002	-9.96188E-005	0.00000E+000	-3.30620E-006	-5.99601E-002	3.31874E-002	3.57780E+000	9	...........
	67	0.906667	2.18723E-002	-9.82456E-005	0.00000E+000	-2.14886E-006	-5.99601E-002	2.18669E-002	3.57780E+000	9	...........
	68	0.92	1.07261E-002	-9.89843E-005	0.00000E+000	-1.06172E-006	-5.99601E-002	1.07131E-002	3.57780E+000	9	...........
	69	0.928333	1.80057E-003	-9.86419E-005	0.00000E+000	-1.77612E-007	-5.99601E-002	1.78072E-003	3.57780E+000	9	...........
STARTTIMEOFFSET	QUANT	1833.653	Start Time Offset (s)
