EXPLAIN
TAG	PWR800_DISCHARGE
TITLE	LABEL	PWR Cyclic Charge Discharge (Cell) - Discharge Step	Test &Identifier
DATE	LABEL	12-7-2017	Date
TIME	LABEL	16:36:27	Time
NOTES	NOTES	2	&Notes...
	supercap test cell
	6M KOH
PSTAT	PSTAT	IFC5000-01520	Potentiostat
CAPACITY	QUANT	1.00000E-003	Capacity (A-hr)
CELLTYPE	SELECTOR	1	&Cell Type
WORKINGCONNECTION	SELECTOR	0	&Working Lead
MAXDISCHARGETIME	VARIABLEANDUNITS	1.00000E+002	s	1.00000E+002	second(s)	Max &Discharge Time
DISCHARGEMODE	MULTIPARAM	0	1.00000E-004	&Discharge Mode	Constant Current	Amp(s)
SAMPLETIME	QUANT	1.00000E-002	Sa&mple Period (s)
DISCHARGESTOPAT1	MULTIPARAM	3	0.00000E+000	Discharge Stop At &1	Voltage < Limit	V
DISCHARGESTOPAT2	MULTIPARAM	0	0.00000E+000	Discharge Stop At &2	None	N/A
AESBHCSELECTOR	TOGGLE	F	Save Both Half Cells
IRCOMP	TOGGLE	F	IR &Measure
EOC	QUANT	0	Open Circuit (V)
SEQUENCER	TOGGLE	TRUE	Run as Sequence
PSTATMODEL	IQUANT	53	Pstat Model
PSTATSECTION	LABEL	IFC5000-01520	Pstat Section
PSTATSERIALNO	LABEL	01520	Pstat Serial Number
CTRLMODE	IQUANT	0	Control Mode
ELECTROMETER	IQUANT	1	RE=0 or CS=1
IESTAB	IQUANT	0	I/E Stability
CASPEED	IQUANT	4	Control Amp Speed
CONVENTION	IQUANT	1	Current Convention
ICHRANGE	IQUANT	2	Ich Range
ICHRANGEMODE	TOGGLE	T	Ich Auto Range
ICHOFFSETENABLE	TOGGLE	F	Ich Offset Enable
ICHOFFSET	QUANT	0	Ich Offset (V)
ICHFILTER	IQUANT	1	Ich Filter
VCHRANGE	IQUANT	2	Vch Range
VCHRANGEMODE	TOGGLE	T	Vch Auto Range
VCHOFFSETENABLE	TOGGLE	F	Vch Offset Enable
VCHOFFSET	QUANT	0	Vch Offset (V)
VCHFILTER	IQUANT	1	Vch Filter
IERANGELOWERLIMIT	IQUANT	9	I/E Range Lower Limit
IERANGEMODE	TOGGLE	F	I/E AutoRange
IERANGE	IQUANT	9	I/E Range
ACHSELECT	IQUANT	1	Ach Select
ACHRANGE	IQUANT	2	Ach Range
ACHOFFSETENABLE	TOGGLE	F	Ach Offset Enable
ACHOFFSET	QUANT	0	Ach Offset (V)
ACHFILTER	IQUANT	1	Ach Filter
CABLEID	IQUANT	14	Cable ID
DCCALDATE	LABEL	5-7-2017	DC Calibration Date
ACCALDATE	LABEL	12/3/2015	AC Calibration Date
FRAMEWORKVERSION	QUANT	7.01	Framework Version
INSTRUMENTVERSION	LABEL	4.00	Instrument Version
CURVE	TABLE	71
	Pt	T	Vf	Im	Vu	Pwr	Sig	Ach	Temp	IERange	Over
	#	s	V	A	V	W	V	V	deg C	#	bits
	0	0.013333	8.44894E-001	-9.91020E-005	0.00000E+000	-8.37307E-005	-5.99601E-002	8.45203E-001	3.57690E+000	9	...........
	1	0.026667	8.31820E-001	-1.00110E-004	0.00000E+000	-8.32731E-005	-5.99601E-002	8.32137E-001	3.57690E+000	9	...........
	2	0.04	8.19326E-001	-9.90708E-005	0.00000E+000	-8.11712E-005	-5.99601E-002	8.19648E-001	3.57690E+000	9	...........
	3	0.053333	8.07217E-001	-9.96563E-005	0.00000E+000	-8.04443E-005	-5.99601E-002	8.07532E-001	3.57690E+000	9	...........
	4	0.066667	7.95389E-001	-9.82675E-005	0.00000E+000	-7.81609E-005	-5.99601E-002	7.95680E-001	3.57690E+000	9	...........
	5	0.08	7.83739E-001	-9.89603E-005	0.00000E+000	-7.75590E-005	-5.99601E-002	7.84035E-001	3.57671E+000	9	...........
	6	0.093333	7.72266E-001	-9.85467E-005	0.00000E+000	-7.61042E-005	-5.99601E-002	7.72571E-001	3.57660E+000	9	...........
	7	0.106667	7.60926E-001	-9.83873E-005	0.00000E+000	-7.48655E-005	-5.99601E-002	7.61206E-001	3.57660E+000	9	...........
	8	0.12	7.49692E-001	-9.88301E-005	0.00000E+000	-7.40922E-005	-5.99601E-002	7.49974E-001	3.57660E+000	9	...........
	9	0.133333	7.38542E-001	-9.90208E-005	0.00000E+000	-7.31310E-005	-5.99601E-002	7.38810E-001	3.57660E+000	9	...........
	10	0.146667	7.27519E-001	-9.95532E-005	0.00000E+000	-7.24268E-005	-5.99601E-002	7.27758E-001	3.57660E+000	9	...........
	11	0.16	7.16558E-001	-9.88405E-005	0.00000E+000	-7.08249E-005	-5.99601E-002	7.16805E-001	3.57660E+000	9	...........
	12	0.173333	7.05711E-001	-9.82550E-005	0.00000E+000	-6.93396E-005	-5.99601E-002	7.05944E-001	3.57660E+000	9	...........
	13	0.186667	6.94915E-001	-9.90281E-005	0.00000E+000	-6.88160E-005	-5.99601E-002	6.95157E-001	3.57660E+000	9	...........
	14	0.2	6.84203E-001	-9.97282E-005	0.00000E+000	-6.82343E-005	-5.99601E-002	6.84429E-001	3.57660E+000	9	...........
	15	0.213333	6.73514E-001	-9.93219E-005	0.00000E+000	-6.68947E-005	-5.99601E-002	6.73738E-001	3.57660E+000	9	...........
	16	0.226667	6.62865E-001	-9.85498E-005	0.00000E+000	-6.53253E-005	-5.99601E-002	6.63089E-001	3.57660E+000	9	...........
	17	0.24	6.52190E-001	-9.87874E-005	0.00000E+000	-6.44281E-005	-5.99601E-002	6.52414E-001	3.57660E+000	9	...........
	18	0.253333	6.41445E-001	-9.82560E-005	0.00000E+000	-6.30258E-005	-5.99601E-002	6.41704E-001	3.57660E+000	9	...........
	19	0.266667	6.30587E-001	-9.75517E-005	0.00000E+000	-6.15148E-005	-5.99601E-002	6.30826E-001	3.57660E+000	9	...........
	20	0.28	6.19602E-001	-9.90666E-005	0.00000E+000	-6.13818E-005	-5.99601E-002	6.19821E-001	3.57660E+000	9	...........
	21	0.293333	6.08334E-001	-9.81893E-005	0.00000E+000	-5.97319E-005	-5.99601E-002	6.08641E-001	3.57660E+000	9	...........
	22	0.306667	5.96988E-001	-9.94834E-005	0.00000E+000	-5.93904E-005	-5.99601E-002	5.97247E-001	3.57660E+000	9	...........
	23	0.32	5.85388E-001	-9.73215E-005	0.00000E+000	-5.69708E-005	-5.99601E-002	5.85651E-001	3.57660E+000	9	...........
	24	0.333333	5.73611E-001	-9.87665E-005	0.00000E+000	-5.66536E-005	-5.99601E-002	5.73867E-001	3.57660E+000	9	...........
	25	0.346667	5.61623E-001	-9.78414E-005	0.00000E+000	-5.49499E-005	-5.99601E-002	5.61887E-001	3.57660E+000	9	...........
	26	0.36	5.49469E-001	-9.96824E-005	0.00000E+000	-5.47724E-005	-5.99601E-002	5.49712E-001	3.57660E+000	9	...........
	27	0.373333	5.37154E-001	-9.76965E-005	0.00000E+000	-5.24781E-005	-5.99601E-002	5.37412E-001	3.57660E+000	9	...........
	28	0.386667	5.24678E-001	-9.87884E-005	0.00000E+000	-5.18321E-005	-5.99601E-002	5.24942E-001	3.57660E+000	9	...........
	29	0.4	5.12087E-001	-9.95334E-005	0.00000E+000	-5.09697E-005	-5.99601E-002	5.12348E-001	3.57660E+000	9	...........
	30	0.413333	4.99345E-001	-9.80435E-005	0.00000E+000	-4.89575E-005	-5.99601E-002	4.99598E-001	3.57660E+000	9	...........
	31	0.426667	4.86606E-001	-9.86582E-005	0.00000E+000	-4.80077E-005	-5.99601E-002	4.86806E-001	3.57660E+000	9	...........
	32	0.44	4.73921E-001	-9.78299E-005	0.00000E+000	-4.63636E-005	-5.99601E-002	4.74021E-001	3.57660E+000	9	...........
	33	0.453333	4.60921E-001	-9.85728E-005	0.00000E+000	-4.54342E-005	-5.99601E-002	4.61022E-001	3.57660E+000	9	...........
	34	0.466667	4.47846E-001	-9.83258E-005	0.00000E+000	-4.40348E-005	-5.99601E-002	4.47940E-001	3.57660E+000	9	...........
	35	0.48	4.34712E-001	-9.89624E-005	0.00000E+000	-4.30201E-005	-5.99601E-002	4.34806E-001	3.57660E+000	9	...........
	36	0.493333	4.21533E-001	-9.84748E-005	0.00000E+000	-4.15104E-005	-5.99601E-002	4.21622E-001	3.57660E+000	9	...........
	37	0.506667	4.08325E-001	-9.99553E-005	0.00000E+000	-4.08143E-005	-5.99601E-002	4.08407E-001	3.57660E+000	9	...........
	38	0.52	3.95101E-001	-9.80695E-005	0.00000E+000	-3.87474E-005	-5.99601E-002	3.95179E-001	3.57660E+000	9	...........
	39	0.533333	3.81862E-001	-9.85738E-005	0.00000E+000	-3.76416E-005	-5.99601E-002	3.81937E-001	3.57660E+000	9	...........
	40	0.546667	3.68629E-001	-1.00064E-004	0.00000E+000	-3.68863E-005	-5.99601E-002	3.68701E-001	3.57660E+000	9	...........
	41	0.56	3.55415E-001	-9.99376E-005	0.00000E+000	-3.55193E-005	-5.99601E-002	3.55484E-001	3.57660E+000	9	...........
	42	0.573333	3.42224E-001	-9.89593E-005	0.00000E+000	-3.38662E-005	-5.99601E-002	3.42290E-001	3.57660E+000	9	...........
	43	0.586667	3.29064E-001	-9.85769E-005	0.00000E+000	-3.24381E-005	-5.99601E-002	3.29127E-001	3.57660E+000	9	...........
	44	0.6	3.15943E-001	-9.90520E-005	0.00000E+000	-3.12948E-005	-5.99601E-002	3.16004E-001	3.57660E+000	9	...........
	45	0.613333	3.02862E-001	-9.81800E-005	0.00000E+000	-2.97350E-005	-5.99601E-002	3.02921E-001	3.57660E+000	9	...........
	46	0.626667	2.89831E-001	-9.94959E-005	0.00000E+000	-2.88370E-005	-5.99601E-002	2.89880E-001	3.57660E+000	9	...........
	47	0.64	2.76862E-001	-9.83717E-005	0.00000E+000	-2.72353E-005	-5.99601E-002	2.76916E-001	3.57660E+000	9	...........
	48	0.653333	2.63949E-001	-9.86644E-005	0.00000E+000	-2.60424E-005	-5.99601E-002	2.64003E-001	3.57660E+000	9	...........
	49	0.666667	2.51106E-001	-9.90406E-005	0.00000E+000	-2.48696E-005	-5.99601E-002	2.51153E-001	3.57660E+000	9	...........
	50	0.68	2.38325E-001	-9.77247E-005	0.00000E+000	-2.32902E-005	-5.99601E-002	2.38361E-001	3.57660E+000	9	...........
	51	0.693333	2.25600E-001	-9.87478E-005	0.00000E+000	-2.22775E-005	-5.99601E-002	2.25637E-001	3.57660E+000	9	...........
	52	0.706667	2.12940E-001	-9.94094E-005	0.00000E+000	-2.11682E-005	-5.99601E-002	2.12981E-001	3.57660E+000	9	...........
	53	0.72	2.00347E-001	-9.89760E-005	0.00000E+000	-1.98296E-005	-5.99601E-002	2.00385E-001	3.57660E+000	9	...........
	54	0.733333	1.87814E-001	-9.88905E-005	0.00000E+000	-1.85731E-005	-5.99601E-002	1.87848E-001	3.57660E+000	9	...........
	55	0.746667	1.75338E-001	-9.84196E-005	0.00000E+000	-1.72567E-005	-5.99601E-002	1.75370E-001	3.57660E+000	9	...........
	56	0.76	1.62929E-001	-9.90718E-005	0.00000E+000	-1.61416E-005	-5.99601E-002	1.62958E-001	3.57660E+000	9	...........
	57	0.773333	1.50581E-001	-9.84196E-005	0.00000E+000	-1.48202E-005	-5.99601E-002	1.50604E-001	3.57660E+000	9	...........
	58	0.786667	1.38287E-001	-9.95021E-005	0.00000E+000	-1.37599E-005	-5.99601E-002	1.38314E-001	3.57660E+000	9	...........
	59	0.8	1.26070E-001	-9.94427E-005	0.00000E+000	-1.25367E-005	-5.99601E-002	1.26092E-001	3.57660E+000	9	...........
	60	0.813333	1.13917E-001	-9.87197E-005	0.00000E+000	-1.12459E-005	-5.99601E-002	1.13935E-001	3.57660E+000	9	...........
	61	0.826667	1.01854E-001	-9.82425E-005	0.00000E+000	-1.00064E-005	-5.99601E-002	1.01870E-001	3.57660E+000	9	...........
	62	0.84	8.98758E-002	-9.76184E-005	0.00000E+000	-8.77353E-006	-5.99601E-002	8.98872E-002	3.57660E+000	9	...........
	63	0.853333	7.79935E-002	-9.92708E-005	0.00000E+000	-7.74248E-006	-5.99601E-002	7.80016E-002	3.57660E+000	9	...........
	64	0.866667	6.62235E-002	-9.71277E-005	0.00000E+000	-6.43213E-006	-5.99601E-002	6.62310E-002	3.57660E+000	9	...........
	65	0.88	5.45627E-002	-9.93656E-005	0.00000E+000	-5.42166E-006	-5.99601E-002	5.45690E-002	3.57660E+000	9	...........
	66	0.893333	4.30705E-002	-9.79216E-005	0.00000E+000	-4.21753E-006	-5.99601E-002	4.30706E-002	3.57660E+000	9	...........
	67	0.906667	3.16855E-002	-9.87332E-005	0.00000E+000	-3.12841E-006	-5.99601E-002	3.16824E-002	3.57660E+000	9	...........
	68	0.92	2.04422E-002	-9.82300E-005	0.00000E+000	-2.00804E-006	-5.99601E-002	2.04369E-002	3.57660E+000	9	...........
	69	0.933333	9.35645E-003	-9.95823E-005	0.00000E+000	-9.31737E-007	-5.99601E-002	9.34362E-003	3.57660E+000	9	...........
	70	0.94	1.15634E-003	-9.80226E-005	0.00000E+000	-1.13347E-007	-5.99601E-002	1.13783E-003	3.57660E+000	9	...........
STARTTIMEOFFSET	QUANT	1128.17	Start Time Offset (s)
