EXPLAIN
TAG	PWR800_DISCHARGE
TITLE	LABEL	PWR Cyclic Charge Discharge (Cell) - Discharge Step	Test &Identifier
DATE	LABEL	12-7-2017	Date
TIME	LABEL	16:21:23	Time
NOTES	NOTES	2	&Notes...
	supercap test cell
	6M KOH
PSTAT	PSTAT	IFC5000-01520	Potentiostat
CAPACITY	QUANT	1.00000E-003	Capacity (A-hr)
CELLTYPE	SELECTOR	1	&Cell Type
WORKINGCONNECTION	SELECTOR	0	&Working Lead
MAXDISCHARGETIME	VARIABLEANDUNITS	1.00000E+002	s	1.00000E+002	second(s)	Max &Discharge Time
DISCHARGEMODE	MULTIPARAM	0	1.00000E-004	&Discharge Mode	Constant Current	Amp(s)
SAMPLETIME	QUANT	1.00000E-002	Sa&mple Period (s)
DISCHARGESTOPAT1	MULTIPARAM	3	0.00000E+000	Discharge Stop At &1	Voltage < Limit	V
DISCHARGESTOPAT2	MULTIPARAM	0	0.00000E+000	Discharge Stop At &2	None	N/A
AESBHCSELECTOR	TOGGLE	F	Save Both Half Cells
IRCOMP	TOGGLE	F	IR &Measure
EOC	QUANT	0	Open Circuit (V)
SEQUENCER	TOGGLE	TRUE	Run as Sequence
PSTATMODEL	IQUANT	53	Pstat Model
PSTATSECTION	LABEL	IFC5000-01520	Pstat Section
PSTATSERIALNO	LABEL	01520	Pstat Serial Number
CTRLMODE	IQUANT	0	Control Mode
ELECTROMETER	IQUANT	1	RE=0 or CS=1
IESTAB	IQUANT	0	I/E Stability
CASPEED	IQUANT	4	Control Amp Speed
CONVENTION	IQUANT	1	Current Convention
ICHRANGE	IQUANT	2	Ich Range
ICHRANGEMODE	TOGGLE	T	Ich Auto Range
ICHOFFSETENABLE	TOGGLE	F	Ich Offset Enable
ICHOFFSET	QUANT	0	Ich Offset (V)
ICHFILTER	IQUANT	1	Ich Filter
VCHRANGE	IQUANT	2	Vch Range
VCHRANGEMODE	TOGGLE	T	Vch Auto Range
VCHOFFSETENABLE	TOGGLE	F	Vch Offset Enable
VCHOFFSET	QUANT	0	Vch Offset (V)
VCHFILTER	IQUANT	1	Vch Filter
IERANGELOWERLIMIT	IQUANT	9	I/E Range Lower Limit
IERANGEMODE	TOGGLE	F	I/E AutoRange
IERANGE	IQUANT	9	I/E Range
ACHSELECT	IQUANT	1	Ach Select
ACHRANGE	IQUANT	2	Ach Range
ACHOFFSETENABLE	TOGGLE	F	Ach Offset Enable
ACHOFFSET	QUANT	0	Ach Offset (V)
ACHFILTER	IQUANT	1	Ach Filter
CABLEID	IQUANT	14	Cable ID
DCCALDATE	LABEL	5-7-2017	DC Calibration Date
ACCALDATE	LABEL	12/3/2015	AC Calibration Date
FRAMEWORKVERSION	QUANT	7.01	Framework Version
INSTRUMENTVERSION	LABEL	4.00	Instrument Version
CURVE	TABLE	72
	Pt	T	Vf	Im	Vu	Pwr	Sig	Ach	Temp	IERange	Over
	#	s	V	A	V	W	V	V	deg C	#	bits
	0	0.013333	8.46278E-001	-9.88978E-005	0.00000E+000	-8.36950E-005	-5.99601E-002	8.46603E-001	3.57740E+000	9	...........
	1	0.026667	8.33341E-001	-9.83133E-005	0.00000E+000	-8.19285E-005	-5.99601E-002	8.33686E-001	3.57740E+000	9	...........
	2	0.04	8.21030E-001	-9.78580E-005	0.00000E+000	-8.03444E-005	-5.99601E-002	8.21327E-001	3.57740E+000	9	...........
	3	0.053333	8.09063E-001	-9.87228E-005	0.00000E+000	-7.98729E-005	-5.99601E-002	8.09358E-001	3.57740E+000	9	...........
	4	0.066667	7.97380E-001	-9.89228E-005	0.00000E+000	-7.88791E-005	-5.99601E-002	7.97667E-001	3.57740E+000	9	...........
	5	0.08	7.85871E-001	-9.91427E-005	0.00000E+000	-7.79133E-005	-5.99601E-002	7.86154E-001	3.57740E+000	9	...........
	6	0.093333	7.74531E-001	-9.83904E-005	0.00000E+000	-7.62065E-005	-5.99601E-002	7.74824E-001	3.57740E+000	9	...........
	7	0.106667	7.63332E-001	-9.84165E-005	0.00000E+000	-7.51245E-005	-5.99601E-002	7.63626E-001	3.57740E+000	9	...........
	8	0.12	7.52277E-001	-9.91458E-005	0.00000E+000	-7.45851E-005	-5.99601E-002	7.52572E-001	3.57740E+000	9	...........
	9	0.133333	7.41308E-001	-9.81404E-005	0.00000E+000	-7.27522E-005	-5.99601E-002	7.41573E-001	3.57740E+000	9	...........
	10	0.146667	7.30408E-001	-9.80862E-005	0.00000E+000	-7.16429E-005	-5.99601E-002	7.30709E-001	3.57740E+000	9	...........
	11	0.16	7.19625E-001	-9.94490E-005	0.00000E+000	-7.15660E-005	-5.99601E-002	7.19901E-001	3.57740E+000	9	...........
	12	0.173333	7.08836E-001	-9.87968E-005	0.00000E+000	-7.00307E-005	-5.99601E-002	7.09113E-001	3.57740E+000	9	...........
	13	0.186667	6.98109E-001	-9.84706E-005	0.00000E+000	-6.87433E-005	-5.99601E-002	6.98344E-001	3.57740E+000	9	...........
	14	0.2	6.87308E-001	-9.91114E-005	0.00000E+000	-6.81201E-005	-5.99601E-002	6.87557E-001	3.57740E+000	9	...........
	15	0.213333	6.76460E-001	-9.77945E-005	0.00000E+000	-6.61541E-005	-5.99601E-002	6.76685E-001	3.57740E+000	9	...........
	16	0.226667	6.65470E-001	-9.85634E-005	0.00000E+000	-6.55910E-005	-5.99601E-002	6.65710E-001	3.57740E+000	9	...........
	17	0.24	6.54363E-001	-9.88624E-005	0.00000E+000	-6.46919E-005	-5.99601E-002	6.54613E-001	3.57740E+000	9	...........
	18	0.253333	6.43112E-001	-9.89270E-005	0.00000E+000	-6.36211E-005	-5.99601E-002	6.43352E-001	3.57740E+000	9	...........
	19	0.266667	6.31657E-001	-9.82706E-005	0.00000E+000	-6.20734E-005	-5.99601E-002	6.31906E-001	3.57740E+000	9	...........
	20	0.28	6.20072E-001	-9.88072E-005	0.00000E+000	-6.12676E-005	-5.99601E-002	6.20306E-001	3.57740E+000	9	...........
	21	0.293333	6.08275E-001	-9.82914E-005	0.00000E+000	-5.97882E-005	-5.99601E-002	6.08538E-001	3.57740E+000	9	...........
	22	0.306667	5.96399E-001	-9.88916E-005	0.00000E+000	-5.89789E-005	-5.99601E-002	5.96687E-001	3.57740E+000	9	...........
	23	0.32	5.84397E-001	-9.75590E-005	0.00000E+000	-5.70132E-005	-5.99601E-002	5.84670E-001	3.57740E+000	9	...........
	24	0.333333	5.72250E-001	-9.85352E-005	0.00000E+000	-5.63868E-005	-5.99601E-002	5.72532E-001	3.57740E+000	9	...........
	25	0.346667	5.60007E-001	-9.91125E-005	0.00000E+000	-5.55037E-005	-5.99601E-002	5.60264E-001	3.57740E+000	9	...........
	26	0.36	5.47674E-001	-9.92739E-005	0.00000E+000	-5.43697E-005	-5.99601E-002	5.47916E-001	3.57740E+000	9	...........
	27	0.373333	5.35236E-001	-9.75017E-005	0.00000E+000	-5.21864E-005	-5.99601E-002	5.35491E-001	3.57740E+000	9	...........
	28	0.386667	5.22756E-001	-9.92771E-005	0.00000E+000	-5.18977E-005	-5.99601E-002	5.22975E-001	3.57740E+000	9	...........
	29	0.4	5.10185E-001	-9.77903E-005	0.00000E+000	-4.98911E-005	-5.99601E-002	5.10390E-001	3.57740E+000	9	...........
	30	0.413333	4.97554E-001	-9.81695E-005	0.00000E+000	-4.88447E-005	-5.99601E-002	4.97774E-001	3.57740E+000	9	...........
	31	0.426667	4.85022E-001	-9.91447E-005	0.00000E+000	-4.80873E-005	-5.99601E-002	4.85189E-001	3.57740E+000	9	...........
	32	0.44	4.72525E-001	-9.75402E-005	0.00000E+000	-4.60902E-005	-5.99601E-002	4.72626E-001	3.57740E+000	9	...........
	33	0.453333	4.59801E-001	-9.79466E-005	0.00000E+000	-4.50359E-005	-5.99601E-002	4.59896E-001	3.57740E+000	9	...........
	34	0.466667	4.47055E-001	-9.92510E-005	0.00000E+000	-4.43707E-005	-5.99601E-002	4.47157E-001	3.57740E+000	9	...........
	35	0.48	4.34299E-001	-9.82623E-005	0.00000E+000	-4.26752E-005	-5.99601E-002	4.34392E-001	3.57740E+000	9	...........
	36	0.493333	4.21537E-001	-9.83748E-005	0.00000E+000	-4.14686E-005	-5.99601E-002	4.21629E-001	3.57740E+000	9	...........
	37	0.506667	4.08783E-001	-9.87676E-005	0.00000E+000	-4.03745E-005	-5.99601E-002	4.08869E-001	3.57740E+000	9	...........
	38	0.52	3.96044E-001	-9.86478E-005	0.00000E+000	-3.90689E-005	-5.99601E-002	3.96117E-001	3.57740E+000	9	...........
	39	0.533333	3.83319E-001	-9.82883E-005	0.00000E+000	-3.76757E-005	-5.99601E-002	3.83399E-001	3.57740E+000	9	...........
	40	0.546667	3.70603E-001	-9.89520E-005	0.00000E+000	-3.66719E-005	-5.99601E-002	3.70680E-001	3.57740E+000	9	...........
	41	0.56	3.57924E-001	-9.89030E-005	0.00000E+000	-3.53997E-005	-5.99601E-002	3.57996E-001	3.57740E+000	9	...........
	42	0.573333	3.45263E-001	-9.96282E-005	0.00000E+000	-3.43979E-005	-5.99601E-002	3.45333E-001	3.57740E+000	9	...........
	43	0.586667	3.32644E-001	-9.86030E-005	0.00000E+000	-3.27996E-005	-5.99601E-002	3.32714E-001	3.57740E+000	9	...........
	44	0.6	3.20059E-001	-9.86499E-005	0.00000E+000	-3.15738E-005	-5.99601E-002	3.20123E-001	3.57740E+000	9	...........
	45	0.613333	3.07499E-001	-9.82498E-005	0.00000E+000	-3.02117E-005	-5.99601E-002	3.07561E-001	3.57740E+000	9	...........
	46	0.626667	2.94982E-001	-9.75673E-005	0.00000E+000	-2.87806E-005	-5.99601E-002	2.95041E-001	3.57740E+000	9	...........
	47	0.64	2.82490E-001	-9.82154E-005	0.00000E+000	-2.77449E-005	-5.99601E-002	2.82551E-001	3.57740E+000	9	...........
	48	0.653333	2.70032E-001	-9.78664E-005	0.00000E+000	-2.64270E-005	-5.99601E-002	2.70090E-001	3.57740E+000	9	...........
	49	0.666667	2.57606E-001	-9.80081E-005	0.00000E+000	-2.52474E-005	-5.99601E-002	2.57662E-001	3.57740E+000	9	...........
	50	0.68	2.45204E-001	-9.80539E-005	0.00000E+000	-2.40432E-005	-5.99601E-002	2.45253E-001	3.57819E+000	9	...........
	51	0.693333	2.32827E-001	-9.78893E-005	0.00000E+000	-2.27913E-005	-5.99601E-002	2.32877E-001	3.57830E+000	9	...........
	52	0.706667	2.20467E-001	-9.84488E-005	0.00000E+000	-2.17047E-005	-5.99601E-002	2.20514E-001	3.57830E+000	9	...........
	53	0.72	2.08131E-001	-9.89395E-005	0.00000E+000	-2.05924E-005	-5.99601E-002	2.08173E-001	3.57830E+000	9	...........
	54	0.733333	1.95821E-001	-9.88770E-005	0.00000E+000	-1.93622E-005	-5.99601E-002	1.95855E-001	3.57830E+000	9	...........
	55	0.746667	1.83528E-001	-9.99428E-005	0.00000E+000	-1.83423E-005	-5.99601E-002	1.83565E-001	3.57830E+000	9	...........
	56	0.76	1.71264E-001	-9.89614E-005	0.00000E+000	-1.69485E-005	-5.99601E-002	1.71297E-001	3.57830E+000	9	...........
	57	0.773333	1.59037E-001	-9.90176E-005	0.00000E+000	-1.57474E-005	-5.99601E-002	1.59070E-001	3.57830E+000	9	...........
	58	0.786667	1.46849E-001	-9.86540E-005	0.00000E+000	-1.44872E-005	-5.99601E-002	1.46876E-001	3.57830E+000	9	...........
	59	0.8	1.34701E-001	-9.85790E-005	0.00000E+000	-1.32787E-005	-5.99601E-002	1.34723E-001	3.57830E+000	9	...........
	60	0.813333	1.22602E-001	-9.87676E-005	0.00000E+000	-1.21091E-005	-5.99601E-002	1.22624E-001	3.57830E+000	9	...........
	61	0.826667	1.10561E-001	-9.87978E-005	0.00000E+000	-1.09232E-005	-5.99601E-002	1.10582E-001	3.57830E+000	9	...........
	62	0.84	9.85760E-002	-9.85800E-005	0.00000E+000	-9.71763E-006	-5.99601E-002	9.85911E-002	3.57830E+000	9	...........
	63	0.853333	8.66701E-002	-9.84331E-005	0.00000E+000	-8.53121E-006	-5.99601E-002	8.66845E-002	3.57830E+000	9	...........
	64	0.866667	7.48374E-002	-9.89280E-005	0.00000E+000	-7.40352E-006	-5.99601E-002	7.48484E-002	3.57830E+000	9	...........
	65	0.88	6.30985E-002	-9.83717E-005	0.00000E+000	-6.20710E-006	-5.99601E-002	6.31096E-002	3.57830E+000	9	...........
	66	0.893333	5.14654E-002	-9.86384E-005	0.00000E+000	-5.07646E-006	-5.99601E-002	5.14702E-002	3.57830E+000	9	...........
	67	0.906667	3.99735E-002	-9.81873E-005	0.00000E+000	-3.92489E-006	-5.99601E-002	3.99740E-002	3.57830E+000	9	...........
	68	0.92	2.85732E-002	-9.89155E-005	0.00000E+000	-2.82633E-006	-5.99601E-002	2.85676E-002	3.57830E+000	9	...........
	69	0.933333	1.73099E-002	-9.97115E-005	0.00000E+000	-1.72600E-006	-5.99601E-002	1.72956E-002	3.57830E+000	9	...........
	70	0.946667	6.19308E-003	-9.86926E-005	0.00000E+000	-6.11211E-007	-5.99601E-002	6.17286E-003	3.57830E+000	9	...........
	71	0.948333	-8.04322E-006	-9.88853E-005	0.00000E+000	7.95357E-010	-5.99601E-002	-2.67234E-005	3.57830E+000	9	...........
STARTTIMEOFFSET	QUANT	485.0835	Start Time Offset (s)
