EXPLAIN
TAG	PWR800_DISCHARGE
TITLE	LABEL	PWR Cyclic Charge Discharge (Cell) - Discharge Step	Test &Identifier
DATE	LABEL	12-7-2017	Date
TIME	LABEL	16:18:17	Time
NOTES	NOTES	2	&Notes...
	supercap test cell
	6M KOH
PSTAT	PSTAT	IFC5000-01520	Potentiostat
CAPACITY	QUANT	1.00000E-003	Capacity (A-hr)
CELLTYPE	SELECTOR	1	&Cell Type
WORKINGCONNECTION	SELECTOR	0	&Working Lead
MAXDISCHARGETIME	VARIABLEANDUNITS	1.00000E+002	s	1.00000E+002	second(s)	Max &Discharge Time
DISCHARGEMODE	MULTIPARAM	0	1.00000E-004	&Discharge Mode	Constant Current	Amp(s)
SAMPLETIME	QUANT	1.00000E-002	Sa&mple Period (s)
DISCHARGESTOPAT1	MULTIPARAM	3	0.00000E+000	Discharge Stop At &1	Voltage < Limit	V
DISCHARGESTOPAT2	MULTIPARAM	0	0.00000E+000	Discharge Stop At &2	None	N/A
AESBHCSELECTOR	TOGGLE	F	Save Both Half Cells
IRCOMP	TOGGLE	F	IR &Measure
EOC	QUANT	0	Open Circuit (V)
SEQUENCER	TOGGLE	TRUE	Run as Sequence
PSTATMODEL	IQUANT	53	Pstat Model
PSTATSECTION	LABEL	IFC5000-01520	Pstat Section
PSTATSERIALNO	LABEL	01520	Pstat Serial Number
CTRLMODE	IQUANT	0	Control Mode
ELECTROMETER	IQUANT	1	RE=0 or CS=1
IESTAB	IQUANT	0	I/E Stability
CASPEED	IQUANT	4	Control Amp Speed
CONVENTION	IQUANT	1	Current Convention
ICHRANGE	IQUANT	2	Ich Range
ICHRANGEMODE	TOGGLE	T	Ich Auto Range
ICHOFFSETENABLE	TOGGLE	F	Ich Offset Enable
ICHOFFSET	QUANT	0	Ich Offset (V)
ICHFILTER	IQUANT	1	Ich Filter
VCHRANGE	IQUANT	2	Vch Range
VCHRANGEMODE	TOGGLE	T	Vch Auto Range
VCHOFFSETENABLE	TOGGLE	F	Vch Offset Enable
VCHOFFSET	QUANT	0	Vch Offset (V)
VCHFILTER	IQUANT	1	Vch Filter
IERANGELOWERLIMIT	IQUANT	9	I/E Range Lower Limit
IERANGEMODE	TOGGLE	F	I/E AutoRange
IERANGE	IQUANT	9	I/E Range
ACHSELECT	IQUANT	1	Ach Select
ACHRANGE	IQUANT	2	Ach Range
ACHOFFSETENABLE	TOGGLE	F	Ach Offset Enable
ACHOFFSET	QUANT	0	Ach Offset (V)
ACHFILTER	IQUANT	1	Ach Filter
CABLEID	IQUANT	14	Cable ID
DCCALDATE	LABEL	5-7-2017	DC Calibration Date
ACCALDATE	LABEL	12/3/2015	AC Calibration Date
FRAMEWORKVERSION	QUANT	7.01	Framework Version
INSTRUMENTVERSION	LABEL	4.00	Instrument Version
CURVE	TABLE	72
	Pt	T	Vf	Im	Vu	Pwr	Sig	Ach	Temp	IERange	Over
	#	s	V	A	V	W	V	V	deg C	#	bits
	0	0.013333	8.44355E-001	-9.93917E-005	0.00000E+000	-8.39218E-005	-5.99601E-002	8.44660E-001	3.57740E+000	9	...........
	1	0.026667	8.31436E-001	-9.85332E-005	0.00000E+000	-8.19240E-005	-5.99601E-002	8.31753E-001	3.57740E+000	9	...........
	2	0.04	8.19125E-001	-9.78132E-005	0.00000E+000	-8.01213E-005	-5.99601E-002	8.19443E-001	3.57740E+000	9	...........
	3	0.053333	8.07190E-001	-9.83060E-005	0.00000E+000	-7.93516E-005	-5.99601E-002	8.07480E-001	3.57740E+000	9	...........
	4	0.066667	7.95513E-001	-9.91739E-005	0.00000E+000	-7.88941E-005	-5.99601E-002	7.95808E-001	3.57710E+000	9	...........
	5	0.08	7.84045E-001	-9.91677E-005	0.00000E+000	-7.77519E-005	-5.99601E-002	7.84337E-001	3.57710E+000	9	...........
	6	0.093333	7.72753E-001	-9.92521E-005	0.00000E+000	-7.66974E-005	-5.99601E-002	7.73042E-001	3.57710E+000	9	...........
	7	0.106667	7.61595E-001	-9.86332E-005	0.00000E+000	-7.51186E-005	-5.99601E-002	7.61880E-001	3.57710E+000	9	...........
	8	0.12	7.50551E-001	-9.91448E-005	0.00000E+000	-7.44132E-005	-5.99601E-002	7.50829E-001	3.57710E+000	9	...........
	9	0.133333	7.39585E-001	-9.84811E-005	0.00000E+000	-7.28351E-005	-5.99601E-002	7.39866E-001	3.57710E+000	9	...........
	10	0.146667	7.28732E-001	-9.91104E-005	0.00000E+000	-7.22249E-005	-5.99601E-002	7.29005E-001	3.57710E+000	9	...........
	11	0.16	7.17896E-001	-9.90604E-005	0.00000E+000	-7.11150E-005	-5.99601E-002	7.18146E-001	3.57710E+000	9	...........
	12	0.173333	7.07021E-001	-9.87780E-005	0.00000E+000	-6.98382E-005	-5.99601E-002	7.07307E-001	3.57710E+000	9	...........
	13	0.186667	6.96146E-001	-9.90572E-005	0.00000E+000	-6.89583E-005	-5.99601E-002	6.96393E-001	3.57710E+000	9	...........
	14	0.2	6.85148E-001	-9.85290E-005	0.00000E+000	-6.75070E-005	-5.99601E-002	6.85409E-001	3.57710E+000	9	...........
	15	0.213333	6.74077E-001	-9.86040E-005	0.00000E+000	-6.64667E-005	-5.99601E-002	6.74334E-001	3.57710E+000	9	...........
	16	0.226667	6.62800E-001	-9.86811E-005	0.00000E+000	-6.54059E-005	-5.99601E-002	6.63083E-001	3.57710E+000	9	...........
	17	0.24	6.51412E-001	-9.86926E-005	0.00000E+000	-6.42895E-005	-5.99601E-002	6.51683E-001	3.57710E+000	9	...........
	18	0.253333	6.39878E-001	-9.82769E-005	0.00000E+000	-6.28852E-005	-5.99601E-002	6.40162E-001	3.57710E+000	9	...........
	19	0.266667	6.28226E-001	-9.82883E-005	0.00000E+000	-6.17473E-005	-5.99601E-002	6.28478E-001	3.57710E+000	9	...........
	20	0.28	6.16424E-001	-9.92614E-005	0.00000E+000	-6.11872E-005	-5.99601E-002	6.16706E-001	3.57710E+000	9	...........
	21	0.293333	6.04485E-001	-9.83258E-005	0.00000E+000	-5.94365E-005	-5.99601E-002	6.04766E-001	3.57710E+000	9	...........
	22	0.306667	5.92487E-001	-9.91698E-005	0.00000E+000	-5.87568E-005	-5.99601E-002	5.92748E-001	3.57710E+000	9	...........
	23	0.32	5.80368E-001	-9.84550E-005	0.00000E+000	-5.71402E-005	-5.99601E-002	5.80625E-001	3.57710E+000	9	...........
	24	0.333333	5.68199E-001	-9.80122E-005	0.00000E+000	-5.56904E-005	-5.99601E-002	5.68422E-001	3.57710E+000	9	...........
	25	0.346667	5.55911E-001	-9.83988E-005	0.00000E+000	-5.47009E-005	-5.99601E-002	5.56172E-001	3.57710E+000	9	...........
	26	0.36	5.43609E-001	-9.91302E-005	0.00000E+000	-5.38880E-005	-5.99601E-002	5.43872E-001	3.57710E+000	9	...........
	27	0.373333	5.31233E-001	-9.96230E-005	0.00000E+000	-5.29230E-005	-5.99601E-002	5.31474E-001	3.57710E+000	9	...........
	28	0.386667	5.18827E-001	-9.94250E-005	0.00000E+000	-5.15844E-005	-5.99601E-002	5.19059E-001	3.57710E+000	9	...........
	29	0.4	5.06345E-001	-9.89395E-005	0.00000E+000	-5.00975E-005	-5.99601E-002	5.06593E-001	3.57710E+000	9	...........
	30	0.413333	4.93879E-001	-9.85936E-005	0.00000E+000	-4.86933E-005	-5.99601E-002	4.94134E-001	3.57710E+000	9	...........
	31	0.426667	4.81638E-001	-9.75840E-005	0.00000E+000	-4.70002E-005	-5.99601E-002	4.81765E-001	3.57710E+000	9	...........
	32	0.44	4.69214E-001	-9.91468E-005	0.00000E+000	-4.65211E-005	-5.99601E-002	4.69319E-001	3.57710E+000	9	...........
	33	0.453333	4.56696E-001	-9.94031E-005	0.00000E+000	-4.53970E-005	-5.99601E-002	4.56798E-001	3.57710E+000	9	...........
	34	0.466667	4.44182E-001	-9.85425E-005	0.00000E+000	-4.37708E-005	-5.99601E-002	4.44283E-001	3.57710E+000	9	...........
	35	0.48	4.31681E-001	-9.89041E-005	0.00000E+000	-4.26951E-005	-5.99601E-002	4.31773E-001	3.57710E+000	9	...........
	36	0.493333	4.19181E-001	-9.77611E-005	0.00000E+000	-4.09796E-005	-5.99601E-002	4.19280E-001	3.57710E+000	9	...........
	37	0.506667	4.06698E-001	-9.92687E-005	0.00000E+000	-4.03724E-005	-5.99601E-002	4.06781E-001	3.57710E+000	9	...........
	38	0.52	3.94232E-001	-9.90593E-005	0.00000E+000	-3.90524E-005	-5.99601E-002	3.94314E-001	3.57710E+000	9	...........
	39	0.533333	3.81786E-001	-9.89207E-005	0.00000E+000	-3.77666E-005	-5.99601E-002	3.81867E-001	3.57710E+000	9	...........
	40	0.546667	3.69369E-001	-9.88416E-005	0.00000E+000	-3.65090E-005	-5.99601E-002	3.69442E-001	3.57710E+000	9	...........
	41	0.56	3.56971E-001	-9.96688E-005	0.00000E+000	-3.55789E-005	-5.99601E-002	3.57044E-001	3.57710E+000	9	...........
	42	0.573333	3.44595E-001	-9.95803E-005	0.00000E+000	-3.43149E-005	-5.99601E-002	3.44672E-001	3.57710E+000	9	...........
	43	0.586667	3.32244E-001	-9.99887E-005	0.00000E+000	-3.32207E-005	-5.99601E-002	3.32316E-001	3.57710E+000	9	...........
	44	0.6	3.19934E-001	-9.84550E-005	0.00000E+000	-3.14991E-005	-5.99601E-002	3.20004E-001	3.57710E+000	9	...........
	45	0.613333	3.07637E-001	-9.91187E-005	0.00000E+000	-3.04926E-005	-5.99601E-002	3.07705E-001	3.57710E+000	9	...........
	46	0.626667	2.95363E-001	-9.83248E-005	0.00000E+000	-2.90415E-005	-5.99601E-002	2.95428E-001	3.57710E+000	9	...........
	47	0.64	2.83104E-001	-9.92917E-005	0.00000E+000	-2.81098E-005	-5.99601E-002	2.83163E-001	3.57710E+000	9	...........
	48	0.653333	2.70862E-001	-9.86290E-005	0.00000E+000	-2.67149E-005	-5.99601E-002	2.70922E-001	3.57710E+000	9	...........
	49	0.666667	2.58632E-001	-9.88666E-005	0.00000E+000	-2.55701E-005	-5.99601E-002	2.58690E-001	3.57710E+000	9	...........
	50	0.68	2.46409E-001	-9.92958E-005	0.00000E+000	-2.44674E-005	-5.99601E-002	2.46464E-001	3.57710E+000	9	...........
	51	0.693333	2.34189E-001	-9.90301E-005	0.00000E+000	-2.31918E-005	-5.99601E-002	2.34237E-001	3.57710E+000	9	...........
	52	0.706667	2.21980E-001	-1.00020E-004	0.00000E+000	-2.22025E-005	-5.99601E-002	2.22023E-001	3.57710E+000	9	...........
	53	0.72	2.09788E-001	-9.79883E-005	0.00000E+000	-2.05567E-005	-5.99601E-002	2.09835E-001	3.57710E+000	9	...........
	54	0.733333	1.97613E-001	-9.87988E-005	0.00000E+000	-1.95239E-005	-5.99601E-002	1.97652E-001	3.57710E+000	9	...........
	55	0.746667	1.85442E-001	-9.91864E-005	0.00000E+000	-1.83933E-005	-5.99601E-002	1.85487E-001	3.57710E+000	9	...........
	56	0.76	1.73293E-001	-9.87322E-005	0.00000E+000	-1.71096E-005	-5.99601E-002	1.73340E-001	3.57710E+000	9	...........
	57	0.773333	1.61173E-001	-9.81841E-005	0.00000E+000	-1.58246E-005	-5.99601E-002	1.61209E-001	3.57710E+000	9	...........
	58	0.786667	1.49078E-001	-9.88843E-005	0.00000E+000	-1.47415E-005	-5.99601E-002	1.49112E-001	3.57710E+000	9	...........
	59	0.8	1.37016E-001	-9.80591E-005	0.00000E+000	-1.34357E-005	-5.99601E-002	1.37045E-001	3.57710E+000	9	...........
	60	0.813333	1.25002E-001	-9.84748E-005	0.00000E+000	-1.23095E-005	-5.99601E-002	1.25027E-001	3.57710E+000	9	...........
	61	0.826667	1.13025E-001	-9.85446E-005	0.00000E+000	-1.11380E-005	-5.99601E-002	1.13046E-001	3.57710E+000	9	...........
	62	0.84	1.01108E-001	-9.80966E-005	0.00000E+000	-9.91831E-006	-5.99601E-002	1.01127E-001	3.57710E+000	9	...........
	63	0.853333	8.92503E-002	-9.85321E-005	0.00000E+000	-8.79403E-006	-5.99601E-002	8.92670E-002	3.57710E+000	9	...........
	64	0.866667	7.74729E-002	-9.92656E-005	0.00000E+000	-7.69040E-006	-5.99601E-002	7.74869E-002	3.57710E+000	9	...........
	65	0.88	6.57768E-002	-9.85186E-005	0.00000E+000	-6.48023E-006	-5.99601E-002	6.57817E-002	3.57710E+000	9	...........
	66	0.893333	5.41751E-002	-9.95344E-005	0.00000E+000	-5.39229E-006	-5.99601E-002	5.41807E-002	3.57710E+000	9	...........
	67	0.906667	4.27153E-002	-9.96813E-005	0.00000E+000	-4.25792E-006	-5.99601E-002	4.27209E-002	3.57710E+000	9	...........
	68	0.92	3.13471E-002	-9.85540E-005	0.00000E+000	-3.08938E-006	-5.99601E-002	3.13406E-002	3.57710E+000	9	...........
	69	0.933333	2.00984E-002	-9.93271E-005	0.00000E+000	-1.99632E-006	-5.99601E-002	2.00903E-002	3.57710E+000	9	...........
	70	0.946667	8.99525E-003	-9.90749E-005	0.00000E+000	-8.91204E-007	-5.99601E-002	8.97175E-003	3.57710E+000	9	...........
	71	0.95333	7.49216E-004	-9.93542E-005	0.00000E+000	-7.44378E-008	-5.99601E-002	7.28705E-004	3.57710E+000	9	...........
STARTTIMEOFFSET	QUANT	351.89	Start Time Offset (s)
