EXPLAIN
TAG	PWR800_DISCHARGE
TITLE	LABEL	PWR Cyclic Charge Discharge (Cell) - Discharge Step	Test &Identifier
DATE	LABEL	12-7-2017	Date
TIME	LABEL	16:45:54	Time
NOTES	NOTES	2	&Notes...
	supercap test cell
	6M KOH
PSTAT	PSTAT	IFC5000-01520	Potentiostat
CAPACITY	QUANT	1.00000E-003	Capacity (A-hr)
CELLTYPE	SELECTOR	1	&Cell Type
WORKINGCONNECTION	SELECTOR	0	&Working Lead
MAXDISCHARGETIME	VARIABLEANDUNITS	1.00000E+002	s	1.00000E+002	second(s)	Max &Discharge Time
DISCHARGEMODE	MULTIPARAM	0	1.00000E-004	&Discharge Mode	Constant Current	Amp(s)
SAMPLETIME	QUANT	1.00000E-002	Sa&mple Period (s)
DISCHARGESTOPAT1	MULTIPARAM	3	0.00000E+000	Discharge Stop At &1	Voltage < Limit	V
DISCHARGESTOPAT2	MULTIPARAM	0	0.00000E+000	Discharge Stop At &2	None	N/A
AESBHCSELECTOR	TOGGLE	F	Save Both Half Cells
IRCOMP	TOGGLE	F	IR &Measure
EOC	QUANT	0	Open Circuit (V)
SEQUENCER	TOGGLE	TRUE	Run as Sequence
PSTATMODEL	IQUANT	53	Pstat Model
PSTATSECTION	LABEL	IFC5000-01520	Pstat Section
PSTATSERIALNO	LABEL	01520	Pstat Serial Number
CTRLMODE	IQUANT	0	Control Mode
ELECTROMETER	IQUANT	1	RE=0 or CS=1
IESTAB	IQUANT	0	I/E Stability
CASPEED	IQUANT	4	Control Amp Speed
CONVENTION	IQUANT	1	Current Convention
ICHRANGE	IQUANT	2	Ich Range
ICHRANGEMODE	TOGGLE	T	Ich Auto Range
ICHOFFSETENABLE	TOGGLE	F	Ich Offset Enable
ICHOFFSET	QUANT	0	Ich Offset (V)
ICHFILTER	IQUANT	1	Ich Filter
VCHRANGE	IQUANT	2	Vch Range
VCHRANGEMODE	TOGGLE	T	Vch Auto Range
VCHOFFSETENABLE	TOGGLE	F	Vch Offset Enable
VCHOFFSET	QUANT	0	Vch Offset (V)
VCHFILTER	IQUANT	1	Vch Filter
IERANGELOWERLIMIT	IQUANT	9	I/E Range Lower Limit
IERANGEMODE	TOGGLE	F	I/E AutoRange
IERANGE	IQUANT	9	I/E Range
ACHSELECT	IQUANT	1	Ach Select
ACHRANGE	IQUANT	2	Ach Range
ACHOFFSETENABLE	TOGGLE	F	Ach Offset Enable
ACHOFFSET	QUANT	0	Ach Offset (V)
ACHFILTER	IQUANT	1	Ach Filter
CABLEID	IQUANT	14	Cable ID
DCCALDATE	LABEL	5-7-2017	DC Calibration Date
ACCALDATE	LABEL	12/3/2015	AC Calibration Date
FRAMEWORKVERSION	QUANT	7.01	Framework Version
INSTRUMENTVERSION	LABEL	4.00	Instrument Version
CURVE	TABLE	70
	Pt	T	Vf	Im	Vu	Pwr	Sig	Ach	Temp	IERange	Over
	#	s	V	A	V	W	V	V	deg C	#	bits
	0	0.013333	8.44879E-001	-1.00325E-004	0.00000E+000	-8.47626E-005	-5.99601E-002	8.45179E-001	3.57790E+000	9	...........
	1	0.026667	8.31719E-001	-9.94813E-005	0.00000E+000	-8.27405E-005	-5.99601E-002	8.32016E-001	3.57790E+000	9	...........
	2	0.04	8.19123E-001	-9.87905E-005	0.00000E+000	-8.09216E-005	-5.99601E-002	8.19433E-001	3.57790E+000	9	...........
	3	0.053333	8.06951E-001	-9.81706E-005	0.00000E+000	-7.92188E-005	-5.99601E-002	8.07221E-001	3.57790E+000	9	...........
	4	0.066667	7.95024E-001	-9.82446E-005	0.00000E+000	-7.81068E-005	-5.99601E-002	7.95285E-001	3.57790E+000	9	...........
	5	0.08	7.83303E-001	-9.87832E-005	0.00000E+000	-7.73772E-005	-5.99601E-002	7.83527E-001	3.57790E+000	9	...........
	6	0.093333	7.71692E-001	-9.89926E-005	0.00000E+000	-7.63918E-005	-5.99601E-002	7.71944E-001	3.57790E+000	9	...........
	7	0.106667	7.60234E-001	-9.86801E-005	0.00000E+000	-7.50199E-005	-5.99601E-002	7.60486E-001	3.57790E+000	9	...........
	8	0.12	7.48889E-001	-9.87509E-005	0.00000E+000	-7.39535E-005	-5.99601E-002	7.49138E-001	3.57790E+000	9	...........
	9	0.133333	7.37627E-001	-9.76330E-005	0.00000E+000	-7.20167E-005	-5.99601E-002	7.37874E-001	3.57790E+000	9	...........
	10	0.146667	7.26491E-001	-9.93385E-005	0.00000E+000	-7.21686E-005	-5.99601E-002	7.26728E-001	3.57790E+000	9	...........
	11	0.16	7.15408E-001	-9.75152E-005	0.00000E+000	-6.97632E-005	-5.99601E-002	7.15658E-001	3.57790E+000	9	...........
	12	0.173333	7.04402E-001	-9.89353E-005	0.00000E+000	-6.96902E-005	-5.99601E-002	7.04661E-001	3.57790E+000	9	...........
	13	0.186667	6.93478E-001	-9.87488E-005	0.00000E+000	-6.84801E-005	-5.99601E-002	6.93717E-001	3.57790E+000	9	...........
	14	0.2	6.82641E-001	-9.88249E-005	0.00000E+000	-6.74619E-005	-5.99601E-002	6.82872E-001	3.57790E+000	9	...........
	15	0.213333	6.71876E-001	-9.84259E-005	0.00000E+000	-6.61300E-005	-5.99601E-002	6.72112E-001	3.57790E+000	9	...........
	16	0.226667	6.61132E-001	-9.93958E-005	0.00000E+000	-6.57138E-005	-5.99601E-002	6.61359E-001	3.57790E+000	9	...........
	17	0.24	6.50422E-001	-9.85321E-005	0.00000E+000	-6.40874E-005	-5.99601E-002	6.50674E-001	3.57790E+000	9	...........
	18	0.253333	6.39663E-001	-9.82831E-005	0.00000E+000	-6.28681E-005	-5.99601E-002	6.39941E-001	3.57790E+000	9	...........
	19	0.266667	6.28850E-001	-9.82029E-005	0.00000E+000	-6.17549E-005	-5.99601E-002	6.29094E-001	3.57790E+000	9	...........
	20	0.28	6.17901E-001	-9.84331E-005	0.00000E+000	-6.08219E-005	-5.99601E-002	6.18156E-001	3.57790E+000	9	...........
	21	0.293333	6.06717E-001	-9.96001E-005	0.00000E+000	-6.04290E-005	-5.99601E-002	6.07001E-001	3.57790E+000	9	...........
	22	0.306667	5.95410E-001	-9.88395E-005	0.00000E+000	-5.88500E-005	-5.99601E-002	5.95667E-001	3.57790E+000	9	...........
	23	0.32	5.83860E-001	-9.86947E-005	0.00000E+000	-5.76238E-005	-5.99601E-002	5.84131E-001	3.57790E+000	9	...........
	24	0.333333	5.72125E-001	-9.85821E-005	0.00000E+000	-5.64013E-005	-5.99601E-002	5.72370E-001	3.57790E+000	9	...........
	25	0.346667	5.60143E-001	-9.85884E-005	0.00000E+000	-5.52236E-005	-5.99601E-002	5.60409E-001	3.57790E+000	9	...........
	26	0.36	5.48001E-001	-9.80737E-005	0.00000E+000	-5.37445E-005	-5.99601E-002	5.48259E-001	3.57790E+000	9	...........
	27	0.373333	5.35687E-001	-9.83102E-005	0.00000E+000	-5.26635E-005	-5.99601E-002	5.35907E-001	3.57790E+000	9	...........
	28	0.386667	5.23190E-001	-9.97157E-005	0.00000E+000	-5.21702E-005	-5.99601E-002	5.23410E-001	3.57790E+000	9	...........
	29	0.4	5.10534E-001	-9.84196E-005	0.00000E+000	-5.02465E-005	-5.99601E-002	5.10754E-001	3.57790E+000	9	...........
	30	0.413333	4.97737E-001	-9.88895E-005	0.00000E+000	-4.92209E-005	-5.99601E-002	4.97954E-001	3.57790E+000	9	...........
	31	0.426667	4.84961E-001	-9.91812E-005	0.00000E+000	-4.80990E-005	-5.99601E-002	4.85120E-001	3.57790E+000	9	...........
	32	0.44	4.72119E-001	-9.76809E-005	0.00000E+000	-4.61170E-005	-5.99601E-002	4.72220E-001	3.57790E+000	9	...........
	33	0.453333	4.59004E-001	-9.90958E-005	0.00000E+000	-4.54854E-005	-5.99601E-002	4.59099E-001	3.57790E+000	9	...........
	34	0.466667	4.45811E-001	-9.79257E-005	0.00000E+000	-4.36564E-005	-5.99601E-002	4.45907E-001	3.57790E+000	9	...........
	35	0.48	4.32555E-001	-9.91166E-005	0.00000E+000	-4.28733E-005	-5.99601E-002	4.32643E-001	3.57790E+000	9	...........
	36	0.493333	4.19248E-001	-9.98616E-005	0.00000E+000	-4.18668E-005	-5.99601E-002	4.19332E-001	3.57790E+000	9	...........
	37	0.506667	4.05898E-001	-9.89926E-005	0.00000E+000	-4.01809E-005	-5.99601E-002	4.05980E-001	3.57720E+000	9	...........
	38	0.52	3.92532E-001	-9.90093E-005	0.00000E+000	-3.88644E-005	-5.99601E-002	3.92607E-001	3.57650E+000	9	...........
	39	0.533333	3.79150E-001	-9.97772E-005	0.00000E+000	-3.78305E-005	-5.99601E-002	3.79223E-001	3.57650E+000	9	...........
	40	0.546667	3.65766E-001	-9.99658E-005	0.00000E+000	-3.65640E-005	-5.99601E-002	3.65837E-001	3.57650E+000	9	...........
	41	0.56	3.52398E-001	-9.88916E-005	0.00000E+000	-3.48492E-005	-5.99601E-002	3.52467E-001	3.57650E+000	9	...........
	42	0.573333	3.39043E-001	-9.88040E-005	0.00000E+000	-3.34988E-005	-5.99601E-002	3.39116E-001	3.57650E+000	9	...........
	43	0.586667	3.25722E-001	-9.75496E-005	0.00000E+000	-3.17741E-005	-5.99601E-002	3.25790E-001	3.57650E+000	9	...........
	44	0.6	3.12437E-001	-1.00086E-004	0.00000E+000	-3.12705E-005	-5.99601E-002	3.12498E-001	3.57650E+000	9	...........
	45	0.613333	2.99200E-001	-9.82081E-005	0.00000E+000	-2.93838E-005	-5.99601E-002	2.99264E-001	3.57650E+000	9	...........
	46	0.626667	2.86012E-001	-9.83300E-005	0.00000E+000	-2.81235E-005	-5.99601E-002	2.86075E-001	3.57650E+000	9	...........
	47	0.64	2.72893E-001	-9.92187E-005	0.00000E+000	-2.70761E-005	-5.99601E-002	2.72946E-001	3.57650E+000	9	...........
	48	0.653333	2.59830E-001	-9.84217E-005	0.00000E+000	-2.55729E-005	-5.99601E-002	2.59888E-001	3.57650E+000	9	...........
	49	0.666667	2.46833E-001	-9.98532E-005	0.00000E+000	-2.46471E-005	-5.99601E-002	2.46881E-001	3.57650E+000	9	...........
	50	0.68	2.33910E-001	-9.85154E-005	0.00000E+000	-2.30438E-005	-5.99601E-002	2.33952E-001	3.57650E+000	9	...........
	51	0.693333	2.21059E-001	-9.82466E-005	0.00000E+000	-2.17183E-005	-5.99601E-002	2.21100E-001	3.57650E+000	9	...........
	52	0.706667	2.08268E-001	-9.74715E-005	0.00000E+000	-2.03002E-005	-5.99601E-002	2.08313E-001	3.57650E+000	9	...........
	53	0.72	1.95563E-001	-9.61848E-005	0.00000E+000	-1.88101E-005	-5.99601E-002	1.95599E-001	3.57650E+000	9	...........
	54	0.733333	1.82921E-001	-1.00030E-004	0.00000E+000	-1.82976E-005	-5.99601E-002	1.82955E-001	3.57650E+000	9	...........
	55	0.746667	1.70344E-001	-9.89145E-005	0.00000E+000	-1.68495E-005	-5.99601E-002	1.70378E-001	3.57650E+000	9	...........
	56	0.76	1.57856E-001	-1.00136E-004	0.00000E+000	-1.58070E-005	-5.99601E-002	1.57882E-001	3.57650E+000	9	...........
	57	0.773333	1.45438E-001	-9.70631E-005	0.00000E+000	-1.41167E-005	-5.99601E-002	1.45464E-001	3.57650E+000	9	...........
	58	0.786667	1.33079E-001	-9.94782E-005	0.00000E+000	-1.32384E-005	-5.99601E-002	1.33101E-001	3.57650E+000	9	...........
	59	0.8	1.20806E-001	-9.83415E-005	0.00000E+000	-1.18802E-005	-5.99601E-002	1.20827E-001	3.57650E+000	9	...........
	60	0.813333	1.08616E-001	-9.90239E-005	0.00000E+000	-1.07556E-005	-5.99601E-002	1.08635E-001	3.57650E+000	9	...........
	61	0.826667	9.65172E-002	-9.87884E-005	0.00000E+000	-9.53479E-006	-5.99601E-002	9.65336E-002	3.57650E+000	9	...........
	62	0.84	8.45218E-002	-9.88874E-005	0.00000E+000	-8.35814E-006	-5.99601E-002	8.45349E-002	3.57650E+000	9	...........
	63	0.853333	7.26399E-002	-9.79299E-005	0.00000E+000	-7.11362E-006	-5.99601E-002	7.26514E-002	3.57650E+000	9	...........
	64	0.866667	6.08730E-002	-9.96438E-005	0.00000E+000	-6.06562E-006	-5.99601E-002	6.08764E-002	3.57650E+000	9	...........
	65	0.88	4.92459E-002	-9.86321E-005	0.00000E+000	-4.85723E-006	-5.99601E-002	4.92530E-002	3.57650E+000	9	...........
	66	0.893333	3.77705E-002	-9.92281E-005	0.00000E+000	-3.74790E-006	-5.99601E-002	3.77749E-002	3.57650E+000	9	...........
	67	0.906667	2.64239E-002	-9.87811E-005	0.00000E+000	-2.61018E-006	-5.99601E-002	2.64212E-002	3.57650E+000	9	...........
	68	0.92	1.52312E-002	-9.93573E-005	0.00000E+000	-1.51333E-006	-5.99601E-002	1.52298E-002	3.57650E+000	9	...........
	69	0.933333	4.22751E-003	-9.79747E-005	0.00000E+000	-4.14189E-007	-5.99601E-002	4.20874E-003	3.57650E+000	9	...........
STARTTIMEOFFSET	QUANT	1528.534	Start Time Offset (s)
