EXPLAIN
TAG	PWR800_DISCHARGE
TITLE	LABEL	PWR Cyclic Charge Discharge (Cell) - Discharge Step	Test &Identifier
DATE	LABEL	12-7-2017	Date
TIME	LABEL	16:36:46	Time
NOTES	NOTES	2	&Notes...
	supercap test cell
	6M KOH
PSTAT	PSTAT	IFC5000-01520	Potentiostat
CAPACITY	QUANT	1.00000E-003	Capacity (A-hr)
CELLTYPE	SELECTOR	1	&Cell Type
WORKINGCONNECTION	SELECTOR	0	&Working Lead
MAXDISCHARGETIME	VARIABLEANDUNITS	1.00000E+002	s	1.00000E+002	second(s)	Max &Discharge Time
DISCHARGEMODE	MULTIPARAM	0	1.00000E-004	&Discharge Mode	Constant Current	Amp(s)
SAMPLETIME	QUANT	1.00000E-002	Sa&mple Period (s)
DISCHARGESTOPAT1	MULTIPARAM	3	0.00000E+000	Discharge Stop At &1	Voltage < Limit	V
DISCHARGESTOPAT2	MULTIPARAM	0	0.00000E+000	Discharge Stop At &2	None	N/A
AESBHCSELECTOR	TOGGLE	F	Save Both Half Cells
IRCOMP	TOGGLE	F	IR &Measure
EOC	QUANT	0	Open Circuit (V)
SEQUENCER	TOGGLE	TRUE	Run as Sequence
PSTATMODEL	IQUANT	53	Pstat Model
PSTATSECTION	LABEL	IFC5000-01520	Pstat Section
PSTATSERIALNO	LABEL	01520	Pstat Serial Number
CTRLMODE	IQUANT	0	Control Mode
ELECTROMETER	IQUANT	1	RE=0 or CS=1
IESTAB	IQUANT	0	I/E Stability
CASPEED	IQUANT	4	Control Amp Speed
CONVENTION	IQUANT	1	Current Convention
ICHRANGE	IQUANT	2	Ich Range
ICHRANGEMODE	TOGGLE	T	Ich Auto Range
ICHOFFSETENABLE	TOGGLE	F	Ich Offset Enable
ICHOFFSET	QUANT	0	Ich Offset (V)
ICHFILTER	IQUANT	1	Ich Filter
VCHRANGE	IQUANT	2	Vch Range
VCHRANGEMODE	TOGGLE	T	Vch Auto Range
VCHOFFSETENABLE	TOGGLE	F	Vch Offset Enable
VCHOFFSET	QUANT	0	Vch Offset (V)
VCHFILTER	IQUANT	1	Vch Filter
IERANGELOWERLIMIT	IQUANT	9	I/E Range Lower Limit
IERANGEMODE	TOGGLE	F	I/E AutoRange
IERANGE	IQUANT	9	I/E Range
ACHSELECT	IQUANT	1	Ach Select
ACHRANGE	IQUANT	2	Ach Range
ACHOFFSETENABLE	TOGGLE	F	Ach Offset Enable
ACHOFFSET	QUANT	0	Ach Offset (V)
ACHFILTER	IQUANT	1	Ach Filter
CABLEID	IQUANT	14	Cable ID
DCCALDATE	LABEL	5-7-2017	DC Calibration Date
ACCALDATE	LABEL	12/3/2015	AC Calibration Date
FRAMEWORKVERSION	QUANT	7.01	Framework Version
INSTRUMENTVERSION	LABEL	4.00	Instrument Version
CURVE	TABLE	71
	Pt	T	Vf	Im	Vu	Pwr	Sig	Ach	Temp	IERange	Over
	#	s	V	A	V	W	V	V	deg C	#	bits
	0	0.013333	8.44535E-001	-9.86113E-005	0.00000E+000	-8.32807E-005	-5.99601E-002	8.44890E-001	3.57690E+000	9	...........
	1	0.026667	8.31486E-001	-9.82831E-005	0.00000E+000	-8.17211E-005	-5.99601E-002	8.31790E-001	3.57690E+000	9	...........
	2	0.04	8.18979E-001	-9.82946E-005	0.00000E+000	-8.05012E-005	-5.99601E-002	8.19325E-001	3.57690E+000	9	...........
	3	0.053333	8.06895E-001	-1.00098E-004	0.00000E+000	-8.07686E-005	-5.99601E-002	8.07183E-001	3.57690E+000	9	...........
	4	0.066667	7.95054E-001	-9.84873E-005	0.00000E+000	-7.83027E-005	-5.99601E-002	7.95360E-001	3.57690E+000	9	...........
	5	0.08	7.83432E-001	-9.84217E-005	0.00000E+000	-7.71067E-005	-5.99601E-002	7.83709E-001	3.57690E+000	9	...........
	6	0.093333	7.71960E-001	-9.87155E-005	0.00000E+000	-7.62045E-005	-5.99601E-002	7.72236E-001	3.57690E+000	9	...........
	7	0.106667	7.60609E-001	-9.89822E-005	0.00000E+000	-7.52867E-005	-5.99601E-002	7.60877E-001	3.57690E+000	9	...........
	8	0.12	7.49383E-001	-9.91052E-005	0.00000E+000	-7.42678E-005	-5.99601E-002	7.49651E-001	3.57690E+000	9	...........
	9	0.133333	7.38229E-001	-9.82123E-005	0.00000E+000	-7.25032E-005	-5.99601E-002	7.38508E-001	3.57690E+000	9	...........
	10	0.146667	7.27235E-001	-9.92937E-005	0.00000E+000	-7.22099E-005	-5.99601E-002	7.27469E-001	3.57690E+000	9	...........
	11	0.16	7.16245E-001	-9.80820E-005	0.00000E+000	-7.02508E-005	-5.99601E-002	7.16511E-001	3.57690E+000	9	...........
	12	0.173333	7.05376E-001	-9.91625E-005	0.00000E+000	-6.99468E-005	-5.99601E-002	7.05660E-001	3.57690E+000	9	...........
	13	0.186667	6.94601E-001	-9.79799E-005	0.00000E+000	-6.80569E-005	-5.99601E-002	6.94864E-001	3.57690E+000	9	...........
	14	0.2	6.83882E-001	-9.99751E-005	0.00000E+000	-6.83712E-005	-5.99601E-002	6.84147E-001	3.57690E+000	9	...........
	15	0.213333	6.73203E-001	-9.72079E-005	0.00000E+000	-6.54406E-005	-5.99601E-002	6.73474E-001	3.57690E+000	9	...........
	16	0.226667	6.62538E-001	-9.90583E-005	0.00000E+000	-6.56298E-005	-5.99601E-002	6.62794E-001	3.57690E+000	9	...........
	17	0.24	6.51862E-001	-9.88530E-005	0.00000E+000	-6.44386E-005	-5.99601E-002	6.52129E-001	3.57690E+000	9	...........
	18	0.253333	6.41147E-001	-9.98376E-005	0.00000E+000	-6.40106E-005	-5.99601E-002	6.41367E-001	3.57690E+000	9	...........
	19	0.266667	6.30281E-001	-9.89562E-005	0.00000E+000	-6.23702E-005	-5.99601E-002	6.30533E-001	3.57690E+000	9	...........
	20	0.28	6.19305E-001	-9.82644E-005	0.00000E+000	-6.08556E-005	-5.99601E-002	6.19531E-001	3.57690E+000	9	...........
	21	0.293333	6.08062E-001	-9.83623E-005	0.00000E+000	-5.98104E-005	-5.99601E-002	6.08325E-001	3.57690E+000	9	...........
	22	0.306667	5.96704E-001	-9.97803E-005	0.00000E+000	-5.95394E-005	-5.99601E-002	5.96957E-001	3.57690E+000	9	...........
	23	0.32	5.85113E-001	-9.78757E-005	0.00000E+000	-5.72683E-005	-5.99601E-002	5.85365E-001	3.57690E+000	9	...........
	24	0.333333	5.73338E-001	-9.83185E-005	0.00000E+000	-5.63698E-005	-5.99601E-002	5.73580E-001	3.57690E+000	9	...........
	25	0.346667	5.61353E-001	-9.94907E-005	0.00000E+000	-5.58493E-005	-5.99601E-002	5.61607E-001	3.57690E+000	9	...........
	26	0.36	5.49204E-001	-9.89958E-005	0.00000E+000	-5.43689E-005	-5.99601E-002	5.49440E-001	3.57690E+000	9	...........
	27	0.373333	5.36856E-001	-9.94292E-005	0.00000E+000	-5.33792E-005	-5.99601E-002	5.37124E-001	3.57690E+000	9	...........
	28	0.386667	5.24400E-001	-9.92406E-005	0.00000E+000	-5.20418E-005	-5.99601E-002	5.24661E-001	3.57690E+000	9	...........
	29	0.4	5.11807E-001	-9.83675E-005	0.00000E+000	-5.03452E-005	-5.99601E-002	5.12036E-001	3.57690E+000	9	...........
	30	0.413333	4.99053E-001	-1.00510E-004	0.00000E+000	-5.01597E-005	-5.99601E-002	4.99316E-001	3.57690E+000	9	...........
	31	0.426667	4.86387E-001	-9.91187E-005	0.00000E+000	-4.82101E-005	-5.99601E-002	4.86539E-001	3.57690E+000	9	...........
	32	0.44	4.73649E-001	-9.97522E-005	0.00000E+000	-4.72475E-005	-5.99601E-002	4.73748E-001	3.57690E+000	9	...........
	33	0.453333	4.60638E-001	-9.91031E-005	0.00000E+000	-4.56506E-005	-5.99601E-002	4.60735E-001	3.57690E+000	9	...........
	34	0.466667	4.47553E-001	-9.91656E-005	0.00000E+000	-4.43819E-005	-5.99601E-002	4.47653E-001	3.57690E+000	9	...........
	35	0.48	4.34423E-001	-9.78205E-005	0.00000E+000	-4.24954E-005	-5.99601E-002	4.34516E-001	3.57690E+000	9	...........
	36	0.493333	4.21238E-001	-9.95209E-005	0.00000E+000	-4.19220E-005	-5.99601E-002	4.21332E-001	3.57690E+000	9	...........
	37	0.506667	4.08035E-001	-9.83071E-005	0.00000E+000	-4.01128E-005	-5.99601E-002	4.08121E-001	3.57690E+000	9	...........
	38	0.52	3.94799E-001	-9.77080E-005	0.00000E+000	-3.85751E-005	-5.99601E-002	3.94878E-001	3.57690E+000	9	...........
	39	0.533333	3.81553E-001	-9.84133E-005	0.00000E+000	-3.75499E-005	-5.99601E-002	3.81632E-001	3.57690E+000	9	...........
	40	0.546667	3.68319E-001	-9.85467E-005	0.00000E+000	-3.62967E-005	-5.99601E-002	3.68396E-001	3.57690E+000	9	...........
	41	0.56	3.55095E-001	-1.00026E-004	0.00000E+000	-3.55188E-005	-5.99601E-002	3.55170E-001	3.57690E+000	9	...........
	42	0.573333	3.41898E-001	-9.77486E-005	0.00000E+000	-3.34201E-005	-5.99601E-002	3.41971E-001	3.57690E+000	9	...........
	43	0.586667	3.28742E-001	-9.85332E-005	0.00000E+000	-3.23920E-005	-5.99601E-002	3.28801E-001	3.57690E+000	9	...........
	44	0.6	3.15613E-001	-9.88145E-005	0.00000E+000	-3.11871E-005	-5.99601E-002	3.15673E-001	3.57690E+000	9	...........
	45	0.613333	3.02530E-001	-9.90572E-005	0.00000E+000	-2.99677E-005	-5.99601E-002	3.02590E-001	3.57690E+000	9	...........
	46	0.626667	2.89497E-001	-9.87530E-005	0.00000E+000	-2.85887E-005	-5.99601E-002	2.89562E-001	3.57690E+000	9	...........
	47	0.64	2.76533E-001	-9.87447E-005	0.00000E+000	-2.73062E-005	-5.99601E-002	2.76593E-001	3.57690E+000	9	...........
	48	0.653333	2.63618E-001	-9.95844E-005	0.00000E+000	-2.62523E-005	-5.99601E-002	2.63675E-001	3.57690E+000	9	...........
	49	0.666667	2.50774E-001	-9.84019E-005	0.00000E+000	-2.46766E-005	-5.99601E-002	2.50828E-001	3.57690E+000	9	...........
	50	0.68	2.37989E-001	-9.95928E-005	0.00000E+000	-2.37019E-005	-5.99601E-002	2.38032E-001	3.57690E+000	9	...........
	51	0.693333	2.25274E-001	-9.80747E-005	0.00000E+000	-2.20937E-005	-5.99601E-002	2.25319E-001	3.57690E+000	9	...........
	52	0.706667	2.12603E-001	-9.82539E-005	0.00000E+000	-2.08891E-005	-5.99601E-002	2.12650E-001	3.57690E+000	9	...........
	53	0.72	2.00004E-001	-9.73454E-005	0.00000E+000	-1.94694E-005	-5.99601E-002	2.00049E-001	3.57690E+000	9	...........
	54	0.733333	1.87467E-001	-9.87395E-005	0.00000E+000	-1.85104E-005	-5.99601E-002	1.87506E-001	3.57690E+000	9	...........
	55	0.746667	1.74995E-001	-9.83435E-005	0.00000E+000	-1.72096E-005	-5.99601E-002	1.75033E-001	3.57690E+000	9	...........
	56	0.76	1.62592E-001	-9.96115E-005	0.00000E+000	-1.61961E-005	-5.99601E-002	1.62618E-001	3.57690E+000	9	...........
	57	0.773333	1.50247E-001	-9.88499E-005	0.00000E+000	-1.48519E-005	-5.99601E-002	1.50270E-001	3.57690E+000	9	...........
	58	0.786667	1.37949E-001	-9.86551E-005	0.00000E+000	-1.36094E-005	-5.99601E-002	1.37974E-001	3.57690E+000	9	...........
	59	0.8	1.25724E-001	-9.85998E-005	0.00000E+000	-1.23963E-005	-5.99601E-002	1.25742E-001	3.57690E+000	9	...........
	60	0.813333	1.13569E-001	-9.95542E-005	0.00000E+000	-1.13063E-005	-5.99601E-002	1.13590E-001	3.57690E+000	9	...........
	61	0.826667	1.01505E-001	-9.87280E-005	0.00000E+000	-1.00214E-005	-5.99601E-002	1.01527E-001	3.57690E+000	9	...........
	62	0.84	8.95235E-002	-9.93635E-005	0.00000E+000	-8.89538E-006	-5.99601E-002	8.95428E-002	3.57690E+000	9	...........
	63	0.853333	7.76444E-002	-9.90697E-005	0.00000E+000	-7.69221E-006	-5.99601E-002	7.76574E-002	3.57690E+000	9	...........
	64	0.866667	6.58736E-002	-9.86582E-005	0.00000E+000	-6.49897E-006	-5.99601E-002	6.58872E-002	3.57690E+000	9	...........
	65	0.88	5.42159E-002	-9.73673E-005	0.00000E+000	-5.27885E-006	-5.99601E-002	5.42259E-002	3.57690E+000	9	...........
	66	0.893333	4.27199E-002	-9.87634E-005	0.00000E+000	-4.21916E-006	-5.99601E-002	4.27262E-002	3.57690E+000	9	...........
	67	0.906667	3.13369E-002	-9.91312E-005	0.00000E+000	-3.10646E-006	-5.99601E-002	3.13383E-002	3.57690E+000	9	...........
	68	0.92	2.00997E-002	-9.87895E-005	0.00000E+000	-1.98564E-006	-5.99601E-002	2.00925E-002	3.57800E+000	9	...........
	69	0.933333	9.01663E-003	-9.94427E-005	0.00000E+000	-8.96638E-007	-5.99601E-002	9.00299E-003	3.57800E+000	9	...........
	70	0.94	8.18017E-004	-9.75871E-005	0.00000E+000	-7.98279E-008	-5.99601E-002	8.00208E-004	3.57800E+000	9	...........
STARTTIMEOFFSET	QUANT	1141.785	Start Time Offset (s)
