EXPLAIN
TAG	PWR800_DISCHARGE
TITLE	LABEL	PWR Cyclic Charge Discharge (Cell) - Discharge Step	Test &Identifier
DATE	LABEL	12-7-2017	Date
TIME	LABEL	16:35:10	Time
NOTES	NOTES	2	&Notes...
	supercap test cell
	6M KOH
PSTAT	PSTAT	IFC5000-01520	Potentiostat
CAPACITY	QUANT	1.00000E-003	Capacity (A-hr)
CELLTYPE	SELECTOR	1	&Cell Type
WORKINGCONNECTION	SELECTOR	0	&Working Lead
MAXDISCHARGETIME	VARIABLEANDUNITS	1.00000E+002	s	1.00000E+002	second(s)	Max &Discharge Time
DISCHARGEMODE	MULTIPARAM	0	1.00000E-004	&Discharge Mode	Constant Current	Amp(s)
SAMPLETIME	QUANT	1.00000E-002	Sa&mple Period (s)
DISCHARGESTOPAT1	MULTIPARAM	3	0.00000E+000	Discharge Stop At &1	Voltage < Limit	V
DISCHARGESTOPAT2	MULTIPARAM	0	0.00000E+000	Discharge Stop At &2	None	N/A
AESBHCSELECTOR	TOGGLE	F	Save Both Half Cells
IRCOMP	TOGGLE	F	IR &Measure
EOC	QUANT	0	Open Circuit (V)
SEQUENCER	TOGGLE	TRUE	Run as Sequence
PSTATMODEL	IQUANT	53	Pstat Model
PSTATSECTION	LABEL	IFC5000-01520	Pstat Section
PSTATSERIALNO	LABEL	01520	Pstat Serial Number
CTRLMODE	IQUANT	0	Control Mode
ELECTROMETER	IQUANT	1	RE=0 or CS=1
IESTAB	IQUANT	0	I/E Stability
CASPEED	IQUANT	4	Control Amp Speed
CONVENTION	IQUANT	1	Current Convention
ICHRANGE	IQUANT	2	Ich Range
ICHRANGEMODE	TOGGLE	T	Ich Auto Range
ICHOFFSETENABLE	TOGGLE	F	Ich Offset Enable
ICHOFFSET	QUANT	0	Ich Offset (V)
ICHFILTER	IQUANT	1	Ich Filter
VCHRANGE	IQUANT	2	Vch Range
VCHRANGEMODE	TOGGLE	T	Vch Auto Range
VCHOFFSETENABLE	TOGGLE	F	Vch Offset Enable
VCHOFFSET	QUANT	0	Vch Offset (V)
VCHFILTER	IQUANT	1	Vch Filter
IERANGELOWERLIMIT	IQUANT	9	I/E Range Lower Limit
IERANGEMODE	TOGGLE	F	I/E AutoRange
IERANGE	IQUANT	9	I/E Range
ACHSELECT	IQUANT	1	Ach Select
ACHRANGE	IQUANT	2	Ach Range
ACHOFFSETENABLE	TOGGLE	F	Ach Offset Enable
ACHOFFSET	QUANT	0	Ach Offset (V)
ACHFILTER	IQUANT	1	Ach Filter
CABLEID	IQUANT	14	Cable ID
DCCALDATE	LABEL	5-7-2017	DC Calibration Date
ACCALDATE	LABEL	12/3/2015	AC Calibration Date
FRAMEWORKVERSION	QUANT	7.01	Framework Version
INSTRUMENTVERSION	LABEL	4.00	Instrument Version
CURVE	TABLE	71
	Pt	T	Vf	Im	Vu	Pwr	Sig	Ach	Temp	IERange	Over
	#	s	V	A	V	W	V	V	deg C	#	bits
	0	0.013333	8.46908E-001	-9.74392E-005	0.00000E+000	-8.25220E-005	-5.99601E-002	8.47201E-001	3.57740E+000	9	...........
	1	0.026667	8.33836E-001	-9.91646E-005	0.00000E+000	-8.26870E-005	-5.99601E-002	8.34101E-001	3.57740E+000	9	...........
	2	0.04	8.21372E-001	-9.85613E-005	0.00000E+000	-8.09555E-005	-5.99601E-002	8.21621E-001	3.57740E+000	9	...........
	3	0.053333	8.09262E-001	-9.77882E-005	0.00000E+000	-7.91363E-005	-5.99601E-002	8.09516E-001	3.57740E+000	9	...........
	4	0.066667	7.97454E-001	-9.71350E-005	0.00000E+000	-7.74606E-005	-5.99601E-002	7.97683E-001	3.57740E+000	9	...........
	5	0.08	7.85793E-001	-9.85780E-005	0.00000E+000	-7.74619E-005	-5.99601E-002	7.86049E-001	3.57740E+000	9	...........
	6	0.093333	7.74345E-001	-9.83612E-005	0.00000E+000	-7.61656E-005	-5.99601E-002	7.74585E-001	3.57740E+000	9	...........
	7	0.106667	7.63007E-001	-9.93813E-005	0.00000E+000	-7.58286E-005	-5.99601E-002	7.63256E-001	3.57740E+000	9	...........
	8	0.12	7.51788E-001	-9.77142E-005	0.00000E+000	-7.34604E-005	-5.99601E-002	7.52047E-001	3.57740E+000	9	...........
	9	0.133333	7.40635E-001	-9.92739E-005	0.00000E+000	-7.35258E-005	-5.99601E-002	7.40909E-001	3.57740E+000	9	...........
	10	0.146667	7.29652E-001	-9.74027E-005	0.00000E+000	-7.10701E-005	-5.99601E-002	7.29893E-001	3.57740E+000	9	...........
	11	0.16	7.18707E-001	-9.85227E-005	0.00000E+000	-7.08090E-005	-5.99601E-002	7.18958E-001	3.57740E+000	9	...........
	12	0.173333	7.07826E-001	-9.89676E-005	0.00000E+000	-7.00518E-005	-5.99601E-002	7.08121E-001	3.57740E+000	9	...........
	13	0.186667	6.97059E-001	-9.84394E-005	0.00000E+000	-6.86181E-005	-5.99601E-002	6.97337E-001	3.57740E+000	9	...........
	14	0.2	6.86351E-001	-1.00198E-004	0.00000E+000	-6.87711E-005	-5.99601E-002	6.86607E-001	3.57740E+000	9	...........
	15	0.213333	6.75681E-001	-9.99355E-005	0.00000E+000	-6.75246E-005	-5.99601E-002	6.75943E-001	3.57740E+000	9	...........
	16	0.226667	6.65051E-001	-9.88770E-005	0.00000E+000	-6.57582E-005	-5.99601E-002	6.65299E-001	3.57740E+000	9	...........
	17	0.24	6.54386E-001	-9.87238E-005	0.00000E+000	-6.46035E-005	-5.99601E-002	6.54619E-001	3.57740E+000	9	...........
	18	0.253333	6.43661E-001	-9.92479E-005	0.00000E+000	-6.38820E-005	-5.99601E-002	6.43882E-001	3.57740E+000	9	...........
	19	0.266667	6.32804E-001	-9.74850E-005	0.00000E+000	-6.16889E-005	-5.99601E-002	6.33044E-001	3.57740E+000	9	...........
	20	0.28	6.21854E-001	-9.92479E-005	0.00000E+000	-6.17177E-005	-5.99601E-002	6.22046E-001	3.57740E+000	9	...........
	21	0.293333	6.10616E-001	-9.87311E-005	0.00000E+000	-6.02868E-005	-5.99601E-002	6.10863E-001	3.57740E+000	9	...........
	22	0.306667	5.99267E-001	-9.78945E-005	0.00000E+000	-5.86649E-005	-5.99601E-002	5.99500E-001	3.57740E+000	9	...........
	23	0.32	5.87705E-001	-9.87665E-005	0.00000E+000	-5.80456E-005	-5.99601E-002	5.87937E-001	3.57740E+000	9	...........
	24	0.333333	5.75916E-001	-9.82894E-005	0.00000E+000	-5.66064E-005	-5.99601E-002	5.76162E-001	3.57740E+000	9	...........
	25	0.346667	5.63976E-001	-9.91948E-005	0.00000E+000	-5.59435E-005	-5.99601E-002	5.64215E-001	3.57740E+000	9	...........
	26	0.36	5.51833E-001	-9.93312E-005	0.00000E+000	-5.48142E-005	-5.99601E-002	5.52056E-001	3.57740E+000	9	...........
	27	0.373333	5.39535E-001	-9.91354E-005	0.00000E+000	-5.34870E-005	-5.99601E-002	5.39761E-001	3.57740E+000	9	...........
	28	0.386667	5.27087E-001	-9.92771E-005	0.00000E+000	-5.23277E-005	-5.99601E-002	5.27301E-001	3.57740E+000	9	...........
	29	0.4	5.14493E-001	-9.74840E-005	0.00000E+000	-5.01548E-005	-5.99601E-002	5.14713E-001	3.57740E+000	9	...........
	30	0.413333	5.01752E-001	-9.86582E-005	0.00000E+000	-4.95019E-005	-5.99601E-002	5.01988E-001	3.57740E+000	9	...........
	31	0.426667	4.88997E-001	-9.93187E-005	0.00000E+000	-4.85666E-005	-5.99601E-002	4.89217E-001	3.57740E+000	9	...........
	32	0.44	4.76366E-001	-9.96553E-005	0.00000E+000	-4.74724E-005	-5.99601E-002	4.76468E-001	3.57740E+000	9	...........
	33	0.453333	4.63380E-001	-9.81227E-005	0.00000E+000	-4.54681E-005	-5.99601E-002	4.63478E-001	3.57740E+000	9	...........
	34	0.466667	4.50317E-001	-9.86790E-005	0.00000E+000	-4.44369E-005	-5.99601E-002	4.50417E-001	3.57740E+000	9	...........
	35	0.48	4.37205E-001	-9.94136E-005	0.00000E+000	-4.34641E-005	-5.99601E-002	4.37300E-001	3.57740E+000	9	...........
	36	0.493333	4.24054E-001	-9.87613E-005	0.00000E+000	-4.18801E-005	-5.99601E-002	4.24147E-001	3.57740E+000	9	...........
	37	0.506667	4.10864E-001	-9.83706E-005	0.00000E+000	-4.04170E-005	-5.99601E-002	4.10949E-001	3.57740E+000	9	...........
	38	0.52	3.97662E-001	-9.89405E-005	0.00000E+000	-3.93449E-005	-5.99601E-002	3.97735E-001	3.57740E+000	9	...........
	39	0.533333	3.84444E-001	-9.74402E-005	0.00000E+000	-3.74603E-005	-5.99601E-002	3.84521E-001	3.57740E+000	9	...........
	40	0.546667	3.71223E-001	-9.90864E-005	0.00000E+000	-3.67831E-005	-5.99601E-002	3.71299E-001	3.57740E+000	9	...........
	41	0.56	3.58023E-001	-9.89853E-005	0.00000E+000	-3.54390E-005	-5.99601E-002	3.58092E-001	3.57740E+000	9	...........
	42	0.573333	3.44843E-001	-9.62285E-005	0.00000E+000	-3.31837E-005	-5.99601E-002	3.44913E-001	3.57740E+000	9	...........
	43	0.586667	3.31685E-001	-9.87488E-005	0.00000E+000	-3.27535E-005	-5.99601E-002	3.31761E-001	3.57740E+000	9	...........
	44	0.6	3.18585E-001	-9.85363E-005	0.00000E+000	-3.13922E-005	-5.99601E-002	3.18650E-001	3.57740E+000	9	...........
	45	0.613333	3.05524E-001	-9.88197E-005	0.00000E+000	-3.01918E-005	-5.99601E-002	3.05587E-001	3.57740E+000	9	...........
	46	0.626667	2.92513E-001	-9.91020E-005	0.00000E+000	-2.89887E-005	-5.99601E-002	2.92572E-001	3.57740E+000	9	...........
	47	0.64	2.79556E-001	-9.83863E-005	0.00000E+000	-2.75044E-005	-5.99601E-002	2.79615E-001	3.57740E+000	9	...........
	48	0.653333	2.66650E-001	-9.76444E-005	0.00000E+000	-2.60369E-005	-5.99601E-002	2.66711E-001	3.57740E+000	9	...........
	49	0.666667	2.53815E-001	-9.84384E-005	0.00000E+000	-2.49852E-005	-5.99601E-002	2.53869E-001	3.57740E+000	9	...........
	50	0.68	2.41042E-001	-9.88707E-005	0.00000E+000	-2.38320E-005	-5.99601E-002	2.41088E-001	3.57740E+000	9	...........
	51	0.693333	2.28320E-001	-9.93344E-005	0.00000E+000	-2.26800E-005	-5.99601E-002	2.28368E-001	3.57740E+000	9	...........
	52	0.706667	2.15666E-001	-9.80081E-005	0.00000E+000	-2.11370E-005	-5.99601E-002	2.15702E-001	3.57740E+000	9	...........
	53	0.72	2.03077E-001	-9.87780E-005	0.00000E+000	-2.00595E-005	-5.99601E-002	2.03114E-001	3.57740E+000	9	...........
	54	0.733333	1.90540E-001	-9.86123E-005	0.00000E+000	-1.87896E-005	-5.99601E-002	1.90575E-001	3.57740E+000	9	...........
	55	0.746667	1.78074E-001	-9.86144E-005	0.00000E+000	-1.75607E-005	-5.99601E-002	1.78102E-001	3.57757E+000	9	...........
	56	0.76	1.65656E-001	-9.95521E-005	0.00000E+000	-1.64914E-005	-5.99601E-002	1.65684E-001	3.57810E+000	9	...........
	57	0.773333	1.53307E-001	-9.87207E-005	0.00000E+000	-1.51346E-005	-5.99601E-002	1.53333E-001	3.57810E+000	9	...........
	58	0.786667	1.41019E-001	-9.90781E-005	0.00000E+000	-1.39719E-005	-5.99601E-002	1.41043E-001	3.57810E+000	9	...........
	59	0.8	1.28786E-001	-9.75465E-005	0.00000E+000	-1.25627E-005	-5.99601E-002	1.28808E-001	3.57810E+000	9	...........
	60	0.813333	1.16623E-001	-9.93115E-005	0.00000E+000	-1.15820E-005	-5.99601E-002	1.16645E-001	3.57810E+000	9	...........
	61	0.826667	1.04541E-001	-9.85321E-005	0.00000E+000	-1.03007E-005	-5.99601E-002	1.04559E-001	3.57810E+000	9	...........
	62	0.84	9.25464E-002	-9.87488E-005	0.00000E+000	-9.13885E-006	-5.99601E-002	9.25641E-002	3.57810E+000	9	...........
	63	0.853333	8.06432E-002	-9.94865E-005	0.00000E+000	-8.02291E-006	-5.99601E-002	8.06517E-002	3.57810E+000	9	...........
	64	0.866667	6.88462E-002	-9.87061E-005	0.00000E+000	-6.79554E-006	-5.99601E-002	6.88485E-002	3.57810E+000	9	...........
	65	0.88	5.71626E-002	-9.93667E-005	0.00000E+000	-5.68006E-006	-5.99601E-002	5.71674E-002	3.57810E+000	9	...........
	66	0.893333	4.56269E-002	-9.95886E-005	0.00000E+000	-4.54392E-006	-5.99601E-002	4.56331E-002	3.57810E+000	9	...........
	67	0.906667	3.42184E-002	-9.93458E-005	0.00000E+000	-3.39946E-006	-5.99601E-002	3.42182E-002	3.57810E+000	9	...........
	68	0.92	2.29418E-002	-9.84123E-005	0.00000E+000	-2.25776E-006	-5.99601E-002	2.29373E-002	3.57810E+000	9	...........
	69	0.933333	1.18189E-002	-9.92625E-005	0.00000E+000	-1.17317E-006	-5.99601E-002	1.18053E-002	3.57810E+000	9	...........
	70	0.943333	2.22275E-003	-9.96521E-005	0.00000E+000	-2.21502E-007	-5.99601E-002	2.19917E-003	3.57810E+000	9	...........
STARTTIMEOFFSET	QUANT	1073.674	Start Time Offset (s)
