EXPLAIN
TAG	PWR800_DISCHARGE
TITLE	LABEL	PWR Cyclic Charge Discharge (Cell) - Discharge Step	Test &Identifier
DATE	LABEL	12-7-2017	Date
TIME	LABEL	16:17:46	Time
NOTES	NOTES	2	&Notes...
	supercap test cell
	6M KOH
PSTAT	PSTAT	IFC5000-01520	Potentiostat
CAPACITY	QUANT	1.00000E-003	Capacity (A-hr)
CELLTYPE	SELECTOR	1	&Cell Type
WORKINGCONNECTION	SELECTOR	0	&Working Lead
MAXDISCHARGETIME	VARIABLEANDUNITS	1.00000E+002	s	1.00000E+002	second(s)	Max &Discharge Time
DISCHARGEMODE	MULTIPARAM	0	1.00000E-004	&Discharge Mode	Constant Current	Amp(s)
SAMPLETIME	QUANT	1.00000E-002	Sa&mple Period (s)
DISCHARGESTOPAT1	MULTIPARAM	3	0.00000E+000	Discharge Stop At &1	Voltage < Limit	V
DISCHARGESTOPAT2	MULTIPARAM	0	0.00000E+000	Discharge Stop At &2	None	N/A
AESBHCSELECTOR	TOGGLE	F	Save Both Half Cells
IRCOMP	TOGGLE	F	IR &Measure
EOC	QUANT	0	Open Circuit (V)
SEQUENCER	TOGGLE	TRUE	Run as Sequence
PSTATMODEL	IQUANT	53	Pstat Model
PSTATSECTION	LABEL	IFC5000-01520	Pstat Section
PSTATSERIALNO	LABEL	01520	Pstat Serial Number
CTRLMODE	IQUANT	0	Control Mode
ELECTROMETER	IQUANT	1	RE=0 or CS=1
IESTAB	IQUANT	0	I/E Stability
CASPEED	IQUANT	4	Control Amp Speed
CONVENTION	IQUANT	1	Current Convention
ICHRANGE	IQUANT	2	Ich Range
ICHRANGEMODE	TOGGLE	T	Ich Auto Range
ICHOFFSETENABLE	TOGGLE	F	Ich Offset Enable
ICHOFFSET	QUANT	0	Ich Offset (V)
ICHFILTER	IQUANT	1	Ich Filter
VCHRANGE	IQUANT	2	Vch Range
VCHRANGEMODE	TOGGLE	T	Vch Auto Range
VCHOFFSETENABLE	TOGGLE	F	Vch Offset Enable
VCHOFFSET	QUANT	0	Vch Offset (V)
VCHFILTER	IQUANT	1	Vch Filter
IERANGELOWERLIMIT	IQUANT	9	I/E Range Lower Limit
IERANGEMODE	TOGGLE	F	I/E AutoRange
IERANGE	IQUANT	9	I/E Range
ACHSELECT	IQUANT	1	Ach Select
ACHRANGE	IQUANT	2	Ach Range
ACHOFFSETENABLE	TOGGLE	F	Ach Offset Enable
ACHOFFSET	QUANT	0	Ach Offset (V)
ACHFILTER	IQUANT	1	Ach Filter
CABLEID	IQUANT	14	Cable ID
DCCALDATE	LABEL	5-7-2017	DC Calibration Date
ACCALDATE	LABEL	12/3/2015	AC Calibration Date
FRAMEWORKVERSION	QUANT	7.01	Framework Version
INSTRUMENTVERSION	LABEL	4.00	Instrument Version
CURVE	TABLE	72
	Pt	T	Vf	Im	Vu	Pwr	Sig	Ach	Temp	IERange	Over
	#	s	V	A	V	W	V	V	deg C	#	bits
	0	0.013333	8.42497E-001	-9.86905E-005	0.00000E+000	-8.31464E-005	-5.99601E-002	8.42861E-001	3.57730E+000	9	...........
	1	0.026667	8.29602E-001	-9.91916E-005	0.00000E+000	-8.22896E-005	-5.99601E-002	8.29926E-001	3.57730E+000	9	...........
	2	0.04	8.17240E-001	-9.93917E-005	0.00000E+000	-8.12268E-005	-5.99601E-002	8.17590E-001	3.57730E+000	9	...........
	3	0.053333	8.05313E-001	-9.94657E-005	0.00000E+000	-8.01010E-005	-5.99601E-002	8.05622E-001	3.57730E+000	9	...........
	4	0.066667	7.93605E-001	-9.97480E-005	0.00000E+000	-7.91605E-005	-5.99601E-002	7.93921E-001	3.57730E+000	9	...........
	5	0.08	7.82138E-001	-9.85217E-005	0.00000E+000	-7.70576E-005	-5.99601E-002	7.82430E-001	3.57730E+000	9	...........
	6	0.093333	7.70850E-001	-9.84342E-005	0.00000E+000	-7.58780E-005	-5.99601E-002	7.71130E-001	3.57730E+000	9	...........
	7	0.106667	7.59678E-001	-9.86634E-005	0.00000E+000	-7.49525E-005	-5.99601E-002	7.59959E-001	3.57730E+000	9	...........
	8	0.12	7.48622E-001	-9.77517E-005	0.00000E+000	-7.31791E-005	-5.99601E-002	7.48918E-001	3.57730E+000	9	...........
	9	0.133333	7.37653E-001	-9.89228E-005	0.00000E+000	-7.29707E-005	-5.99601E-002	7.37928E-001	3.57730E+000	9	...........
	10	0.146667	7.26749E-001	-9.79466E-005	0.00000E+000	-7.11826E-005	-5.99601E-002	7.27014E-001	3.57730E+000	9	...........
	11	0.16	7.15851E-001	-9.87280E-005	0.00000E+000	-7.06745E-005	-5.99601E-002	7.16124E-001	3.57730E+000	9	...........
	12	0.173333	7.04937E-001	-9.84456E-005	0.00000E+000	-6.93980E-005	-5.99601E-002	7.05204E-001	3.57730E+000	9	...........
	13	0.186667	6.93957E-001	-9.95771E-005	0.00000E+000	-6.91022E-005	-5.99601E-002	6.94213E-001	3.57730E+000	9	...........
	14	0.2	6.82885E-001	-9.88436E-005	0.00000E+000	-6.74988E-005	-5.99601E-002	6.83130E-001	3.57730E+000	9	...........
	15	0.213333	6.71690E-001	-9.88259E-005	0.00000E+000	-6.63804E-005	-5.99601E-002	6.71960E-001	3.57730E+000	9	...........
	16	0.226667	6.60327E-001	-9.92635E-005	0.00000E+000	-6.55464E-005	-5.99601E-002	6.60568E-001	3.57730E+000	9	...........
	17	0.24	6.48825E-001	-9.95271E-005	0.00000E+000	-6.45757E-005	-5.99601E-002	6.49087E-001	3.57730E+000	9	...........
	18	0.253333	6.37209E-001	-9.83769E-005	0.00000E+000	-6.26867E-005	-5.99601E-002	6.37452E-001	3.57730E+000	9	...........
	19	0.266667	6.25451E-001	-9.82612E-005	0.00000E+000	-6.14576E-005	-5.99601E-002	6.25699E-001	3.57730E+000	9	...........
	20	0.28	6.13552E-001	-9.84957E-005	0.00000E+000	-6.04322E-005	-5.99601E-002	6.13811E-001	3.57730E+000	9	...........
	21	0.293333	6.01561E-001	-9.88551E-005	0.00000E+000	-5.94674E-005	-5.99601E-002	6.01853E-001	3.57730E+000	9	...........
	22	0.306667	5.89526E-001	-9.94625E-005	0.00000E+000	-5.86357E-005	-5.99601E-002	5.89756E-001	3.57730E+000	9	...........
	23	0.32	5.77356E-001	-9.90645E-005	0.00000E+000	-5.71955E-005	-5.99601E-002	5.77600E-001	3.57730E+000	9	...........
	24	0.333333	5.65154E-001	-9.84748E-005	0.00000E+000	-5.56534E-005	-5.99601E-002	5.65383E-001	3.57730E+000	9	...........
	25	0.346667	5.52876E-001	-9.85123E-005	0.00000E+000	-5.44651E-005	-5.99601E-002	5.53086E-001	3.57730E+000	9	...........
	26	0.36	5.40530E-001	-9.88989E-005	0.00000E+000	-5.34578E-005	-5.99601E-002	5.40762E-001	3.57730E+000	9	...........
	27	0.373333	5.28133E-001	-9.95000E-005	0.00000E+000	-5.25492E-005	-5.99601E-002	5.28362E-001	3.57730E+000	9	...........
	28	0.386667	5.15726E-001	-9.88082E-005	0.00000E+000	-5.09580E-005	-5.99601E-002	5.15927E-001	3.57730E+000	9	...........
	29	0.4	5.03251E-001	-9.90291E-005	0.00000E+000	-4.98365E-005	-5.99601E-002	5.03503E-001	3.57730E+000	9	...........
	30	0.413333	4.90818E-001	-9.89082E-005	0.00000E+000	-4.85459E-005	-5.99601E-002	4.91060E-001	3.57730E+000	9	...........
	31	0.426667	4.78668E-001	-9.94531E-005	0.00000E+000	-4.76051E-005	-5.99601E-002	4.78746E-001	3.57730E+000	9	...........
	32	0.44	4.66189E-001	-9.94323E-005	0.00000E+000	-4.63542E-005	-5.99601E-002	4.66291E-001	3.57730E+000	9	...........
	33	0.453333	4.53713E-001	-9.91458E-005	0.00000E+000	-4.49837E-005	-5.99601E-002	4.53816E-001	3.57730E+000	9	...........
	34	0.466667	4.41239E-001	-9.93167E-005	0.00000E+000	-4.38224E-005	-5.99601E-002	4.41340E-001	3.57730E+000	9	...........
	35	0.48	4.28774E-001	-9.92729E-005	0.00000E+000	-4.25656E-005	-5.99601E-002	4.28869E-001	3.57730E+000	9	...........
	36	0.493333	4.16319E-001	-9.84779E-005	0.00000E+000	-4.09982E-005	-5.99601E-002	4.16413E-001	3.57730E+000	9	...........
	37	0.506667	4.03889E-001	-9.81727E-005	0.00000E+000	-3.96509E-005	-5.99601E-002	4.03975E-001	3.57730E+000	9	...........
	38	0.52	3.91474E-001	-9.79466E-005	0.00000E+000	-3.83435E-005	-5.99601E-002	3.91557E-001	3.57730E+000	9	...........
	39	0.533333	3.79088E-001	-9.85373E-005	0.00000E+000	-3.73543E-005	-5.99601E-002	3.79168E-001	3.57730E+000	9	...........
	40	0.546667	3.66712E-001	-9.93135E-005	0.00000E+000	-3.64194E-005	-5.99601E-002	3.66790E-001	3.57730E+000	9	...........
	41	0.56	3.54368E-001	-9.95250E-005	0.00000E+000	-3.52685E-005	-5.99601E-002	3.54441E-001	3.57730E+000	9	...........
	42	0.573333	3.42049E-001	-9.83821E-005	0.00000E+000	-3.36515E-005	-5.99601E-002	3.42122E-001	3.57730E+000	9	...........
	43	0.586667	3.29755E-001	-9.82612E-005	0.00000E+000	-3.24022E-005	-5.99601E-002	3.29825E-001	3.57730E+000	9	...........
	44	0.6	3.17475E-001	-9.77830E-005	0.00000E+000	-3.10437E-005	-5.99601E-002	3.17544E-001	3.57730E+000	9	...........
	45	0.613333	3.05213E-001	-9.85863E-005	0.00000E+000	-3.00898E-005	-5.99601E-002	3.05282E-001	3.57730E+000	9	...........
	46	0.626667	2.92981E-001	-9.85384E-005	0.00000E+000	-2.88698E-005	-5.99601E-002	2.93041E-001	3.57730E+000	9	...........
	47	0.64	2.80760E-001	-9.83467E-005	0.00000E+000	-2.76118E-005	-5.99601E-002	2.80826E-001	3.57730E+000	9	...........
	48	0.653333	2.68547E-001	-9.89968E-005	0.00000E+000	-2.65853E-005	-5.99601E-002	2.68607E-001	3.57730E+000	9	...........
	49	0.666667	2.56344E-001	-9.78601E-005	0.00000E+000	-2.50859E-005	-5.99601E-002	2.56405E-001	3.57730E+000	9	...........
	50	0.68	2.44150E-001	-9.93646E-005	0.00000E+000	-2.42599E-005	-5.99601E-002	2.44200E-001	3.57730E+000	9	...........
	51	0.693333	2.31955E-001	-9.85790E-005	0.00000E+000	-2.28659E-005	-5.99601E-002	2.32003E-001	3.57730E+000	9	...........
	52	0.706667	2.19778E-001	-9.86790E-005	0.00000E+000	-2.16874E-005	-5.99601E-002	2.19821E-001	3.57730E+000	9	...........
	53	0.72	2.07595E-001	-9.82466E-005	0.00000E+000	-2.03955E-005	-5.99601E-002	2.07642E-001	3.57730E+000	9	...........
	54	0.733333	1.95426E-001	-9.84967E-005	0.00000E+000	-1.92489E-005	-5.99601E-002	1.95467E-001	3.57730E+000	9	...........
	55	0.746667	1.83274E-001	-9.87468E-005	0.00000E+000	-1.80977E-005	-5.99601E-002	1.83310E-001	3.57730E+000	9	...........
	56	0.76	1.71143E-001	-9.89645E-005	0.00000E+000	-1.69371E-005	-5.99601E-002	1.71174E-001	3.57730E+000	9	...........
	57	0.773333	1.59040E-001	-9.88343E-005	0.00000E+000	-1.57186E-005	-5.99601E-002	1.59078E-001	3.57730E+000	9	...........
	58	0.786667	1.46963E-001	-9.95782E-005	0.00000E+000	-1.46343E-005	-5.99601E-002	1.46987E-001	3.57730E+000	9	...........
	59	0.8	1.34914E-001	-9.81175E-005	0.00000E+000	-1.32374E-005	-5.99601E-002	1.34939E-001	3.57730E+000	9	...........
	60	0.813333	1.22905E-001	-9.88145E-005	0.00000E+000	-1.21448E-005	-5.99601E-002	1.22929E-001	3.57745E+000	9	...........
	61	0.826667	1.10942E-001	-9.89145E-005	0.00000E+000	-1.09737E-005	-5.99601E-002	1.10965E-001	3.57850E+000	9	...........
	62	0.84	9.90411E-002	-9.91520E-005	0.00000E+000	-9.82012E-006	-5.99601E-002	9.90549E-002	3.57850E+000	9	...........
	63	0.853333	8.71968E-002	-9.90697E-005	0.00000E+000	-8.63857E-006	-5.99601E-002	8.72154E-002	3.57850E+000	9	...........
	64	0.866667	7.54253E-002	-9.86103E-005	0.00000E+000	-7.43771E-006	-5.99601E-002	7.54403E-002	3.57850E+000	9	...........
	65	0.88	6.37512E-002	-9.87249E-005	0.00000E+000	-6.29383E-006	-5.99601E-002	6.37564E-002	3.57850E+000	9	...........
	66	0.893333	5.21696E-002	-9.84623E-005	0.00000E+000	-5.13674E-006	-5.99601E-002	5.21630E-002	3.57850E+000	9	...........
	67	0.906667	4.07174E-002	-9.88957E-005	0.00000E+000	-4.02678E-006	-5.99601E-002	4.07214E-002	3.57850E+000	9	...........
	68	0.92	2.93587E-002	-9.86280E-005	0.00000E+000	-2.89559E-006	-5.99601E-002	2.93555E-002	3.57850E+000	9	...........
	69	0.933333	1.81312E-002	-9.95750E-005	0.00000E+000	-1.80542E-006	-5.99601E-002	1.81233E-002	3.57850E+000	9	...........
	70	0.946667	7.04669E-003	-9.87009E-005	0.00000E+000	-6.95515E-007	-5.99601E-002	7.02927E-003	3.57850E+000	9	...........
	71	0.95	1.88924E-004	-9.83685E-005	0.00000E+000	-1.85842E-008	-5.99601E-002	1.74898E-004	3.57850E+000	9	...........
STARTTIMEOFFSET	QUANT	329.93	Start Time Offset (s)
