EXPLAIN
TAG	PWR800_DISCHARGE
TITLE	LABEL	PWR Cyclic Charge Discharge (Cell) - Discharge Step	Test &Identifier
DATE	LABEL	12-7-2017	Date
TIME	LABEL	16:20:17	Time
NOTES	NOTES	2	&Notes...
	supercap test cell
	6M KOH
PSTAT	PSTAT	IFC5000-01520	Potentiostat
CAPACITY	QUANT	1.00000E-003	Capacity (A-hr)
CELLTYPE	SELECTOR	1	&Cell Type
WORKINGCONNECTION	SELECTOR	0	&Working Lead
MAXDISCHARGETIME	VARIABLEANDUNITS	1.00000E+002	s	1.00000E+002	second(s)	Max &Discharge Time
DISCHARGEMODE	MULTIPARAM	0	1.00000E-004	&Discharge Mode	Constant Current	Amp(s)
SAMPLETIME	QUANT	1.00000E-002	Sa&mple Period (s)
DISCHARGESTOPAT1	MULTIPARAM	3	0.00000E+000	Discharge Stop At &1	Voltage < Limit	V
DISCHARGESTOPAT2	MULTIPARAM	0	0.00000E+000	Discharge Stop At &2	None	N/A
AESBHCSELECTOR	TOGGLE	F	Save Both Half Cells
IRCOMP	TOGGLE	F	IR &Measure
EOC	QUANT	0	Open Circuit (V)
SEQUENCER	TOGGLE	TRUE	Run as Sequence
PSTATMODEL	IQUANT	53	Pstat Model
PSTATSECTION	LABEL	IFC5000-01520	Pstat Section
PSTATSERIALNO	LABEL	01520	Pstat Serial Number
CTRLMODE	IQUANT	0	Control Mode
ELECTROMETER	IQUANT	1	RE=0 or CS=1
IESTAB	IQUANT	0	I/E Stability
CASPEED	IQUANT	4	Control Amp Speed
CONVENTION	IQUANT	1	Current Convention
ICHRANGE	IQUANT	2	Ich Range
ICHRANGEMODE	TOGGLE	T	Ich Auto Range
ICHOFFSETENABLE	TOGGLE	F	Ich Offset Enable
ICHOFFSET	QUANT	0	Ich Offset (V)
ICHFILTER	IQUANT	1	Ich Filter
VCHRANGE	IQUANT	2	Vch Range
VCHRANGEMODE	TOGGLE	T	Vch Auto Range
VCHOFFSETENABLE	TOGGLE	F	Vch Offset Enable
VCHOFFSET	QUANT	0	Vch Offset (V)
VCHFILTER	IQUANT	1	Vch Filter
IERANGELOWERLIMIT	IQUANT	9	I/E Range Lower Limit
IERANGEMODE	TOGGLE	F	I/E AutoRange
IERANGE	IQUANT	9	I/E Range
ACHSELECT	IQUANT	1	Ach Select
ACHRANGE	IQUANT	2	Ach Range
ACHOFFSETENABLE	TOGGLE	F	Ach Offset Enable
ACHOFFSET	QUANT	0	Ach Offset (V)
ACHFILTER	IQUANT	1	Ach Filter
CABLEID	IQUANT	14	Cable ID
DCCALDATE	LABEL	5-7-2017	DC Calibration Date
ACCALDATE	LABEL	12/3/2015	AC Calibration Date
FRAMEWORKVERSION	QUANT	7.01	Framework Version
INSTRUMENTVERSION	LABEL	4.00	Instrument Version
CURVE	TABLE	71
	Pt	T	Vf	Im	Vu	Pwr	Sig	Ach	Temp	IERange	Over
	#	s	V	A	V	W	V	V	deg C	#	bits
	0	0.013333	8.41144E-001	-9.90937E-005	0.00000E+000	-8.33520E-005	-5.99601E-002	8.41484E-001	3.57840E+000	9	...........
	1	0.026667	8.28239E-001	-9.87092E-005	0.00000E+000	-8.17548E-005	-5.99601E-002	8.28587E-001	3.57840E+000	9	...........
	2	0.04	8.15913E-001	-9.77195E-005	0.00000E+000	-7.97306E-005	-5.99601E-002	8.16233E-001	3.57840E+000	9	...........
	3	0.053333	8.03985E-001	-9.87426E-005	0.00000E+000	-7.93875E-005	-5.99601E-002	8.04258E-001	3.57840E+000	9	...........
	4	0.066667	7.92286E-001	-9.85040E-005	0.00000E+000	-7.80433E-005	-5.99601E-002	7.92582E-001	3.57840E+000	9	...........
	5	0.08	7.80830E-001	-9.77049E-005	0.00000E+000	-7.62909E-005	-5.99601E-002	7.81110E-001	3.57840E+000	9	...........
	6	0.093333	7.69536E-001	-9.91177E-005	0.00000E+000	-7.62746E-005	-5.99601E-002	7.69822E-001	3.57840E+000	9	...........
	7	0.106667	7.58387E-001	-9.84925E-005	0.00000E+000	-7.46954E-005	-5.99601E-002	7.58671E-001	3.57840E+000	9	...........
	8	0.12	7.47393E-001	-9.92156E-005	0.00000E+000	-7.41530E-005	-5.99601E-002	7.47636E-001	3.57840E+000	9	...........
	9	0.133333	7.36440E-001	-9.92594E-005	0.00000E+000	-7.30985E-005	-5.99601E-002	7.36729E-001	3.57840E+000	9	...........
	10	0.146667	7.25622E-001	-9.84519E-005	0.00000E+000	-7.14389E-005	-5.99601E-002	7.25899E-001	3.57840E+000	9	...........
	11	0.16	7.14802E-001	-9.96146E-005	0.00000E+000	-7.12047E-005	-5.99601E-002	7.15096E-001	3.57840E+000	9	...........
	12	0.173333	7.04078E-001	-9.82644E-005	0.00000E+000	-6.91858E-005	-5.99601E-002	7.04333E-001	3.57840E+000	9	...........
	13	0.186667	6.93258E-001	-9.73381E-005	0.00000E+000	-6.74804E-005	-5.99601E-002	6.93577E-001	3.57840E+000	9	...........
	14	0.2	6.82425E-001	-9.88374E-005	0.00000E+000	-6.74491E-005	-5.99601E-002	6.82689E-001	3.57840E+000	9	...........
	15	0.213333	6.71490E-001	-9.95917E-005	0.00000E+000	-6.68748E-005	-5.99601E-002	6.71744E-001	3.57840E+000	9	...........
	16	0.226667	6.60360E-001	-9.86519E-005	0.00000E+000	-6.51458E-005	-5.99601E-002	6.60653E-001	3.57840E+000	9	...........
	17	0.24	6.49125E-001	-9.84071E-005	0.00000E+000	-6.38785E-005	-5.99601E-002	6.49416E-001	3.57840E+000	9	...........
	18	0.253333	6.37726E-001	-9.76694E-005	0.00000E+000	-6.22863E-005	-5.99601E-002	6.38006E-001	3.57840E+000	9	...........
	19	0.266667	6.26183E-001	-9.96480E-005	0.00000E+000	-6.23979E-005	-5.99601E-002	6.26426E-001	3.57840E+000	9	...........
	20	0.28	6.14456E-001	-9.88155E-005	0.00000E+000	-6.07178E-005	-5.99601E-002	6.14725E-001	3.57840E+000	9	...........
	21	0.293333	6.02593E-001	-9.92969E-005	0.00000E+000	-5.98356E-005	-5.99601E-002	6.02870E-001	3.57840E+000	9	...........
	22	0.306667	5.90651E-001	-9.83144E-005	0.00000E+000	-5.80695E-005	-5.99601E-002	5.90905E-001	3.57840E+000	9	...........
	23	0.32	5.78563E-001	-9.91052E-005	0.00000E+000	-5.73386E-005	-5.99601E-002	5.78815E-001	3.57840E+000	9	...........
	24	0.333333	5.66420E-001	-9.75767E-005	0.00000E+000	-5.52694E-005	-5.99601E-002	5.66662E-001	3.57821E+000	9	...........
	25	0.346667	5.54118E-001	-9.89239E-005	0.00000E+000	-5.48154E-005	-5.99601E-002	5.54362E-001	3.57690E+000	9	...........
	26	0.36	5.41797E-001	-9.85769E-005	0.00000E+000	-5.34087E-005	-5.99601E-002	5.42046E-001	3.57690E+000	9	...........
	27	0.373333	5.29372E-001	-9.75017E-005	0.00000E+000	-5.16147E-005	-5.99601E-002	5.29614E-001	3.57690E+000	9	...........
	28	0.386667	5.16916E-001	-9.85707E-005	0.00000E+000	-5.09528E-005	-5.99601E-002	5.17130E-001	3.57690E+000	9	...........
	29	0.4	5.04358E-001	-9.83592E-005	0.00000E+000	-4.96082E-005	-5.99601E-002	5.04595E-001	3.57690E+000	9	...........
	30	0.413333	4.91792E-001	-9.83988E-005	0.00000E+000	-4.83917E-005	-5.99601E-002	4.92021E-001	3.57690E+000	9	...........
	31	0.426667	4.79474E-001	-9.95344E-005	0.00000E+000	-4.77242E-005	-5.99601E-002	4.79600E-001	3.57690E+000	9	...........
	32	0.44	4.66896E-001	-9.87843E-005	0.00000E+000	-4.61220E-005	-5.99601E-002	4.66991E-001	3.57690E+000	9	...........
	33	0.453333	4.54250E-001	-9.82321E-005	0.00000E+000	-4.46219E-005	-5.99601E-002	4.54340E-001	3.57690E+000	9	...........
	34	0.466667	4.41590E-001	-9.67276E-005	0.00000E+000	-4.27139E-005	-5.99601E-002	4.41683E-001	3.57690E+000	9	...........
	35	0.48	4.28923E-001	-9.82081E-005	0.00000E+000	-4.21237E-005	-5.99601E-002	4.29019E-001	3.57690E+000	9	...........
	36	0.493333	4.16270E-001	-9.94719E-005	0.00000E+000	-4.14072E-005	-5.99601E-002	4.16359E-001	3.57690E+000	9	...........
	37	0.506667	4.03620E-001	-9.90562E-005	0.00000E+000	-3.99810E-005	-5.99601E-002	4.03704E-001	3.57690E+000	9	...........
	38	0.52	3.90985E-001	-9.77142E-005	0.00000E+000	-3.82048E-005	-5.99601E-002	3.91064E-001	3.57690E+000	9	...........
	39	0.533333	3.78369E-001	-9.79216E-005	0.00000E+000	-3.70505E-005	-5.99601E-002	3.78451E-001	3.57690E+000	9	...........
	40	0.546667	3.65785E-001	-9.74611E-005	0.00000E+000	-3.56498E-005	-5.99601E-002	3.65867E-001	3.57690E+000	9	...........
	41	0.56	3.53218E-001	-9.89301E-005	0.00000E+000	-3.49440E-005	-5.99601E-002	3.53292E-001	3.57690E+000	9	...........
	42	0.573333	3.40689E-001	-9.97907E-005	0.00000E+000	-3.39976E-005	-5.99601E-002	3.40759E-001	3.57690E+000	9	...........
	43	0.586667	3.28190E-001	-9.79706E-005	0.00000E+000	-3.21529E-005	-5.99601E-002	3.28258E-001	3.57690E+000	9	...........
	44	0.6	3.15724E-001	-9.78914E-005	0.00000E+000	-3.09067E-005	-5.99601E-002	3.15789E-001	3.57690E+000	9	...........
	45	0.613333	3.03278E-001	-9.85561E-005	0.00000E+000	-2.98899E-005	-5.99601E-002	3.03350E-001	3.57690E+000	9	...........
	46	0.626667	2.90868E-001	-9.95375E-005	0.00000E+000	-2.89523E-005	-5.99601E-002	2.90930E-001	3.57690E+000	9	...........
	47	0.64	2.78489E-001	-9.88270E-005	0.00000E+000	-2.75222E-005	-5.99601E-002	2.78550E-001	3.57690E+000	9	...........
	48	0.653333	2.66126E-001	-9.77351E-005	0.00000E+000	-2.60098E-005	-5.99601E-002	2.66189E-001	3.57690E+000	9	...........
	49	0.666667	2.53794E-001	-9.89999E-005	0.00000E+000	-2.51256E-005	-5.99601E-002	2.53848E-001	3.57690E+000	9	...........
	50	0.68	2.41485E-001	-9.84884E-005	0.00000E+000	-2.37835E-005	-5.99601E-002	2.41530E-001	3.57690E+000	9	...........
	51	0.693333	2.29185E-001	-9.89718E-005	0.00000E+000	-2.26829E-005	-5.99601E-002	2.29230E-001	3.57690E+000	9	...........
	52	0.706667	2.16896E-001	-9.79289E-005	0.00000E+000	-2.12404E-005	-5.99601E-002	2.16936E-001	3.57690E+000	9	...........
	53	0.72	2.04631E-001	-9.89437E-005	0.00000E+000	-2.02470E-005	-5.99601E-002	2.04680E-001	3.57690E+000	9	...........
	54	0.733333	1.92383E-001	-9.84102E-005	0.00000E+000	-1.89324E-005	-5.99601E-002	1.92425E-001	3.57690E+000	9	...........
	55	0.746667	1.80162E-001	-9.94854E-005	0.00000E+000	-1.79235E-005	-5.99601E-002	1.80202E-001	3.57690E+000	9	...........
	56	0.76	1.67963E-001	-9.77465E-005	0.00000E+000	-1.64178E-005	-5.99601E-002	1.67998E-001	3.57690E+000	9	...........
	57	0.773333	1.55791E-001	-9.84133E-005	0.00000E+000	-1.53319E-005	-5.99601E-002	1.55822E-001	3.57690E+000	9	...........
	58	0.786667	1.43662E-001	-9.82831E-005	0.00000E+000	-1.41195E-005	-5.99601E-002	1.43692E-001	3.57690E+000	9	...........
	59	0.8	1.31574E-001	-9.85613E-005	0.00000E+000	-1.29681E-005	-5.99601E-002	1.31600E-001	3.57690E+000	9	...........
	60	0.813333	1.19533E-001	-9.93406E-005	0.00000E+000	-1.18745E-005	-5.99601E-002	1.19552E-001	3.57690E+000	9	...........
	61	0.826667	1.07541E-001	-9.81966E-005	0.00000E+000	-1.05602E-005	-5.99601E-002	1.07559E-001	3.57690E+000	9	...........
	62	0.84	9.56090E-002	-9.90208E-005	0.00000E+000	-9.46728E-006	-5.99601E-002	9.56273E-002	3.57690E+000	9	...........
	63	0.853333	8.37558E-002	-9.90979E-005	0.00000E+000	-8.30002E-006	-5.99601E-002	8.37619E-002	3.57690E+000	9	...........
	64	0.866667	7.19785E-002	-9.91385E-005	0.00000E+000	-7.13584E-006	-5.99601E-002	7.19898E-002	3.57690E+000	9	...........
	65	0.88	6.02938E-002	-9.90989E-005	0.00000E+000	-5.97505E-006	-5.99601E-002	6.02984E-002	3.57690E+000	9	...........
	66	0.893333	4.87226E-002	-9.89364E-005	0.00000E+000	-4.82043E-006	-5.99601E-002	4.87272E-002	3.57690E+000	9	...........
	67	0.906667	3.72708E-002	-9.89687E-005	0.00000E+000	-3.68864E-006	-5.99601E-002	3.72739E-002	3.57690E+000	9	...........
	68	0.92	2.59281E-002	-9.91187E-005	0.00000E+000	-2.56996E-006	-5.99601E-002	2.59178E-002	3.57690E+000	9	...........
	69	0.933333	1.47256E-002	-9.95875E-005	0.00000E+000	-1.46649E-006	-5.99601E-002	1.47094E-002	3.57690E+000	9	...........
	70	0.946667	3.67067E-003	-9.85321E-005	0.00000E+000	-3.61679E-007	-5.99601E-002	3.64999E-003	3.57690E+000	9	...........
STARTTIMEOFFSET	QUANT	437.4935	Start Time Offset (s)
