EXPLAIN
TAG	PWR800_DISCHARGE
TITLE	LABEL	PWR Cyclic Charge Discharge (Cell) - Discharge Step	Test &Identifier
DATE	LABEL	12-7-2017	Date
TIME	LABEL	16:51:43	Time
NOTES	NOTES	2	&Notes...
	supercap test cell
	6M KOH
PSTAT	PSTAT	IFC5000-01520	Potentiostat
CAPACITY	QUANT	1.00000E-003	Capacity (A-hr)
CELLTYPE	SELECTOR	1	&Cell Type
WORKINGCONNECTION	SELECTOR	0	&Working Lead
MAXDISCHARGETIME	VARIABLEANDUNITS	1.00000E+002	s	1.00000E+002	second(s)	Max &Discharge Time
DISCHARGEMODE	MULTIPARAM	0	1.00000E-004	&Discharge Mode	Constant Current	Amp(s)
SAMPLETIME	QUANT	1.00000E-002	Sa&mple Period (s)
DISCHARGESTOPAT1	MULTIPARAM	3	0.00000E+000	Discharge Stop At &1	Voltage < Limit	V
DISCHARGESTOPAT2	MULTIPARAM	0	0.00000E+000	Discharge Stop At &2	None	N/A
AESBHCSELECTOR	TOGGLE	F	Save Both Half Cells
IRCOMP	TOGGLE	F	IR &Measure
EOC	QUANT	0	Open Circuit (V)
SEQUENCER	TOGGLE	TRUE	Run as Sequence
PSTATMODEL	IQUANT	53	Pstat Model
PSTATSECTION	LABEL	IFC5000-01520	Pstat Section
PSTATSERIALNO	LABEL	01520	Pstat Serial Number
CTRLMODE	IQUANT	0	Control Mode
ELECTROMETER	IQUANT	1	RE=0 or CS=1
IESTAB	IQUANT	0	I/E Stability
CASPEED	IQUANT	4	Control Amp Speed
CONVENTION	IQUANT	1	Current Convention
ICHRANGE	IQUANT	2	Ich Range
ICHRANGEMODE	TOGGLE	T	Ich Auto Range
ICHOFFSETENABLE	TOGGLE	F	Ich Offset Enable
ICHOFFSET	QUANT	0	Ich Offset (V)
ICHFILTER	IQUANT	1	Ich Filter
VCHRANGE	IQUANT	2	Vch Range
VCHRANGEMODE	TOGGLE	T	Vch Auto Range
VCHOFFSETENABLE	TOGGLE	F	Vch Offset Enable
VCHOFFSET	QUANT	0	Vch Offset (V)
VCHFILTER	IQUANT	1	Vch Filter
IERANGELOWERLIMIT	IQUANT	9	I/E Range Lower Limit
IERANGEMODE	TOGGLE	F	I/E AutoRange
IERANGE	IQUANT	9	I/E Range
ACHSELECT	IQUANT	1	Ach Select
ACHRANGE	IQUANT	2	Ach Range
ACHOFFSETENABLE	TOGGLE	F	Ach Offset Enable
ACHOFFSET	QUANT	0	Ach Offset (V)
ACHFILTER	IQUANT	1	Ach Filter
CABLEID	IQUANT	14	Cable ID
DCCALDATE	LABEL	5-7-2017	DC Calibration Date
ACCALDATE	LABEL	12/3/2015	AC Calibration Date
FRAMEWORKVERSION	QUANT	7.01	Framework Version
INSTRUMENTVERSION	LABEL	4.00	Instrument Version
CURVE	TABLE	70
	Pt	T	Vf	Im	Vu	Pwr	Sig	Ach	Temp	IERange	Over
	#	s	V	A	V	W	V	V	deg C	#	bits
	0	0.013333	8.45209E-001	-9.87978E-005	0.00000E+000	-8.35048E-005	-5.99601E-002	8.45491E-001	3.57710E+000	9	...........
	1	0.026667	8.31993E-001	-9.94386E-005	0.00000E+000	-8.27322E-005	-5.99601E-002	8.32253E-001	3.57710E+000	9	...........
	2	0.04	8.19360E-001	-9.93125E-005	0.00000E+000	-8.13727E-005	-5.99601E-002	8.19602E-001	3.57710E+000	9	...........
	3	0.053333	8.07098E-001	-9.90197E-005	0.00000E+000	-7.99187E-005	-5.99601E-002	8.07300E-001	3.57710E+000	9	...........
	4	0.066667	7.95084E-001	-9.74173E-005	0.00000E+000	-7.74549E-005	-5.99601E-002	7.95308E-001	3.57710E+000	9	...........
	5	0.08	7.83291E-001	-9.82560E-005	0.00000E+000	-7.69630E-005	-5.99601E-002	7.83522E-001	3.57710E+000	9	...........
	6	0.093333	7.71637E-001	-9.77913E-005	0.00000E+000	-7.54594E-005	-5.99601E-002	7.71869E-001	3.57710E+000	9	...........
	7	0.106667	7.60079E-001	-9.96042E-005	0.00000E+000	-7.57070E-005	-5.99601E-002	7.60331E-001	3.57710E+000	9	...........
	8	0.12	7.48663E-001	-9.88551E-005	0.00000E+000	-7.40092E-005	-5.99601E-002	7.48926E-001	3.57710E+000	9	...........
	9	0.133333	7.37311E-001	-9.81831E-005	0.00000E+000	-7.23915E-005	-5.99601E-002	7.37564E-001	3.57710E+000	9	...........
	10	0.146667	7.26109E-001	-9.88770E-005	0.00000E+000	-7.17954E-005	-5.99601E-002	7.26313E-001	3.57710E+000	9	...........
	11	0.16	7.14926E-001	-9.81602E-005	0.00000E+000	-7.01772E-005	-5.99601E-002	7.15165E-001	3.57710E+000	9	...........
	12	0.173333	7.03863E-001	-9.88822E-005	0.00000E+000	-6.95995E-005	-5.99601E-002	7.04058E-001	3.57710E+000	9	...........
	13	0.186667	6.92854E-001	-9.81039E-005	0.00000E+000	-6.79717E-005	-5.99601E-002	6.93072E-001	3.57710E+000	9	...........
	14	0.2	6.81931E-001	-9.93385E-005	0.00000E+000	-6.77420E-005	-5.99601E-002	6.82178E-001	3.57710E+000	9	...........
	15	0.213333	6.71098E-001	-9.88968E-005	0.00000E+000	-6.63695E-005	-5.99601E-002	6.71313E-001	3.57710E+000	9	...........
	16	0.226667	6.60278E-001	-9.80654E-005	0.00000E+000	-6.47504E-005	-5.99601E-002	6.60509E-001	3.57710E+000	9	...........
	17	0.24	6.49511E-001	-9.95709E-005	0.00000E+000	-6.46724E-005	-5.99601E-002	6.49729E-001	3.57710E+000	9	...........
	18	0.253333	6.38719E-001	-9.79164E-005	0.00000E+000	-6.25410E-005	-5.99601E-002	6.38953E-001	3.57710E+000	9	...........
	19	0.266667	6.27837E-001	-9.98376E-005	0.00000E+000	-6.26818E-005	-5.99601E-002	6.28078E-001	3.57710E+000	9	...........
	20	0.28	6.16844E-001	-9.89739E-005	0.00000E+000	-6.10515E-005	-5.99601E-002	6.17069E-001	3.57710E+000	9	...........
	21	0.293333	6.05649E-001	-9.88447E-005	0.00000E+000	-5.98652E-005	-5.99601E-002	6.05895E-001	3.57710E+000	9	...........
	22	0.306667	5.94296E-001	-9.91083E-005	0.00000E+000	-5.88997E-005	-5.99601E-002	5.94546E-001	3.57710E+000	9	...........
	23	0.32	5.82711E-001	-9.94000E-005	0.00000E+000	-5.79214E-005	-5.99601E-002	5.82953E-001	3.57710E+000	9	...........
	24	0.333333	5.70949E-001	-9.85446E-005	0.00000E+000	-5.62639E-005	-5.99601E-002	5.71167E-001	3.57710E+000	9	...........
	25	0.346667	5.58910E-001	-9.87103E-005	0.00000E+000	-5.51702E-005	-5.99601E-002	5.59144E-001	3.57710E+000	9	...........
	26	0.36	5.46726E-001	-9.99720E-005	0.00000E+000	-5.46573E-005	-5.99601E-002	5.46927E-001	3.57710E+000	9	...........
	27	0.373333	5.34318E-001	-9.76830E-005	0.00000E+000	-5.21937E-005	-5.99601E-002	5.34549E-001	3.57710E+000	9	...........
	28	0.386667	5.21765E-001	-9.79310E-005	0.00000E+000	-5.10970E-005	-5.99601E-002	5.21986E-001	3.57710E+000	9	...........
	29	0.4	5.09026E-001	-9.81904E-005	0.00000E+000	-4.99814E-005	-5.99601E-002	5.09260E-001	3.57710E+000	9	...........
	30	0.413333	4.96166E-001	-9.81498E-005	0.00000E+000	-4.86986E-005	-5.99601E-002	4.96403E-001	3.57710E+000	9	...........
	31	0.426667	4.83343E-001	-9.80414E-005	0.00000E+000	-4.73877E-005	-5.99601E-002	4.83517E-001	3.57710E+000	9	...........
	32	0.44	4.70404E-001	-9.90781E-005	0.00000E+000	-4.66067E-005	-5.99601E-002	4.70508E-001	3.57710E+000	9	...........
	33	0.453333	4.57220E-001	-9.85405E-005	0.00000E+000	-4.50547E-005	-5.99601E-002	4.57319E-001	3.57710E+000	9	...........
	34	0.466667	4.43951E-001	-9.88186E-005	0.00000E+000	-4.38706E-005	-5.99601E-002	4.44046E-001	3.57710E+000	9	...........
	35	0.48	4.30615E-001	-9.88145E-005	0.00000E+000	-4.25510E-005	-5.99601E-002	4.30703E-001	3.57710E+000	9	...........
	36	0.493333	4.17231E-001	-9.84936E-005	0.00000E+000	-4.10945E-005	-5.99601E-002	4.17316E-001	3.57710E+000	9	...........
	37	0.506667	4.03812E-001	-9.90343E-005	0.00000E+000	-3.99913E-005	-5.99601E-002	4.03892E-001	3.57710E+000	9	...........
	38	0.52	3.90362E-001	-9.90697E-005	0.00000E+000	-3.86731E-005	-5.99601E-002	3.90441E-001	3.57710E+000	9	...........
	39	0.533333	3.76894E-001	-9.85248E-005	0.00000E+000	-3.71334E-005	-5.99601E-002	3.76970E-001	3.57710E+000	9	...........
	40	0.546667	3.63426E-001	-9.94334E-005	0.00000E+000	-3.61367E-005	-5.99601E-002	3.63506E-001	3.57710E+000	9	...........
	41	0.56	3.49966E-001	-9.88593E-005	0.00000E+000	-3.45974E-005	-5.99601E-002	3.50035E-001	3.57710E+000	9	...........
	42	0.573333	3.36531E-001	-9.77247E-005	0.00000E+000	-3.28874E-005	-5.99601E-002	3.36591E-001	3.57710E+000	9	...........
	43	0.586667	3.23126E-001	-9.85748E-005	0.00000E+000	-3.18521E-005	-5.99601E-002	3.23193E-001	3.57710E+000	9	...........
	44	0.6	3.09761E-001	-9.83050E-005	0.00000E+000	-3.04511E-005	-5.99601E-002	3.09827E-001	3.57710E+000	9	...........
	45	0.613333	2.96445E-001	-9.72454E-005	0.00000E+000	-2.88279E-005	-5.99601E-002	2.96506E-001	3.57710E+000	9	...........
	46	0.626667	2.83175E-001	-9.86478E-005	0.00000E+000	-2.79346E-005	-5.99601E-002	2.83234E-001	3.57710E+000	9	...........
	47	0.64	2.69964E-001	-9.99845E-005	0.00000E+000	-2.69922E-005	-5.99601E-002	2.70015E-001	3.57710E+000	9	...........
	48	0.653333	2.56812E-001	-9.86030E-005	0.00000E+000	-2.53224E-005	-5.99601E-002	2.56872E-001	3.57710E+000	9	...........
	49	0.666667	2.43743E-001	-9.92052E-005	0.00000E+000	-2.41805E-005	-5.99601E-002	2.43782E-001	3.57710E+000	9	...........
	50	0.68	2.30735E-001	-9.91531E-005	0.00000E+000	-2.28781E-005	-5.99601E-002	2.30779E-001	3.57710E+000	9	...........
	51	0.693333	2.17805E-001	-9.85165E-005	0.00000E+000	-2.14573E-005	-5.99601E-002	2.17847E-001	3.57710E+000	9	...........
	52	0.706667	2.04947E-001	-9.90749E-005	0.00000E+000	-2.03051E-005	-5.99601E-002	2.04984E-001	3.57710E+000	9	...........
	53	0.72	1.92165E-001	-9.88468E-005	0.00000E+000	-1.89949E-005	-5.99601E-002	1.92205E-001	3.57710E+000	9	...........
	54	0.733333	1.79470E-001	-9.83060E-005	0.00000E+000	-1.76430E-005	-5.99601E-002	1.79501E-001	3.57710E+000	9	...........
	55	0.746667	1.66849E-001	-9.85457E-005	0.00000E+000	-1.64422E-005	-5.99601E-002	1.66882E-001	3.57710E+000	9	...........
	56	0.76	1.54301E-001	-9.80612E-005	0.00000E+000	-1.51309E-005	-5.99601E-002	1.54329E-001	3.57710E+000	9	...........
	57	0.773333	1.41831E-001	-9.78497E-005	0.00000E+000	-1.38781E-005	-5.99601E-002	1.41856E-001	3.57710E+000	9	...........
	58	0.786667	1.29442E-001	-9.88801E-005	0.00000E+000	-1.27992E-005	-5.99601E-002	1.29465E-001	3.57710E+000	9	...........
	59	0.8	1.17137E-001	-9.80914E-005	0.00000E+000	-1.14901E-005	-5.99601E-002	1.17154E-001	3.57710E+000	9	...........
	60	0.813333	1.04918E-001	-9.88905E-005	0.00000E+000	-1.03754E-005	-5.99601E-002	1.04933E-001	3.57710E+000	9	...........
	61	0.826667	9.27911E-002	-9.79935E-005	0.00000E+000	-9.09292E-006	-5.99601E-002	9.28073E-002	3.57710E+000	9	...........
	62	0.84	8.07741E-002	-9.87624E-005	0.00000E+000	-7.97745E-006	-5.99601E-002	8.07919E-002	3.57710E+000	9	...........
	63	0.853333	6.88812E-002	-9.91937E-005	0.00000E+000	-6.83259E-006	-5.99601E-002	6.88917E-002	3.57710E+000	9	...........
	64	0.866667	5.71147E-002	-9.93729E-005	0.00000E+000	-5.67565E-006	-5.99601E-002	5.71213E-002	3.57710E+000	9	...........
	65	0.88	4.54989E-002	-9.86321E-005	0.00000E+000	-4.48766E-006	-5.99601E-002	4.55016E-002	3.57718E+000	9	...........
	66	0.893333	3.40309E-002	-9.77934E-005	0.00000E+000	-3.32800E-006	-5.99601E-002	3.40305E-002	3.57770E+000	9	...........
	67	0.906667	2.27092E-002	-9.94459E-005	0.00000E+000	-2.25833E-006	-5.99601E-002	2.27008E-002	3.57770E+000	9	...........
	68	0.92	1.15430E-002	-9.98480E-005	0.00000E+000	-1.15254E-006	-5.99601E-002	1.15296E-002	3.57770E+000	9	...........
	69	0.928333	2.60512E-003	-9.77051E-005	0.00000E+000	-2.54533E-007	-5.99601E-002	2.58906E-003	3.57770E+000	9	...........
STARTTIMEOFFSET	QUANT	1776.26	Start Time Offset (s)
