EXPLAIN
TAG	PWR800_DISCHARGE
TITLE	LABEL	PWR Cyclic Charge Discharge (Cell) - Discharge Step	Test &Identifier
DATE	LABEL	12-7-2017	Date
TIME	LABEL	16:12:19	Time
NOTES	NOTES	2	&Notes...
	supercap test cell
	6M KOH
PSTAT	PSTAT	IFC5000-01520	Potentiostat
CAPACITY	QUANT	1.00000E-003	Capacity (A-hr)
CELLTYPE	SELECTOR	1	&Cell Type
WORKINGCONNECTION	SELECTOR	0	&Working Lead
MAXDISCHARGETIME	VARIABLEANDUNITS	1.00000E+002	s	1.00000E+002	second(s)	Max &Discharge Time
DISCHARGEMODE	MULTIPARAM	0	1.00000E-004	&Discharge Mode	Constant Current	Amp(s)
SAMPLETIME	QUANT	1.00000E-002	Sa&mple Period (s)
DISCHARGESTOPAT1	MULTIPARAM	3	0.00000E+000	Discharge Stop At &1	Voltage < Limit	V
DISCHARGESTOPAT2	MULTIPARAM	0	0.00000E+000	Discharge Stop At &2	None	N/A
AESBHCSELECTOR	TOGGLE	F	Save Both Half Cells
IRCOMP	TOGGLE	F	IR &Measure
EOC	QUANT	0	Open Circuit (V)
SEQUENCER	TOGGLE	TRUE	Run as Sequence
PSTATMODEL	IQUANT	53	Pstat Model
PSTATSECTION	LABEL	IFC5000-01520	Pstat Section
PSTATSERIALNO	LABEL	01520	Pstat Serial Number
CTRLMODE	IQUANT	0	Control Mode
ELECTROMETER	IQUANT	1	RE=0 or CS=1
IESTAB	IQUANT	0	I/E Stability
CASPEED	IQUANT	4	Control Amp Speed
CONVENTION	IQUANT	1	Current Convention
ICHRANGE	IQUANT	2	Ich Range
ICHRANGEMODE	TOGGLE	T	Ich Auto Range
ICHOFFSETENABLE	TOGGLE	F	Ich Offset Enable
ICHOFFSET	QUANT	0	Ich Offset (V)
ICHFILTER	IQUANT	1	Ich Filter
VCHRANGE	IQUANT	2	Vch Range
VCHRANGEMODE	TOGGLE	T	Vch Auto Range
VCHOFFSETENABLE	TOGGLE	F	Vch Offset Enable
VCHOFFSET	QUANT	0	Vch Offset (V)
VCHFILTER	IQUANT	1	Vch Filter
IERANGELOWERLIMIT	IQUANT	9	I/E Range Lower Limit
IERANGEMODE	TOGGLE	F	I/E AutoRange
IERANGE	IQUANT	9	I/E Range
ACHSELECT	IQUANT	1	Ach Select
ACHRANGE	IQUANT	2	Ach Range
ACHOFFSETENABLE	TOGGLE	F	Ach Offset Enable
ACHOFFSET	QUANT	0	Ach Offset (V)
ACHFILTER	IQUANT	1	Ach Filter
CABLEID	IQUANT	14	Cable ID
DCCALDATE	LABEL	5-7-2017	DC Calibration Date
ACCALDATE	LABEL	12/3/2015	AC Calibration Date
FRAMEWORKVERSION	QUANT	7.01	Framework Version
INSTRUMENTVERSION	LABEL	4.00	Instrument Version
CURVE	TABLE	73
	Pt	T	Vf	Im	Vu	Pwr	Sig	Ach	Temp	IERange	Over
	#	s	V	A	V	W	V	V	deg C	#	bits
	0	0.013333	8.40219E-001	-9.88311E-005	0.00000E+000	-8.30398E-005	-5.99601E-002	8.40514E-001	3.57840E+000	9	...........
	1	0.026667	8.27053E-001	-9.82029E-005	0.00000E+000	-8.12190E-005	-5.99601E-002	8.27343E-001	3.57840E+000	9	...........
	2	0.04	8.14451E-001	-9.87811E-005	0.00000E+000	-8.04524E-005	-5.99601E-002	8.14742E-001	3.57840E+000	9	...........
	3	0.053333	8.02235E-001	-9.89155E-005	0.00000E+000	-7.93535E-005	-5.99601E-002	8.02513E-001	3.57840E+000	9	...........
	4	0.066667	7.90246E-001	-9.85946E-005	0.00000E+000	-7.79140E-005	-5.99601E-002	7.90535E-001	3.57840E+000	9	...........
	5	0.08	7.78394E-001	-9.91645E-005	0.00000E+000	-7.71891E-005	-5.99601E-002	7.78697E-001	3.57840E+000	9	...........
	6	0.093333	7.66674E-001	-9.83498E-005	0.00000E+000	-7.54022E-005	-5.99601E-002	7.66941E-001	3.57840E+000	9	...........
	7	0.106667	7.54989E-001	-9.87457E-005	0.00000E+000	-7.45519E-005	-5.99601E-002	7.55290E-001	3.57840E+000	9	...........
	8	0.12	7.43312E-001	-9.86863E-005	0.00000E+000	-7.33548E-005	-5.99601E-002	7.43606E-001	3.57840E+000	9	...........
	9	0.133333	7.31636E-001	-9.95928E-005	0.00000E+000	-7.28656E-005	-5.99601E-002	7.31911E-001	3.57840E+000	9	...........
	10	0.146667	7.19900E-001	-9.91656E-005	0.00000E+000	-7.13893E-005	-5.99601E-002	7.20179E-001	3.57840E+000	9	...........
	11	0.16	7.08102E-001	-9.94146E-005	0.00000E+000	-7.03957E-005	-5.99601E-002	7.08390E-001	3.57840E+000	9	...........
	12	0.173333	6.96299E-001	-9.93281E-005	0.00000E+000	-6.91621E-005	-5.99601E-002	6.96572E-001	3.57840E+000	9	...........
	13	0.186667	6.84447E-001	-9.84634E-005	0.00000E+000	-6.73929E-005	-5.99601E-002	6.84707E-001	3.57840E+000	9	...........
	14	0.2	6.72572E-001	-9.80112E-005	0.00000E+000	-6.59196E-005	-5.99601E-002	6.72822E-001	3.57840E+000	9	...........
	15	0.213333	6.60642E-001	-9.93375E-005	0.00000E+000	-6.56265E-005	-5.99601E-002	6.60923E-001	3.57840E+000	9	...........
	16	0.226667	6.48721E-001	-9.91145E-005	0.00000E+000	-6.42977E-005	-5.99601E-002	6.48962E-001	3.57840E+000	9	...........
	17	0.24	6.36753E-001	-9.88041E-005	0.00000E+000	-6.29138E-005	-5.99601E-002	6.37003E-001	3.57840E+000	9	...........
	18	0.253333	6.24812E-001	-9.86686E-005	0.00000E+000	-6.16494E-005	-5.99601E-002	6.25026E-001	3.57840E+000	9	...........
	19	0.266667	6.12818E-001	-9.92979E-005	0.00000E+000	-6.08515E-005	-5.99601E-002	6.13060E-001	3.57840E+000	9	...........
	20	0.28	6.00862E-001	-9.87572E-005	0.00000E+000	-5.93395E-005	-5.99601E-002	6.01087E-001	3.57840E+000	9	...........
	21	0.293333	5.88930E-001	-9.85217E-005	0.00000E+000	-5.80224E-005	-5.99601E-002	5.89143E-001	3.57840E+000	9	...........
	22	0.306667	5.77007E-001	-9.91072E-005	0.00000E+000	-5.71856E-005	-5.99601E-002	5.77236E-001	3.57840E+000	9	...........
	23	0.32	5.65132E-001	-9.85821E-005	0.00000E+000	-5.57119E-005	-5.99601E-002	5.65337E-001	3.57840E+000	9	...........
	24	0.333333	5.53227E-001	-9.93500E-005	0.00000E+000	-5.49631E-005	-5.99601E-002	5.53454E-001	3.57840E+000	9	...........
	25	0.346667	5.41437E-001	-9.89364E-005	0.00000E+000	-5.35678E-005	-5.99601E-002	5.41627E-001	3.57840E+000	9	...........
	26	0.36	5.29620E-001	-9.89520E-005	0.00000E+000	-5.24069E-005	-5.99601E-002	5.29820E-001	3.57840E+000	9	...........
	27	0.373333	5.17869E-001	-9.77215E-005	0.00000E+000	-5.06070E-005	-5.99601E-002	5.18061E-001	3.57840E+000	9	...........
	28	0.386667	5.06102E-001	-9.81393E-005	0.00000E+000	-4.96685E-005	-5.99601E-002	5.06335E-001	3.57840E+000	9	...........
	29	0.4	4.94449E-001	-9.90072E-005	0.00000E+000	-4.89540E-005	-5.99601E-002	4.94670E-001	3.57840E+000	9	...........
	30	0.413333	4.83014E-001	-9.88301E-005	0.00000E+000	-4.77363E-005	-5.99601E-002	4.83136E-001	3.57840E+000	9	...........
	31	0.426667	4.71534E-001	-9.91489E-005	0.00000E+000	-4.67521E-005	-5.99601E-002	4.71632E-001	3.57840E+000	9	...........
	32	0.44	4.59965E-001	-9.96553E-005	0.00000E+000	-4.58379E-005	-5.99601E-002	4.60065E-001	3.57840E+000	9	...........
	33	0.453333	4.48435E-001	-9.84331E-005	0.00000E+000	-4.41409E-005	-5.99601E-002	4.48530E-001	3.57840E+000	9	...........
	34	0.466667	4.36937E-001	-9.82519E-005	0.00000E+000	-4.29299E-005	-5.99601E-002	4.37024E-001	3.57840E+000	9	...........
	35	0.48	4.25463E-001	-9.85009E-005	0.00000E+000	-4.19085E-005	-5.99601E-002	4.25551E-001	3.57840E+000	9	...........
	36	0.493333	4.14010E-001	-9.92437E-005	0.00000E+000	-4.10879E-005	-5.99601E-002	4.14092E-001	3.57840E+000	9	...........
	37	0.506667	4.02572E-001	-9.92739E-005	0.00000E+000	-3.99649E-005	-5.99601E-002	4.02652E-001	3.57840E+000	9	...........
	38	0.52	3.91148E-001	-9.88447E-005	0.00000E+000	-3.86629E-005	-5.99601E-002	3.91221E-001	3.57840E+000	9	...........
	39	0.533333	3.79717E-001	-9.86123E-005	0.00000E+000	-3.74448E-005	-5.99601E-002	3.79794E-001	3.57840E+000	9	...........
	40	0.546667	3.68292E-001	-9.91104E-005	0.00000E+000	-3.65016E-005	-5.99601E-002	3.68363E-001	3.57840E+000	9	...........
	41	0.56	3.56864E-001	-9.95803E-005	0.00000E+000	-3.55366E-005	-5.99601E-002	3.56933E-001	3.57840E+000	9	...........
	42	0.573333	3.45419E-001	-9.82769E-005	0.00000E+000	-3.39467E-005	-5.99601E-002	3.45489E-001	3.57840E+000	9	...........
	43	0.586667	3.33957E-001	-9.88697E-005	0.00000E+000	-3.30183E-005	-5.99601E-002	3.34020E-001	3.57840E+000	9	...........
	44	0.6	3.22483E-001	-9.73131E-005	0.00000E+000	-3.13818E-005	-5.99601E-002	3.22546E-001	3.57840E+000	9	...........
	45	0.613333	3.10978E-001	-9.86936E-005	0.00000E+000	-3.06915E-005	-5.99601E-002	3.11036E-001	3.57840E+000	9	...........
	46	0.626667	2.99451E-001	-9.92833E-005	0.00000E+000	-2.97305E-005	-5.99601E-002	2.99515E-001	3.57835E+000	9	...........
	47	0.64	2.87910E-001	-9.84998E-005	0.00000E+000	-2.83591E-005	-5.99601E-002	2.87967E-001	3.57820E+000	9	...........
	48	0.653333	2.76346E-001	-9.85134E-005	0.00000E+000	-2.72238E-005	-5.99601E-002	2.76408E-001	3.57820E+000	9	...........
	49	0.666667	2.64767E-001	-9.91239E-005	0.00000E+000	-2.62447E-005	-5.99601E-002	2.64818E-001	3.57820E+000	9	...........
	50	0.68	2.53161E-001	-9.97199E-005	0.00000E+000	-2.52452E-005	-5.99601E-002	2.53221E-001	3.57820E+000	9	...........
	51	0.693333	2.41552E-001	-9.90385E-005	0.00000E+000	-2.39230E-005	-5.99601E-002	2.41603E-001	3.57820E+000	9	...........
	52	0.706667	2.29927E-001	-9.80924E-005	0.00000E+000	-2.25541E-005	-5.99601E-002	2.29963E-001	3.57820E+000	9	...........
	53	0.72	2.18288E-001	-9.80997E-005	0.00000E+000	-2.14140E-005	-5.99601E-002	2.18330E-001	3.57820E+000	9	...........
	54	0.733333	2.06640E-001	-9.92844E-005	0.00000E+000	-2.05162E-005	-5.99601E-002	2.06678E-001	3.57820E+000	9	...........
	55	0.746667	1.94990E-001	-9.84581E-005	0.00000E+000	-1.91984E-005	-5.99601E-002	1.95020E-001	3.57820E+000	9	...........
	56	0.76	1.83328E-001	-9.87176E-005	0.00000E+000	-1.80977E-005	-5.99601E-002	1.83358E-001	3.57820E+000	9	...........
	57	0.773333	1.71669E-001	-9.92083E-005	0.00000E+000	-1.70310E-005	-5.99601E-002	1.71705E-001	3.57820E+000	9	...........
	58	0.786667	1.60033E-001	-9.85050E-005	0.00000E+000	-1.57640E-005	-5.99601E-002	1.60057E-001	3.57820E+000	9	...........
	59	0.8	1.48405E-001	-9.86228E-005	0.00000E+000	-1.46361E-005	-5.99601E-002	1.48430E-001	3.57820E+000	9	...........
	60	0.813333	1.36799E-001	-9.85102E-005	0.00000E+000	-1.34761E-005	-5.99601E-002	1.36823E-001	3.57820E+000	9	...........
	61	0.826667	1.25231E-001	-9.87770E-005	0.00000E+000	-1.23700E-005	-5.99601E-002	1.25259E-001	3.57820E+000	9	...........
	62	0.84	1.13707E-001	-9.82935E-005	0.00000E+000	-1.11766E-005	-5.99601E-002	1.13727E-001	3.57820E+000	9	...........
	63	0.853333	1.02233E-001	-9.83019E-005	0.00000E+000	-1.00497E-005	-5.99601E-002	1.02254E-001	3.57820E+000	9	...........
	64	0.866667	9.08252E-002	-9.91416E-005	0.00000E+000	-9.00455E-006	-5.99601E-002	9.08369E-002	3.57820E+000	9	...........
	65	0.88	7.94899E-002	-9.90249E-005	0.00000E+000	-7.87148E-006	-5.99601E-002	7.95010E-002	3.57820E+000	9	...........
	66	0.893333	6.82379E-002	-9.89374E-005	0.00000E+000	-6.75129E-006	-5.99601E-002	6.82432E-002	3.57820E+000	9	...........
	67	0.906667	5.70899E-002	-9.87686E-005	0.00000E+000	-5.63869E-006	-5.99601E-002	5.70934E-002	3.57820E+000	9	...........
	68	0.92	4.60755E-002	-9.86217E-005	0.00000E+000	-4.54404E-006	-5.99601E-002	4.60729E-002	3.57820E+000	9	...........
	69	0.933333	3.51590E-002	-9.86884E-005	0.00000E+000	-3.46978E-006	-5.99601E-002	3.51567E-002	3.57820E+000	9	...........
	70	0.946667	2.43684E-002	-9.88176E-005	0.00000E+000	-2.40803E-006	-5.99601E-002	2.43619E-002	3.57820E+000	9	...........
	71	0.96	1.37155E-002	-9.88353E-005	0.00000E+000	-1.35558E-006	-5.99601E-002	1.36986E-002	3.57820E+000	9	...........
	72	0.97167	3.86082E-003	-9.94342E-005	0.00000E+000	-3.83898E-007	-5.99601E-002	3.83860E-003	3.57820E+000	9	...........
STARTTIMEOFFSET	QUANT	95.2333	Start Time Offset (s)
