EXPLAIN
TAG	PWR800_DISCHARGE
TITLE	LABEL	PWR Cyclic Charge Discharge (Cell) - Discharge Step	Test &Identifier
DATE	LABEL	12-7-2017	Date
TIME	LABEL	16:16:25	Time
NOTES	NOTES	2	&Notes...
	supercap test cell
	6M KOH
PSTAT	PSTAT	IFC5000-01520	Potentiostat
CAPACITY	QUANT	1.00000E-003	Capacity (A-hr)
CELLTYPE	SELECTOR	1	&Cell Type
WORKINGCONNECTION	SELECTOR	0	&Working Lead
MAXDISCHARGETIME	VARIABLEANDUNITS	1.00000E+002	s	1.00000E+002	second(s)	Max &Discharge Time
DISCHARGEMODE	MULTIPARAM	0	1.00000E-004	&Discharge Mode	Constant Current	Amp(s)
SAMPLETIME	QUANT	1.00000E-002	Sa&mple Period (s)
DISCHARGESTOPAT1	MULTIPARAM	3	0.00000E+000	Discharge Stop At &1	Voltage < Limit	V
DISCHARGESTOPAT2	MULTIPARAM	0	0.00000E+000	Discharge Stop At &2	None	N/A
AESBHCSELECTOR	TOGGLE	F	Save Both Half Cells
IRCOMP	TOGGLE	F	IR &Measure
EOC	QUANT	0	Open Circuit (V)
SEQUENCER	TOGGLE	TRUE	Run as Sequence
PSTATMODEL	IQUANT	53	Pstat Model
PSTATSECTION	LABEL	IFC5000-01520	Pstat Section
PSTATSERIALNO	LABEL	01520	Pstat Serial Number
CTRLMODE	IQUANT	0	Control Mode
ELECTROMETER	IQUANT	1	RE=0 or CS=1
IESTAB	IQUANT	0	I/E Stability
CASPEED	IQUANT	4	Control Amp Speed
CONVENTION	IQUANT	1	Current Convention
ICHRANGE	IQUANT	2	Ich Range
ICHRANGEMODE	TOGGLE	T	Ich Auto Range
ICHOFFSETENABLE	TOGGLE	F	Ich Offset Enable
ICHOFFSET	QUANT	0	Ich Offset (V)
ICHFILTER	IQUANT	1	Ich Filter
VCHRANGE	IQUANT	2	Vch Range
VCHRANGEMODE	TOGGLE	T	Vch Auto Range
VCHOFFSETENABLE	TOGGLE	F	Vch Offset Enable
VCHOFFSET	QUANT	0	Vch Offset (V)
VCHFILTER	IQUANT	1	Vch Filter
IERANGELOWERLIMIT	IQUANT	9	I/E Range Lower Limit
IERANGEMODE	TOGGLE	F	I/E AutoRange
IERANGE	IQUANT	9	I/E Range
ACHSELECT	IQUANT	1	Ach Select
ACHRANGE	IQUANT	2	Ach Range
ACHOFFSETENABLE	TOGGLE	F	Ach Offset Enable
ACHOFFSET	QUANT	0	Ach Offset (V)
ACHFILTER	IQUANT	1	Ach Filter
CABLEID	IQUANT	14	Cable ID
DCCALDATE	LABEL	5-7-2017	DC Calibration Date
ACCALDATE	LABEL	12/3/2015	AC Calibration Date
FRAMEWORKVERSION	QUANT	7.01	Framework Version
INSTRUMENTVERSION	LABEL	4.00	Instrument Version
CURVE	TABLE	72
	Pt	T	Vf	Im	Vu	Pwr	Sig	Ach	Temp	IERange	Over
	#	s	V	A	V	W	V	V	deg C	#	bits
	0	0.013333	8.41690E-001	-9.86165E-005	0.00000E+000	-8.30045E-005	-5.99601E-002	8.42008E-001	3.57720E+000	9	...........
	1	0.026667	8.28716E-001	-9.90906E-005	0.00000E+000	-8.21180E-005	-5.99601E-002	8.29043E-001	3.57720E+000	9	...........
	2	0.04	8.16362E-001	-9.86571E-005	0.00000E+000	-8.05399E-005	-5.99601E-002	8.16666E-001	3.57720E+000	9	...........
	3	0.053333	8.04394E-001	-9.87843E-005	0.00000E+000	-7.94614E-005	-5.99601E-002	8.04686E-001	3.57720E+000	9	...........
	4	0.066667	7.92693E-001	-9.88614E-005	0.00000E+000	-7.83667E-005	-5.99601E-002	7.92980E-001	3.57720E+000	9	...........
	5	0.08	7.81178E-001	-9.92896E-005	0.00000E+000	-7.75628E-005	-5.99601E-002	7.81469E-001	3.57720E+000	9	...........
	6	0.093333	7.69865E-001	-9.87113E-005	0.00000E+000	-7.59944E-005	-5.99601E-002	7.70139E-001	3.57720E+000	9	...........
	7	0.106667	7.58673E-001	-9.87884E-005	0.00000E+000	-7.49481E-005	-5.99601E-002	7.58944E-001	3.57720E+000	9	...........
	8	0.12	7.47586E-001	-9.84321E-005	0.00000E+000	-7.35865E-005	-5.99601E-002	7.47834E-001	3.57720E+000	9	...........
	9	0.133333	7.36532E-001	-9.83946E-005	0.00000E+000	-7.24708E-005	-5.99601E-002	7.36806E-001	3.57720E+000	9	...........
	10	0.146667	7.25557E-001	-9.85561E-005	0.00000E+000	-7.15081E-005	-5.99601E-002	7.25799E-001	3.57720E+000	9	...........
	11	0.16	7.14533E-001	-9.86613E-005	0.00000E+000	-7.04968E-005	-5.99601E-002	7.14811E-001	3.57720E+000	9	...........
	12	0.173333	7.03456E-001	-9.93094E-005	0.00000E+000	-6.98598E-005	-5.99601E-002	7.03717E-001	3.57720E+000	9	...........
	13	0.186667	6.92311E-001	-9.88447E-005	0.00000E+000	-6.84313E-005	-5.99601E-002	6.92564E-001	3.57720E+000	9	...........
	14	0.2	6.81051E-001	-9.90729E-005	0.00000E+000	-6.74736E-005	-5.99601E-002	6.81299E-001	3.57720E+000	9	...........
	15	0.213333	6.69643E-001	-9.86978E-005	0.00000E+000	-6.60922E-005	-5.99601E-002	6.69920E-001	3.57720E+000	9	...........
	16	0.226667	6.58142E-001	-9.82321E-005	0.00000E+000	-6.46507E-005	-5.99601E-002	6.58373E-001	3.57720E+000	9	...........
	17	0.24	6.46497E-001	-9.94209E-005	0.00000E+000	-6.42752E-005	-5.99601E-002	6.46728E-001	3.57720E+000	9	...........
	18	0.253333	6.34715E-001	-9.85269E-005	0.00000E+000	-6.25365E-005	-5.99601E-002	6.34956E-001	3.57720E+000	9	...........
	19	0.266667	6.22847E-001	-9.88113E-005	0.00000E+000	-6.15443E-005	-5.99601E-002	6.23101E-001	3.57720E+000	9	...........
	20	0.28	6.10851E-001	-9.78882E-005	0.00000E+000	-5.97951E-005	-5.99601E-002	6.11149E-001	3.57720E+000	9	...........
	21	0.293333	5.98824E-001	-9.82487E-005	0.00000E+000	-5.88337E-005	-5.99601E-002	5.99097E-001	3.57720E+000	9	...........
	22	0.306667	5.86736E-001	-9.88874E-005	0.00000E+000	-5.80208E-005	-5.99601E-002	5.86997E-001	3.57720E+000	9	...........
	23	0.32	5.74579E-001	-9.83581E-005	0.00000E+000	-5.65145E-005	-5.99601E-002	5.74811E-001	3.57720E+000	9	...........
	24	0.333333	5.62366E-001	-9.90354E-005	0.00000E+000	-5.56941E-005	-5.99601E-002	5.62613E-001	3.57720E+000	9	...........
	25	0.346667	5.50100E-001	-9.82112E-005	0.00000E+000	-5.40260E-005	-5.99601E-002	5.50346E-001	3.57720E+000	9	...........
	26	0.36	5.37818E-001	-9.86092E-005	0.00000E+000	-5.30338E-005	-5.99601E-002	5.38041E-001	3.57720E+000	9	...........
	27	0.373333	5.25509E-001	-9.93125E-005	0.00000E+000	-5.21897E-005	-5.99601E-002	5.25720E-001	3.57720E+000	9	...........
	28	0.386667	5.13167E-001	-9.84759E-005	0.00000E+000	-5.05346E-005	-5.99601E-002	5.13404E-001	3.57720E+000	9	...........
	29	0.4	5.00829E-001	-9.86196E-005	0.00000E+000	-4.93916E-005	-5.99601E-002	5.01071E-001	3.57720E+000	9	...........
	30	0.413333	4.88519E-001	-9.84259E-005	0.00000E+000	-4.80829E-005	-5.99601E-002	4.88749E-001	3.57720E+000	9	...........
	31	0.426667	4.76468E-001	-9.87999E-005	0.00000E+000	-4.70750E-005	-5.99601E-002	4.76573E-001	3.57720E+000	9	...........
	32	0.44	4.64134E-001	-9.94323E-005	0.00000E+000	-4.61499E-005	-5.99601E-002	4.64234E-001	3.57720E+000	9	...........
	33	0.453333	4.51803E-001	-9.90979E-005	0.00000E+000	-4.47727E-005	-5.99601E-002	4.51908E-001	3.57720E+000	9	...........
	34	0.466667	4.39492E-001	-9.90833E-005	0.00000E+000	-4.35463E-005	-5.99601E-002	4.39588E-001	3.57720E+000	9	...........
	35	0.48	4.27200E-001	-9.86186E-005	0.00000E+000	-4.21298E-005	-5.99601E-002	4.27297E-001	3.57720E+000	9	...........
	36	0.493333	4.14922E-001	-9.86509E-005	0.00000E+000	-4.09324E-005	-5.99601E-002	4.15008E-001	3.57720E+000	9	...........
	37	0.506667	4.02670E-001	-9.96136E-005	0.00000E+000	-4.01114E-005	-5.99601E-002	4.02751E-001	3.57720E+000	9	...........
	38	0.52	3.90437E-001	-9.88093E-005	0.00000E+000	-3.85788E-005	-5.99601E-002	3.90517E-001	3.57720E+000	9	...........
	39	0.533333	3.78225E-001	-9.91645E-005	0.00000E+000	-3.75065E-005	-5.99601E-002	3.78304E-001	3.57720E+000	9	...........
	40	0.546667	3.66032E-001	-9.89395E-005	0.00000E+000	-3.62150E-005	-5.99601E-002	3.66107E-001	3.57720E+000	9	...........
	41	0.56	3.53860E-001	-9.91698E-005	0.00000E+000	-3.50922E-005	-5.99601E-002	3.53931E-001	3.57720E+000	9	...........
	42	0.573333	3.41709E-001	-9.92625E-005	0.00000E+000	-3.39189E-005	-5.99601E-002	3.41780E-001	3.57720E+000	9	...........
	43	0.586667	3.29582E-001	-9.90291E-005	0.00000E+000	-3.26382E-005	-5.99601E-002	3.29646E-001	3.57720E+000	9	...........
	44	0.6	3.17465E-001	-9.83613E-005	0.00000E+000	-3.12262E-005	-5.99601E-002	3.17526E-001	3.57720E+000	9	...........
	45	0.613333	3.05351E-001	-9.82842E-005	0.00000E+000	-3.00112E-005	-5.99601E-002	3.05423E-001	3.57720E+000	9	...........
	46	0.626667	2.93248E-001	-9.80393E-005	0.00000E+000	-2.87499E-005	-5.99601E-002	2.93312E-001	3.57720E+000	9	...........
	47	0.64	2.81147E-001	-9.88989E-005	0.00000E+000	-2.78051E-005	-5.99601E-002	2.81209E-001	3.57720E+000	9	...........
	48	0.653333	2.69049E-001	-9.84352E-005	0.00000E+000	-2.64839E-005	-5.99601E-002	2.69108E-001	3.57720E+000	9	...........
	49	0.666667	2.56945E-001	-9.84769E-005	0.00000E+000	-2.53031E-005	-5.99601E-002	2.57000E-001	3.57720E+000	9	...........
	50	0.68	2.44843E-001	-9.82779E-005	0.00000E+000	-2.40627E-005	-5.99601E-002	2.44898E-001	3.57720E+000	9	...........
	51	0.693333	2.32742E-001	-9.97136E-005	0.00000E+000	-2.32075E-005	-5.99601E-002	2.32782E-001	3.57720E+000	9	...........
	52	0.706667	2.20640E-001	-9.87186E-005	0.00000E+000	-2.17812E-005	-5.99601E-002	2.20686E-001	3.57720E+000	9	...........
	53	0.72	2.08553E-001	-9.92708E-005	0.00000E+000	-2.07033E-005	-5.99601E-002	2.08596E-001	3.57720E+000	9	...........
	54	0.733333	1.96465E-001	-9.93250E-005	0.00000E+000	-1.95139E-005	-5.99601E-002	1.96506E-001	3.57720E+000	9	...........
	55	0.746667	1.84387E-001	-9.88238E-005	0.00000E+000	-1.82218E-005	-5.99601E-002	1.84431E-001	3.57720E+000	9	...........
	56	0.76	1.72327E-001	-9.93021E-005	0.00000E+000	-1.71124E-005	-5.99601E-002	1.72360E-001	3.57720E+000	9	...........
	57	0.773333	1.60281E-001	-9.95323E-005	0.00000E+000	-1.59532E-005	-5.99601E-002	1.60307E-001	3.57720E+000	9	...........
	58	0.786667	1.48258E-001	-9.89749E-005	0.00000E+000	-1.46738E-005	-5.99601E-002	1.48285E-001	3.57720E+000	9	...........
	59	0.8	1.36267E-001	-9.94782E-005	0.00000E+000	-1.35556E-005	-5.99601E-002	1.36290E-001	3.57720E+000	9	...........
	60	0.813333	1.24312E-001	-9.82633E-005	0.00000E+000	-1.22153E-005	-5.99601E-002	1.24330E-001	3.57720E+000	9	...........
	61	0.826667	1.12404E-001	-9.97459E-005	0.00000E+000	-1.12119E-005	-5.99601E-002	1.12418E-001	3.57720E+000	9	...........
	62	0.84	1.00549E-001	-9.86947E-005	0.00000E+000	-9.92361E-006	-5.99601E-002	1.00561E-001	3.57720E+000	9	...........
	63	0.853333	8.87518E-002	-9.84894E-005	0.00000E+000	-8.74111E-006	-5.99601E-002	8.87620E-002	3.57720E+000	9	...........
	64	0.866667	7.70296E-002	-9.88093E-005	0.00000E+000	-7.61124E-006	-5.99601E-002	7.70374E-002	3.57720E+000	9	...........
	65	0.88	6.53730E-002	-9.91104E-005	0.00000E+000	-6.47914E-006	-5.99601E-002	6.53803E-002	3.57720E+000	9	...........
	66	0.893333	5.38160E-002	-9.87509E-005	0.00000E+000	-5.31438E-006	-5.99601E-002	5.38185E-002	3.57720E+000	9	...........
	67	0.906667	4.23982E-002	-9.81904E-005	0.00000E+000	-4.16309E-006	-5.99601E-002	4.23951E-002	3.57720E+000	9	...........
	68	0.92	3.10609E-002	-9.86051E-005	0.00000E+000	-3.06276E-006	-5.99601E-002	3.10577E-002	3.57720E+000	9	...........
	69	0.933333	1.98523E-002	-9.89791E-005	0.00000E+000	-1.96497E-006	-5.99601E-002	1.98433E-002	3.57720E+000	9	...........
	70	0.946667	8.78407E-003	-9.91833E-005	0.00000E+000	-8.71233E-007	-5.99601E-002	8.76961E-003	3.57720E+000	9	...........
	71	0.95167	1.25655E-003	-9.87742E-005	0.00000E+000	-1.24115E-007	-5.99601E-002	1.23536E-003	3.57720E+000	9	...........
STARTTIMEOFFSET	QUANT	271.8433	Start Time Offset (s)
