EXPLAIN
TAG	PWR800_DISCHARGE
TITLE	LABEL	PWR Cyclic Charge Discharge (Cell) - Discharge Step	Test &Identifier
DATE	LABEL	12-7-2017	Date
TIME	LABEL	16:23:34	Time
NOTES	NOTES	2	&Notes...
	supercap test cell
	6M KOH
PSTAT	PSTAT	IFC5000-01520	Potentiostat
CAPACITY	QUANT	1.00000E-003	Capacity (A-hr)
CELLTYPE	SELECTOR	1	&Cell Type
WORKINGCONNECTION	SELECTOR	0	&Working Lead
MAXDISCHARGETIME	VARIABLEANDUNITS	1.00000E+002	s	1.00000E+002	second(s)	Max &Discharge Time
DISCHARGEMODE	MULTIPARAM	0	1.00000E-004	&Discharge Mode	Constant Current	Amp(s)
SAMPLETIME	QUANT	1.00000E-002	Sa&mple Period (s)
DISCHARGESTOPAT1	MULTIPARAM	3	0.00000E+000	Discharge Stop At &1	Voltage < Limit	V
DISCHARGESTOPAT2	MULTIPARAM	0	0.00000E+000	Discharge Stop At &2	None	N/A
AESBHCSELECTOR	TOGGLE	F	Save Both Half Cells
IRCOMP	TOGGLE	F	IR &Measure
EOC	QUANT	0	Open Circuit (V)
SEQUENCER	TOGGLE	TRUE	Run as Sequence
PSTATMODEL	IQUANT	53	Pstat Model
PSTATSECTION	LABEL	IFC5000-01520	Pstat Section
PSTATSERIALNO	LABEL	01520	Pstat Serial Number
CTRLMODE	IQUANT	0	Control Mode
ELECTROMETER	IQUANT	1	RE=0 or CS=1
IESTAB	IQUANT	0	I/E Stability
CASPEED	IQUANT	4	Control Amp Speed
CONVENTION	IQUANT	1	Current Convention
ICHRANGE	IQUANT	2	Ich Range
ICHRANGEMODE	TOGGLE	T	Ich Auto Range
ICHOFFSETENABLE	TOGGLE	F	Ich Offset Enable
ICHOFFSET	QUANT	0	Ich Offset (V)
ICHFILTER	IQUANT	1	Ich Filter
VCHRANGE	IQUANT	2	Vch Range
VCHRANGEMODE	TOGGLE	T	Vch Auto Range
VCHOFFSETENABLE	TOGGLE	F	Vch Offset Enable
VCHOFFSET	QUANT	0	Vch Offset (V)
VCHFILTER	IQUANT	1	Vch Filter
IERANGELOWERLIMIT	IQUANT	9	I/E Range Lower Limit
IERANGEMODE	TOGGLE	F	I/E AutoRange
IERANGE	IQUANT	9	I/E Range
ACHSELECT	IQUANT	1	Ach Select
ACHRANGE	IQUANT	2	Ach Range
ACHOFFSETENABLE	TOGGLE	F	Ach Offset Enable
ACHOFFSET	QUANT	0	Ach Offset (V)
ACHFILTER	IQUANT	1	Ach Filter
CABLEID	IQUANT	14	Cable ID
DCCALDATE	LABEL	5-7-2017	DC Calibration Date
ACCALDATE	LABEL	12/3/2015	AC Calibration Date
FRAMEWORKVERSION	QUANT	7.01	Framework Version
INSTRUMENTVERSION	LABEL	4.00	Instrument Version
CURVE	TABLE	71
	Pt	T	Vf	Im	Vu	Pwr	Sig	Ach	Temp	IERange	Over
	#	s	V	A	V	W	V	V	deg C	#	bits
	0	0.013333	8.43477E-001	-9.92875E-005	0.00000E+000	-8.37467E-005	-5.99601E-002	8.43786E-001	3.57720E+000	9	...........
	1	0.026667	8.30506E-001	-9.85488E-005	0.00000E+000	-8.18454E-005	-5.99601E-002	8.30825E-001	3.57720E+000	9	...........
	2	0.04	8.18144E-001	-9.93406E-005	0.00000E+000	-8.12749E-005	-5.99601E-002	8.18455E-001	3.57720E+000	9	...........
	3	0.053333	8.06167E-001	-9.97949E-005	0.00000E+000	-8.04513E-005	-5.99601E-002	8.06477E-001	3.57720E+000	9	...........
	4	0.066667	7.94460E-001	-9.87217E-005	0.00000E+000	-7.84305E-005	-5.99601E-002	7.94756E-001	3.57720E+000	9	...........
	5	0.08	7.82942E-001	-9.79362E-005	0.00000E+000	-7.66783E-005	-5.99601E-002	7.83249E-001	3.57720E+000	9	...........
	6	0.093333	7.71620E-001	-9.69922E-005	0.00000E+000	-7.48412E-005	-5.99601E-002	7.71904E-001	3.57720E+000	9	...........
	7	0.106667	7.60439E-001	-9.86301E-005	0.00000E+000	-7.50021E-005	-5.99601E-002	7.60710E-001	3.57720E+000	9	...........
	8	0.12	7.49351E-001	-9.78934E-005	0.00000E+000	-7.33565E-005	-5.99601E-002	7.49654E-001	3.57720E+000	9	...........
	9	0.133333	7.38389E-001	-9.92344E-005	0.00000E+000	-7.32736E-005	-5.99601E-002	7.38680E-001	3.57720E+000	9	...........
	10	0.146667	7.27523E-001	-9.91041E-005	0.00000E+000	-7.21005E-005	-5.99601E-002	7.27831E-001	3.57720E+000	9	...........
	11	0.16	7.16713E-001	-9.87415E-005	0.00000E+000	-7.07693E-005	-5.99601E-002	7.17026E-001	3.57720E+000	9	...........
	12	0.173333	7.05990E-001	-9.92104E-005	0.00000E+000	-7.00415E-005	-5.99601E-002	7.06284E-001	3.57720E+000	9	...........
	13	0.186667	6.95317E-001	-9.86228E-005	0.00000E+000	-6.85741E-005	-5.99601E-002	6.95612E-001	3.57720E+000	9	...........
	14	0.2	6.84597E-001	-9.82956E-005	0.00000E+000	-6.72929E-005	-5.99601E-002	6.84878E-001	3.57720E+000	9	...........
	15	0.213333	6.73877E-001	-9.93302E-005	0.00000E+000	-6.69363E-005	-5.99601E-002	6.74128E-001	3.57720E+000	9	...........
	16	0.226667	6.63016E-001	-9.89791E-005	0.00000E+000	-6.56248E-005	-5.99601E-002	6.63292E-001	3.57720E+000	9	...........
	17	0.24	6.52047E-001	-9.85655E-005	0.00000E+000	-6.42694E-005	-5.99601E-002	6.52318E-001	3.57720E+000	9	...........
	18	0.253333	6.40921E-001	-9.80997E-005	0.00000E+000	-6.28742E-005	-5.99601E-002	6.41186E-001	3.57720E+000	9	...........
	19	0.266667	6.29619E-001	-9.85290E-005	0.00000E+000	-6.20357E-005	-5.99601E-002	6.29869E-001	3.57720E+000	9	...........
	20	0.28	6.18167E-001	-9.92844E-005	0.00000E+000	-6.13744E-005	-5.99601E-002	6.18406E-001	3.57720E+000	9	...........
	21	0.293333	6.06486E-001	-9.80914E-005	0.00000E+000	-5.94910E-005	-5.99601E-002	6.06753E-001	3.57720E+000	9	...........
	22	0.306667	5.94701E-001	-9.88186E-005	0.00000E+000	-5.87676E-005	-5.99601E-002	5.94940E-001	3.57720E+000	9	...........
	23	0.32	5.82742E-001	-9.89572E-005	0.00000E+000	-5.76665E-005	-5.99601E-002	5.82988E-001	3.57720E+000	9	...........
	24	0.333333	5.70702E-001	-9.85790E-005	0.00000E+000	-5.62593E-005	-5.99601E-002	5.70925E-001	3.57720E+000	9	...........
	25	0.346667	5.58483E-001	-9.74611E-005	0.00000E+000	-5.44303E-005	-5.99601E-002	5.58722E-001	3.57720E+000	9	...........
	26	0.36	5.46163E-001	-9.84540E-005	0.00000E+000	-5.37719E-005	-5.99601E-002	5.46385E-001	3.57720E+000	9	...........
	27	0.373333	5.33741E-001	-9.88061E-005	0.00000E+000	-5.27369E-005	-5.99601E-002	5.33975E-001	3.57720E+000	9	...........
	28	0.386667	5.21239E-001	-9.85269E-005	0.00000E+000	-5.13561E-005	-5.99601E-002	5.21454E-001	3.57720E+000	9	...........
	29	0.4	5.08642E-001	-9.84019E-005	0.00000E+000	-5.00513E-005	-5.99601E-002	5.08889E-001	3.57720E+000	9	...........
	30	0.413333	4.95992E-001	-9.85967E-005	0.00000E+000	-4.89032E-005	-5.99601E-002	4.96220E-001	3.57720E+000	9	...........
	31	0.426667	4.83441E-001	-9.83175E-005	0.00000E+000	-4.75307E-005	-5.99601E-002	4.83618E-001	3.57720E+000	9	...........
	32	0.44	4.70842E-001	-9.87968E-005	0.00000E+000	-4.65176E-005	-5.99601E-002	4.70948E-001	3.57720E+000	9	...........
	33	0.453333	4.58039E-001	-9.85842E-005	0.00000E+000	-4.51554E-005	-5.99601E-002	4.58141E-001	3.57720E+000	9	...........
	34	0.466667	4.45213E-001	-9.92281E-005	0.00000E+000	-4.41776E-005	-5.99601E-002	4.45306E-001	3.57720E+000	9	...........
	35	0.48	4.32366E-001	-9.89906E-005	0.00000E+000	-4.28002E-005	-5.99601E-002	4.32461E-001	3.57720E+000	9	...........
	36	0.493333	4.19510E-001	-9.81779E-005	0.00000E+000	-4.11866E-005	-5.99601E-002	4.19605E-001	3.57720E+000	9	...........
	37	0.506667	4.06653E-001	-9.91208E-005	0.00000E+000	-4.03077E-005	-5.99601E-002	4.06739E-001	3.57720E+000	9	...........
	38	0.52	3.93803E-001	-9.90510E-005	0.00000E+000	-3.90066E-005	-5.99601E-002	3.93886E-001	3.57720E+000	9	...........
	39	0.533333	3.80965E-001	-9.98511E-005	0.00000E+000	-3.80398E-005	-5.99601E-002	3.81044E-001	3.57720E+000	9	...........
	40	0.546667	3.68146E-001	-9.85728E-005	0.00000E+000	-3.62892E-005	-5.99601E-002	3.68221E-001	3.57720E+000	9	...........
	41	0.56	3.55349E-001	-9.92583E-005	0.00000E+000	-3.52714E-005	-5.99601E-002	3.55427E-001	3.57720E+000	9	...........
	42	0.573333	3.42586E-001	-9.88447E-005	0.00000E+000	-3.38628E-005	-5.99601E-002	3.42661E-001	3.57720E+000	9	...........
	43	0.586667	3.29863E-001	-9.83144E-005	0.00000E+000	-3.24303E-005	-5.99601E-002	3.29929E-001	3.57720E+000	9	...........
	44	0.6	3.17175E-001	-9.85665E-005	0.00000E+000	-3.12629E-005	-5.99601E-002	3.17242E-001	3.57720E+000	9	...........
	45	0.613333	3.04521E-001	-9.92458E-005	0.00000E+000	-3.02224E-005	-5.99601E-002	3.04580E-001	3.57720E+000	9	...........
	46	0.626667	2.91900E-001	-9.88634E-005	0.00000E+000	-2.88582E-005	-5.99601E-002	2.91970E-001	3.57720E+000	9	...........
	47	0.64	2.79323E-001	-9.79726E-005	0.00000E+000	-2.73660E-005	-5.99601E-002	2.79387E-001	3.57720E+000	9	...........
	48	0.653333	2.66793E-001	-9.85498E-005	0.00000E+000	-2.62924E-005	-5.99601E-002	2.66851E-001	3.57720E+000	9	...........
	49	0.666667	2.54296E-001	-9.86540E-005	0.00000E+000	-2.50873E-005	-5.99601E-002	2.54356E-001	3.57720E+000	9	...........
	50	0.68	2.41834E-001	-9.87853E-005	0.00000E+000	-2.38896E-005	-5.99601E-002	2.41890E-001	3.57720E+000	9	...........
	51	0.693333	2.29409E-001	-9.94865E-005	0.00000E+000	-2.28231E-005	-5.99601E-002	2.29462E-001	3.57720E+000	9	...........
	52	0.706667	2.17010E-001	-9.85477E-005	0.00000E+000	-2.13858E-005	-5.99601E-002	2.17055E-001	3.57720E+000	9	...........
	53	0.72	2.04650E-001	-9.81643E-005	0.00000E+000	-2.00893E-005	-5.99601E-002	2.04694E-001	3.57720E+000	9	...........
	54	0.733333	1.92312E-001	-9.94354E-005	0.00000E+000	-1.91226E-005	-5.99601E-002	1.92358E-001	3.57720E+000	9	...........
	55	0.746667	1.80003E-001	-9.92823E-005	0.00000E+000	-1.78711E-005	-5.99601E-002	1.80043E-001	3.57720E+000	9	...........
	56	0.76	1.67729E-001	-9.98209E-005	0.00000E+000	-1.67429E-005	-5.99601E-002	1.67765E-001	3.57720E+000	9	...........
	57	0.773333	1.55511E-001	-9.86207E-005	0.00000E+000	-1.53366E-005	-5.99601E-002	1.55540E-001	3.57720E+000	9	...........
	58	0.786667	1.43322E-001	-9.81300E-005	0.00000E+000	-1.40642E-005	-5.99601E-002	1.43348E-001	3.57720E+000	9	...........
	59	0.8	1.31172E-001	-9.89697E-005	0.00000E+000	-1.29820E-005	-5.99601E-002	1.31196E-001	3.57720E+000	9	...........
	60	0.813333	1.19077E-001	-9.89124E-005	0.00000E+000	-1.17782E-005	-5.99601E-002	1.19106E-001	3.57803E+000	9	...........
	61	0.826667	1.07049E-001	-9.85154E-005	0.00000E+000	-1.05460E-005	-5.99601E-002	1.07072E-001	3.57830E+000	9	...........
	62	0.84	9.50908E-002	-9.95657E-005	0.00000E+000	-9.46778E-006	-5.99601E-002	9.51049E-002	3.57830E+000	9	...........
	63	0.853333	8.32028E-002	-9.83477E-005	0.00000E+000	-8.18280E-006	-5.99601E-002	8.32216E-002	3.57830E+000	9	...........
	64	0.866667	7.14208E-002	-9.88218E-005	0.00000E+000	-7.05793E-006	-5.99601E-002	7.14271E-002	3.57830E+000	9	...........
	65	0.88	5.97247E-002	-9.80331E-005	0.00000E+000	-5.85499E-006	-5.99601E-002	5.97335E-002	3.57830E+000	9	...........
	66	0.893333	4.81565E-002	-9.86373E-005	0.00000E+000	-4.75003E-006	-5.99601E-002	4.81535E-002	3.57830E+000	9	...........
	67	0.906667	3.67006E-002	-9.91416E-005	0.00000E+000	-3.63856E-006	-5.99601E-002	3.67002E-002	3.57830E+000	9	...........
	68	0.92	2.53620E-002	-9.81925E-005	0.00000E+000	-2.49036E-006	-5.99601E-002	2.53546E-002	3.57830E+000	9	...........
	69	0.933333	1.41592E-002	-9.98313E-005	0.00000E+000	-1.41353E-006	-5.99601E-002	1.41464E-002	3.57830E+000	9	...........
	70	0.945	3.78973E-003	-9.88591E-005	0.00000E+000	-3.74649E-007	-5.99601E-002	3.77094E-003	3.57830E+000	9	...........
STARTTIMEOFFSET	QUANT	577.9833	Start Time Offset (s)
