EXPLAIN
TAG	PWR800_DISCHARGE
TITLE	LABEL	PWR Cyclic Charge Discharge (Cell) - Discharge Step	Test &Identifier
DATE	LABEL	12-7-2017	Date
TIME	LABEL	16:55:22	Time
NOTES	NOTES	2	&Notes...
	supercap test cell
	6M KOH
PSTAT	PSTAT	IFC5000-01520	Potentiostat
CAPACITY	QUANT	1.00000E-003	Capacity (A-hr)
CELLTYPE	SELECTOR	1	&Cell Type
WORKINGCONNECTION	SELECTOR	0	&Working Lead
MAXDISCHARGETIME	VARIABLEANDUNITS	1.00000E+002	s	1.00000E+002	second(s)	Max &Discharge Time
DISCHARGEMODE	MULTIPARAM	0	1.00000E-004	&Discharge Mode	Constant Current	Amp(s)
SAMPLETIME	QUANT	1.00000E-002	Sa&mple Period (s)
DISCHARGESTOPAT1	MULTIPARAM	3	0.00000E+000	Discharge Stop At &1	Voltage < Limit	V
DISCHARGESTOPAT2	MULTIPARAM	0	0.00000E+000	Discharge Stop At &2	None	N/A
AESBHCSELECTOR	TOGGLE	F	Save Both Half Cells
IRCOMP	TOGGLE	F	IR &Measure
EOC	QUANT	0	Open Circuit (V)
SEQUENCER	TOGGLE	TRUE	Run as Sequence
PSTATMODEL	IQUANT	53	Pstat Model
PSTATSECTION	LABEL	IFC5000-01520	Pstat Section
PSTATSERIALNO	LABEL	01520	Pstat Serial Number
CTRLMODE	IQUANT	0	Control Mode
ELECTROMETER	IQUANT	1	RE=0 or CS=1
IESTAB	IQUANT	0	I/E Stability
CASPEED	IQUANT	4	Control Amp Speed
CONVENTION	IQUANT	1	Current Convention
ICHRANGE	IQUANT	2	Ich Range
ICHRANGEMODE	TOGGLE	T	Ich Auto Range
ICHOFFSETENABLE	TOGGLE	F	Ich Offset Enable
ICHOFFSET	QUANT	0	Ich Offset (V)
ICHFILTER	IQUANT	1	Ich Filter
VCHRANGE	IQUANT	2	Vch Range
VCHRANGEMODE	TOGGLE	T	Vch Auto Range
VCHOFFSETENABLE	TOGGLE	F	Vch Offset Enable
VCHOFFSET	QUANT	0	Vch Offset (V)
VCHFILTER	IQUANT	1	Vch Filter
IERANGELOWERLIMIT	IQUANT	9	I/E Range Lower Limit
IERANGEMODE	TOGGLE	F	I/E AutoRange
IERANGE	IQUANT	9	I/E Range
ACHSELECT	IQUANT	1	Ach Select
ACHRANGE	IQUANT	2	Ach Range
ACHOFFSETENABLE	TOGGLE	F	Ach Offset Enable
ACHOFFSET	QUANT	0	Ach Offset (V)
ACHFILTER	IQUANT	1	Ach Filter
CABLEID	IQUANT	14	Cable ID
DCCALDATE	LABEL	5-7-2017	DC Calibration Date
ACCALDATE	LABEL	12/3/2015	AC Calibration Date
FRAMEWORKVERSION	QUANT	7.01	Framework Version
INSTRUMENTVERSION	LABEL	4.00	Instrument Version
CURVE	TABLE	70
	Pt	T	Vf	Im	Vu	Pwr	Sig	Ach	Temp	IERange	Over
	#	s	V	A	V	W	V	V	deg C	#	bits
	0	0.013333	8.44530E-001	-9.88572E-005	0.00000E+000	-8.34878E-005	-5.99601E-002	8.44851E-001	3.57660E+000	9	...........
	1	0.026667	8.31316E-001	-9.80581E-005	0.00000E+000	-8.15173E-005	-5.99601E-002	8.31600E-001	3.57660E+000	9	...........
	2	0.04	8.18657E-001	-9.82060E-005	0.00000E+000	-8.03970E-005	-5.99601E-002	8.18956E-001	3.57630E+000	9	...........
	3	0.053333	8.06403E-001	-9.92906E-005	0.00000E+000	-8.00683E-005	-5.99601E-002	8.06651E-001	3.57630E+000	9	...........
	4	0.066667	7.94378E-001	-9.82352E-005	0.00000E+000	-7.80358E-005	-5.99601E-002	7.94627E-001	3.57630E+000	9	...........
	5	0.08	7.82526E-001	-9.86155E-005	0.00000E+000	-7.71691E-005	-5.99601E-002	7.82797E-001	3.57630E+000	9	...........
	6	0.093333	7.70849E-001	-9.87561E-005	0.00000E+000	-7.61261E-005	-5.99601E-002	7.71129E-001	3.57630E+000	9	...........
	7	0.106667	7.59297E-001	-9.93833E-005	0.00000E+000	-7.54615E-005	-5.99601E-002	7.59556E-001	3.57630E+000	9	...........
	8	0.12	7.47852E-001	-9.99772E-005	0.00000E+000	-7.47681E-005	-5.99601E-002	7.48124E-001	3.57630E+000	9	...........
	9	0.133333	7.36490E-001	-9.73475E-005	0.00000E+000	-7.16954E-005	-5.99601E-002	7.36756E-001	3.57630E+000	9	...........
	10	0.146667	7.25259E-001	-9.78466E-005	0.00000E+000	-7.09641E-005	-5.99601E-002	7.25486E-001	3.57630E+000	9	...........
	11	0.16	7.14048E-001	-9.97063E-005	0.00000E+000	-7.11951E-005	-5.99601E-002	7.14291E-001	3.57630E+000	9	...........
	12	0.173333	7.02972E-001	-9.89853E-005	0.00000E+000	-6.95840E-005	-5.99601E-002	7.03198E-001	3.57630E+000	9	...........
	13	0.186667	6.91958E-001	-9.82216E-005	0.00000E+000	-6.79653E-005	-5.99601E-002	6.92185E-001	3.57630E+000	9	...........
	14	0.2	6.81014E-001	-9.92041E-005	0.00000E+000	-6.75594E-005	-5.99601E-002	6.81230E-001	3.57630E+000	9	...........
	15	0.213333	6.70152E-001	-9.88426E-005	0.00000E+000	-6.62395E-005	-5.99601E-002	6.70350E-001	3.57630E+000	9	...........
	16	0.226667	6.59316E-001	-9.84644E-005	0.00000E+000	-6.49192E-005	-5.99601E-002	6.59532E-001	3.57630E+000	9	...........
	17	0.24	6.48515E-001	-9.80466E-005	0.00000E+000	-6.35847E-005	-5.99601E-002	6.48719E-001	3.57630E+000	9	...........
	18	0.253333	6.37720E-001	-9.83852E-005	0.00000E+000	-6.27422E-005	-5.99601E-002	6.37898E-001	3.57630E+000	9	...........
	19	0.266667	6.26841E-001	-9.83550E-005	0.00000E+000	-6.16529E-005	-5.99601E-002	6.27033E-001	3.57630E+000	9	...........
	20	0.28	6.15837E-001	-9.85259E-005	0.00000E+000	-6.06758E-005	-5.99601E-002	6.16043E-001	3.57630E+000	9	...........
	21	0.293333	6.04631E-001	-9.83321E-005	0.00000E+000	-5.94546E-005	-5.99601E-002	6.04871E-001	3.57630E+000	9	...........
	22	0.306667	5.93284E-001	-9.88020E-005	0.00000E+000	-5.86177E-005	-5.99601E-002	5.93511E-001	3.57630E+000	9	...........
	23	0.32	5.81691E-001	-9.82956E-005	0.00000E+000	-5.71777E-005	-5.99601E-002	5.81935E-001	3.57630E+000	9	...........
	24	0.333333	5.69926E-001	-9.88905E-005	0.00000E+000	-5.63603E-005	-5.99601E-002	5.70117E-001	3.57630E+000	9	...........
	25	0.346667	5.57874E-001	-9.94615E-005	0.00000E+000	-5.54870E-005	-5.99601E-002	5.58115E-001	3.57630E+000	9	...........
	26	0.36	5.45701E-001	-9.90406E-005	0.00000E+000	-5.40465E-005	-5.99601E-002	5.45896E-001	3.57630E+000	9	...........
	27	0.373333	5.33292E-001	-9.94406E-005	0.00000E+000	-5.30309E-005	-5.99601E-002	5.33477E-001	3.57630E+000	9	...........
	28	0.386667	5.20713E-001	-9.81820E-005	0.00000E+000	-5.11246E-005	-5.99601E-002	5.20910E-001	3.57630E+000	9	...........
	29	0.4	5.07965E-001	-9.81227E-005	0.00000E+000	-4.98429E-005	-5.99601E-002	5.08184E-001	3.57630E+000	9	...........
	30	0.413333	4.95102E-001	-9.96011E-005	0.00000E+000	-4.93127E-005	-5.99601E-002	4.95305E-001	3.57630E+000	9	...........
	31	0.426667	4.82274E-001	-9.82237E-005	0.00000E+000	-4.73708E-005	-5.99601E-002	4.82425E-001	3.57630E+000	9	...........
	32	0.44	4.69275E-001	-9.83050E-005	0.00000E+000	-4.61321E-005	-5.99601E-002	4.69375E-001	3.57630E+000	9	...........
	33	0.453333	4.56058E-001	-9.87124E-005	0.00000E+000	-4.50185E-005	-5.99601E-002	4.56153E-001	3.57630E+000	9	...........
	34	0.466667	4.42771E-001	-9.94511E-005	0.00000E+000	-4.40340E-005	-5.99601E-002	4.42867E-001	3.57630E+000	9	...........
	35	0.48	4.29407E-001	-9.87520E-005	0.00000E+000	-4.24048E-005	-5.99601E-002	4.29503E-001	3.57630E+000	9	...........
	36	0.493333	4.15991E-001	-9.94104E-005	0.00000E+000	-4.13539E-005	-5.99601E-002	4.16082E-001	3.57630E+000	9	...........
	37	0.506667	4.02538E-001	-9.85655E-005	0.00000E+000	-3.96764E-005	-5.99601E-002	4.02624E-001	3.57630E+000	9	...........
	38	0.52	3.89054E-001	-9.89009E-005	0.00000E+000	-3.84778E-005	-5.99601E-002	3.89132E-001	3.57630E+000	9	...........
	39	0.533333	3.75555E-001	-9.87582E-005	0.00000E+000	-3.70891E-005	-5.99601E-002	3.75630E-001	3.57630E+000	9	...........
	40	0.546667	3.62060E-001	-9.86874E-005	0.00000E+000	-3.57308E-005	-5.99601E-002	3.62132E-001	3.57630E+000	9	...........
	41	0.56	3.48569E-001	-9.82206E-005	0.00000E+000	-3.42366E-005	-5.99601E-002	3.48640E-001	3.57630E+000	9	...........
	42	0.573333	3.35099E-001	-9.78622E-005	0.00000E+000	-3.27935E-005	-5.99601E-002	3.35163E-001	3.57630E+000	9	...........
	43	0.586667	3.21669E-001	-9.85686E-005	0.00000E+000	-3.17064E-005	-5.99601E-002	3.21729E-001	3.57630E+000	9	...........
	44	0.6	3.08265E-001	-9.85582E-005	0.00000E+000	-3.03820E-005	-5.99601E-002	3.08336E-001	3.57630E+000	9	...........
	45	0.613333	2.94920E-001	-9.83258E-005	0.00000E+000	-2.89983E-005	-5.99601E-002	2.94980E-001	3.57630E+000	9	...........
	46	0.626667	2.81624E-001	-9.76830E-005	0.00000E+000	-2.75099E-005	-5.99601E-002	2.81685E-001	3.57630E+000	9	...........
	47	0.64	2.68388E-001	-9.91541E-005	0.00000E+000	-2.66118E-005	-5.99601E-002	2.68445E-001	3.57630E+000	9	...........
	48	0.653333	2.55223E-001	-9.84165E-005	0.00000E+000	-2.51182E-005	-5.99601E-002	2.55276E-001	3.57630E+000	9	...........
	49	0.666667	2.42129E-001	-9.87249E-005	0.00000E+000	-2.39042E-005	-5.99601E-002	2.42179E-001	3.57630E+000	9	...........
	50	0.68	2.29105E-001	-9.88812E-005	0.00000E+000	-2.26542E-005	-5.99601E-002	2.29150E-001	3.57630E+000	9	...........
	51	0.693333	2.16153E-001	-9.95271E-005	0.00000E+000	-2.15130E-005	-5.99601E-002	2.16195E-001	3.57630E+000	9	...........
	52	0.706667	2.03275E-001	-9.82633E-005	0.00000E+000	-1.99745E-005	-5.99601E-002	2.03318E-001	3.57630E+000	9	...........
	53	0.72	1.90477E-001	-9.75413E-005	0.00000E+000	-1.85793E-005	-5.99601E-002	1.90518E-001	3.57630E+000	9	...........
	54	0.733333	1.77764E-001	-9.84196E-005	0.00000E+000	-1.74955E-005	-5.99601E-002	1.77802E-001	3.57630E+000	9	...........
	55	0.746667	1.65129E-001	-9.85665E-005	0.00000E+000	-1.62762E-005	-5.99601E-002	1.65161E-001	3.57630E+000	9	...........
	56	0.76	1.52576E-001	-9.92416E-005	0.00000E+000	-1.51419E-005	-5.99601E-002	1.52605E-001	3.57630E+000	9	...........
	57	0.773333	1.40104E-001	-9.91718E-005	0.00000E+000	-1.38944E-005	-5.99601E-002	1.40129E-001	3.57630E+000	9	...........
	58	0.786667	1.27717E-001	-9.82998E-005	0.00000E+000	-1.25545E-005	-5.99601E-002	1.27740E-001	3.57630E+000	9	...........
	59	0.8	1.15410E-001	-9.82008E-005	0.00000E+000	-1.13333E-005	-5.99601E-002	1.15429E-001	3.57630E+000	9	...........
	60	0.813333	1.03194E-001	-9.89583E-005	0.00000E+000	-1.02119E-005	-5.99601E-002	1.03212E-001	3.57630E+000	9	...........
	61	0.826667	9.10807E-002	-9.83779E-005	0.00000E+000	-8.96033E-006	-5.99601E-002	9.10957E-002	3.57630E+000	9	...........
	62	0.84	7.90806E-002	-9.86321E-005	0.00000E+000	-7.79989E-006	-5.99601E-002	7.90938E-002	3.57630E+000	9	...........
	63	0.853333	6.71967E-002	-9.95250E-005	0.00000E+000	-6.68776E-006	-5.99601E-002	6.72047E-002	3.57630E+000	9	...........
	64	0.866667	5.54459E-002	-9.95386E-005	0.00000E+000	-5.51901E-006	-5.99601E-002	5.54502E-002	3.57630E+000	9	...........
	65	0.88	4.38581E-002	-1.00176E-004	0.00000E+000	-4.39354E-006	-5.99601E-002	4.38608E-002	3.57630E+000	9	...........
	66	0.893333	3.23962E-002	-9.95084E-005	0.00000E+000	-3.22370E-006	-5.99601E-002	3.23976E-002	3.57630E+000	9	...........
	67	0.906667	2.11019E-002	-9.84873E-005	0.00000E+000	-2.07827E-006	-5.99601E-002	2.10947E-002	3.57630E+000	9	...........
	68	0.92	9.97537E-003	-9.91687E-005	0.00000E+000	-9.89245E-007	-5.99601E-002	9.96350E-003	3.57630E+000	9	...........
	69	0.926667	1.73640E-003	-9.89666E-005	0.00000E+000	-1.71846E-007	-5.99601E-002	1.72262E-003	3.57630E+000	9	...........
STARTTIMEOFFSET	QUANT	1931.106	Start Time Offset (s)
