EXPLAIN
TAG	PWR800_DISCHARGE
TITLE	LABEL	PWR Cyclic Charge Discharge (Cell) - Discharge Step	Test &Identifier
DATE	LABEL	12-7-2017	Date
TIME	LABEL	16:50:14	Time
NOTES	NOTES	2	&Notes...
	supercap test cell
	6M KOH
PSTAT	PSTAT	IFC5000-01520	Potentiostat
CAPACITY	QUANT	1.00000E-003	Capacity (A-hr)
CELLTYPE	SELECTOR	1	&Cell Type
WORKINGCONNECTION	SELECTOR	0	&Working Lead
MAXDISCHARGETIME	VARIABLEANDUNITS	1.00000E+002	s	1.00000E+002	second(s)	Max &Discharge Time
DISCHARGEMODE	MULTIPARAM	0	1.00000E-004	&Discharge Mode	Constant Current	Amp(s)
SAMPLETIME	QUANT	1.00000E-002	Sa&mple Period (s)
DISCHARGESTOPAT1	MULTIPARAM	3	0.00000E+000	Discharge Stop At &1	Voltage < Limit	V
DISCHARGESTOPAT2	MULTIPARAM	0	0.00000E+000	Discharge Stop At &2	None	N/A
AESBHCSELECTOR	TOGGLE	F	Save Both Half Cells
IRCOMP	TOGGLE	F	IR &Measure
EOC	QUANT	0	Open Circuit (V)
SEQUENCER	TOGGLE	TRUE	Run as Sequence
PSTATMODEL	IQUANT	53	Pstat Model
PSTATSECTION	LABEL	IFC5000-01520	Pstat Section
PSTATSERIALNO	LABEL	01520	Pstat Serial Number
CTRLMODE	IQUANT	0	Control Mode
ELECTROMETER	IQUANT	1	RE=0 or CS=1
IESTAB	IQUANT	0	I/E Stability
CASPEED	IQUANT	4	Control Amp Speed
CONVENTION	IQUANT	1	Current Convention
ICHRANGE	IQUANT	2	Ich Range
ICHRANGEMODE	TOGGLE	T	Ich Auto Range
ICHOFFSETENABLE	TOGGLE	F	Ich Offset Enable
ICHOFFSET	QUANT	0	Ich Offset (V)
ICHFILTER	IQUANT	1	Ich Filter
VCHRANGE	IQUANT	2	Vch Range
VCHRANGEMODE	TOGGLE	T	Vch Auto Range
VCHOFFSETENABLE	TOGGLE	F	Vch Offset Enable
VCHOFFSET	QUANT	0	Vch Offset (V)
VCHFILTER	IQUANT	1	Vch Filter
IERANGELOWERLIMIT	IQUANT	9	I/E Range Lower Limit
IERANGEMODE	TOGGLE	F	I/E AutoRange
IERANGE	IQUANT	9	I/E Range
ACHSELECT	IQUANT	1	Ach Select
ACHRANGE	IQUANT	2	Ach Range
ACHOFFSETENABLE	TOGGLE	F	Ach Offset Enable
ACHOFFSET	QUANT	0	Ach Offset (V)
ACHFILTER	IQUANT	1	Ach Filter
CABLEID	IQUANT	14	Cable ID
DCCALDATE	LABEL	5-7-2017	DC Calibration Date
ACCALDATE	LABEL	12/3/2015	AC Calibration Date
FRAMEWORKVERSION	QUANT	7.01	Framework Version
INSTRUMENTVERSION	LABEL	4.00	Instrument Version
CURVE	TABLE	70
	Pt	T	Vf	Im	Vu	Pwr	Sig	Ach	Temp	IERange	Over
	#	s	V	A	V	W	V	V	deg C	#	bits
	0	0.013333	8.45076E-001	-9.98897E-005	0.00000E+000	-8.44144E-005	-5.99601E-002	8.45371E-001	3.57710E+000	9	...........
	1	0.026667	8.31875E-001	-9.84311E-005	0.00000E+000	-8.18824E-005	-5.99601E-002	8.32175E-001	3.57710E+000	9	...........
	2	0.04	8.19267E-001	-9.78466E-005	0.00000E+000	-8.01624E-005	-5.99601E-002	8.19552E-001	3.57710E+000	9	...........
	3	0.053333	8.07017E-001	-9.84196E-005	0.00000E+000	-7.94263E-005	-5.99601E-002	8.07302E-001	3.57710E+000	9	...........
	4	0.066667	7.95058E-001	-9.83456E-005	0.00000E+000	-7.81905E-005	-5.99601E-002	7.95304E-001	3.57710E+000	9	...........
	5	0.08	7.83248E-001	-9.87374E-005	0.00000E+000	-7.73359E-005	-5.99601E-002	7.83496E-001	3.57710E+000	9	...........
	6	0.093333	7.71594E-001	-9.83738E-005	0.00000E+000	-7.59046E-005	-5.99601E-002	7.71870E-001	3.57710E+000	9	...........
	7	0.106667	7.60092E-001	-9.87863E-005	0.00000E+000	-7.50867E-005	-5.99601E-002	7.60341E-001	3.57710E+000	9	...........
	8	0.12	7.48691E-001	-9.89385E-005	0.00000E+000	-7.40743E-005	-5.99601E-002	7.48942E-001	3.57710E+000	9	...........
	9	0.133333	7.37364E-001	-9.91354E-005	0.00000E+000	-7.30988E-005	-5.99601E-002	7.37613E-001	3.57710E+000	9	...........
	10	0.146667	7.26151E-001	-9.90270E-005	0.00000E+000	-7.19086E-005	-5.99601E-002	7.26393E-001	3.57710E+000	9	...........
	11	0.16	7.15009E-001	-9.79487E-005	0.00000E+000	-7.00342E-005	-5.99601E-002	7.15269E-001	3.57710E+000	9	...........
	12	0.173333	7.03982E-001	-9.84509E-005	0.00000E+000	-6.93076E-005	-5.99601E-002	7.04206E-001	3.57710E+000	9	...........
	13	0.186667	6.92991E-001	-9.87520E-005	0.00000E+000	-6.84343E-005	-5.99601E-002	6.93247E-001	3.57710E+000	9	...........
	14	0.2	6.82082E-001	-9.81091E-005	0.00000E+000	-6.69185E-005	-5.99601E-002	6.82364E-001	3.57710E+000	9	...........
	15	0.213333	6.71284E-001	-9.87551E-005	0.00000E+000	-6.62928E-005	-5.99601E-002	6.71524E-001	3.57680E+000	9	...........
	16	0.226667	6.60497E-001	-9.83102E-005	0.00000E+000	-6.49336E-005	-5.99601E-002	6.60724E-001	3.57650E+000	9	...........
	17	0.24	6.49733E-001	-9.84498E-005	0.00000E+000	-6.39661E-005	-5.99601E-002	6.49953E-001	3.57650E+000	9	...........
	18	0.253333	6.38943E-001	-9.90197E-005	0.00000E+000	-6.32679E-005	-5.99601E-002	6.39182E-001	3.57650E+000	9	...........
	19	0.266667	6.28095E-001	-9.97011E-005	0.00000E+000	-6.26218E-005	-5.99601E-002	6.28312E-001	3.57650E+000	9	...........
	20	0.28	6.17109E-001	-9.82352E-005	0.00000E+000	-6.06219E-005	-5.99601E-002	6.17319E-001	3.57650E+000	9	...........
	21	0.293333	6.05915E-001	-9.88666E-005	0.00000E+000	-5.99048E-005	-5.99601E-002	6.06156E-001	3.57650E+000	9	...........
	22	0.306667	5.94581E-001	-9.80747E-005	0.00000E+000	-5.83134E-005	-5.99601E-002	5.94801E-001	3.57650E+000	9	...........
	23	0.32	5.82997E-001	-9.77809E-005	0.00000E+000	-5.70060E-005	-5.99601E-002	5.83235E-001	3.57650E+000	9	...........
	24	0.333333	5.71235E-001	-9.94594E-005	0.00000E+000	-5.68147E-005	-5.99601E-002	5.71447E-001	3.57650E+000	9	...........
	25	0.346667	5.59227E-001	-9.92656E-005	0.00000E+000	-5.55120E-005	-5.99601E-002	5.59446E-001	3.57650E+000	9	...........
	26	0.36	5.47034E-001	-9.95469E-005	0.00000E+000	-5.44555E-005	-5.99601E-002	5.47245E-001	3.57650E+000	9	...........
	27	0.373333	5.34659E-001	-9.96261E-005	0.00000E+000	-5.32660E-005	-5.99601E-002	5.34886E-001	3.57650E+000	9	...........
	28	0.386667	5.22126E-001	-9.87217E-005	0.00000E+000	-5.15452E-005	-5.99601E-002	5.22345E-001	3.57650E+000	9	...........
	29	0.4	5.09400E-001	-9.72516E-005	0.00000E+000	-4.95400E-005	-5.99601E-002	5.09654E-001	3.57650E+000	9	...........
	30	0.413333	4.96562E-001	-9.77153E-005	0.00000E+000	-4.85217E-005	-5.99601E-002	4.96798E-001	3.57650E+000	9	...........
	31	0.426667	4.83771E-001	-9.84644E-005	0.00000E+000	-4.76342E-005	-5.99601E-002	4.83932E-001	3.57650E+000	9	...........
	32	0.44	4.70843E-001	-9.90385E-005	0.00000E+000	-4.66316E-005	-5.99601E-002	4.70951E-001	3.57650E+000	9	...........
	33	0.453333	4.57683E-001	-9.88812E-005	0.00000E+000	-4.52562E-005	-5.99601E-002	4.57781E-001	3.57650E+000	9	...........
	34	0.466667	4.44437E-001	-9.80727E-005	0.00000E+000	-4.35871E-005	-5.99601E-002	4.44533E-001	3.57650E+000	9	...........
	35	0.48	4.31120E-001	-9.92864E-005	0.00000E+000	-4.28044E-005	-5.99601E-002	4.31214E-001	3.57650E+000	9	...........
	36	0.493333	4.17756E-001	-9.82248E-005	0.00000E+000	-4.10340E-005	-5.99601E-002	4.17841E-001	3.57650E+000	9	...........
	37	0.506667	4.04357E-001	-9.78653E-005	0.00000E+000	-3.95725E-005	-5.99601E-002	4.04435E-001	3.57650E+000	9	...........
	38	0.52	3.90922E-001	-9.94302E-005	0.00000E+000	-3.88695E-005	-5.99601E-002	3.90996E-001	3.57650E+000	9	...........
	39	0.533333	3.77470E-001	-9.90937E-005	0.00000E+000	-3.74049E-005	-5.99601E-002	3.77544E-001	3.57650E+000	9	...........
	40	0.546667	3.64021E-001	-9.88989E-005	0.00000E+000	-3.60013E-005	-5.99601E-002	3.64095E-001	3.57650E+000	9	...........
	41	0.56	3.50585E-001	-9.81914E-005	0.00000E+000	-3.44244E-005	-5.99601E-002	3.50652E-001	3.57650E+000	9	...........
	42	0.573333	3.37164E-001	-9.73058E-005	0.00000E+000	-3.28080E-005	-5.99601E-002	3.37236E-001	3.57650E+000	9	...........
	43	0.586667	3.23783E-001	-9.73485E-005	0.00000E+000	-3.15198E-005	-5.99601E-002	3.23846E-001	3.57650E+000	9	...........
	44	0.6	3.10427E-001	-9.97105E-005	0.00000E+000	-3.09528E-005	-5.99601E-002	3.10488E-001	3.57650E+000	9	...........
	45	0.613333	2.97133E-001	-9.99647E-005	0.00000E+000	-2.97028E-005	-5.99601E-002	2.97191E-001	3.57650E+000	9	...........
	46	0.626667	2.83888E-001	-9.84957E-005	0.00000E+000	-2.79617E-005	-5.99601E-002	2.83941E-001	3.57650E+000	9	...........
	47	0.64	2.70695E-001	-9.95219E-005	0.00000E+000	-2.69401E-005	-5.99601E-002	2.70752E-001	3.57650E+000	9	...........
	48	0.653333	2.57573E-001	-9.77361E-005	0.00000E+000	-2.51742E-005	-5.99601E-002	2.57627E-001	3.57650E+000	9	...........
	49	0.666667	2.44514E-001	-9.91791E-005	0.00000E+000	-2.42506E-005	-5.99601E-002	2.44572E-001	3.57650E+000	9	...........
	50	0.68	2.31538E-001	-9.89822E-005	0.00000E+000	-2.29181E-005	-5.99601E-002	2.31587E-001	3.57650E+000	9	...........
	51	0.693333	2.18628E-001	-9.83217E-005	0.00000E+000	-2.14958E-005	-5.99601E-002	2.18671E-001	3.57650E+000	9	...........
	52	0.706667	2.05793E-001	-9.88176E-005	0.00000E+000	-2.03359E-005	-5.99601E-002	2.05834E-001	3.57650E+000	9	...........
	53	0.72	1.93032E-001	-9.82987E-005	0.00000E+000	-1.89748E-005	-5.99601E-002	1.93071E-001	3.57650E+000	9	...........
	54	0.733333	1.80348E-001	-9.91052E-005	0.00000E+000	-1.78735E-005	-5.99601E-002	1.80386E-001	3.57650E+000	9	...........
	55	0.746667	1.67752E-001	-9.84050E-005	0.00000E+000	-1.65077E-005	-5.99601E-002	1.67780E-001	3.57650E+000	9	...........
	56	0.76	1.55223E-001	-9.78955E-005	0.00000E+000	-1.51957E-005	-5.99601E-002	1.55251E-001	3.57650E+000	9	...........
	57	0.773333	1.42770E-001	-9.88332E-005	0.00000E+000	-1.41104E-005	-5.99601E-002	1.42792E-001	3.57650E+000	9	...........
	58	0.786667	1.30393E-001	-9.91333E-005	0.00000E+000	-1.29263E-005	-5.99601E-002	1.30416E-001	3.57650E+000	9	...........
	59	0.8	1.18103E-001	-9.77903E-005	0.00000E+000	-1.15494E-005	-5.99601E-002	1.18124E-001	3.57650E+000	9	...........
	60	0.813333	1.05893E-001	-9.89520E-005	0.00000E+000	-1.04783E-005	-5.99601E-002	1.05909E-001	3.57650E+000	9	...........
	61	0.826667	9.37813E-002	-9.86405E-005	0.00000E+000	-9.25063E-006	-5.99601E-002	9.37933E-002	3.57650E+000	9	...........
	62	0.84	8.17779E-002	-9.86301E-005	0.00000E+000	-8.06576E-006	-5.99601E-002	8.17922E-002	3.57650E+000	9	...........
	63	0.853333	6.98897E-002	-9.78789E-005	0.00000E+000	-6.84072E-006	-5.99601E-002	6.98998E-002	3.57650E+000	9	...........
	64	0.866667	5.81240E-002	-9.81581E-005	0.00000E+000	-5.70534E-006	-5.99601E-002	5.81278E-002	3.57650E+000	9	...........
	65	0.88	4.65138E-002	-9.82664E-005	0.00000E+000	-4.57075E-006	-5.99601E-002	4.65110E-002	3.57650E+000	9	...........
	66	0.893333	3.50390E-002	-9.84509E-005	0.00000E+000	-3.44962E-006	-5.99601E-002	3.50429E-002	3.57650E+000	9	...........
	67	0.906667	2.37166E-002	-9.81852E-005	0.00000E+000	-2.32862E-006	-5.99601E-002	2.37166E-002	3.57650E+000	9	...........
	68	0.92	1.25612E-002	-9.87968E-005	0.00000E+000	-1.24101E-006	-5.99601E-002	1.25465E-002	3.57650E+000	9	...........
	69	0.93	2.93884E-003	-9.91173E-005	0.00000E+000	-2.91290E-007	-5.99601E-002	2.91594E-003	3.57650E+000	9	...........
STARTTIMEOFFSET	QUANT	1713.025	Start Time Offset (s)
