EXPLAIN
TAG	PWR800_DISCHARGE
TITLE	LABEL	PWR Cyclic Charge Discharge (Cell) - Discharge Step	Test &Identifier
DATE	LABEL	12-7-2017	Date
TIME	LABEL	16:15:23	Time
NOTES	NOTES	2	&Notes...
	supercap test cell
	6M KOH
PSTAT	PSTAT	IFC5000-01520	Potentiostat
CAPACITY	QUANT	1.00000E-003	Capacity (A-hr)
CELLTYPE	SELECTOR	1	&Cell Type
WORKINGCONNECTION	SELECTOR	0	&Working Lead
MAXDISCHARGETIME	VARIABLEANDUNITS	1.00000E+002	s	1.00000E+002	second(s)	Max &Discharge Time
DISCHARGEMODE	MULTIPARAM	0	1.00000E-004	&Discharge Mode	Constant Current	Amp(s)
SAMPLETIME	QUANT	1.00000E-002	Sa&mple Period (s)
DISCHARGESTOPAT1	MULTIPARAM	3	0.00000E+000	Discharge Stop At &1	Voltage < Limit	V
DISCHARGESTOPAT2	MULTIPARAM	0	0.00000E+000	Discharge Stop At &2	None	N/A
AESBHCSELECTOR	TOGGLE	F	Save Both Half Cells
IRCOMP	TOGGLE	F	IR &Measure
EOC	QUANT	0	Open Circuit (V)
SEQUENCER	TOGGLE	TRUE	Run as Sequence
PSTATMODEL	IQUANT	53	Pstat Model
PSTATSECTION	LABEL	IFC5000-01520	Pstat Section
PSTATSERIALNO	LABEL	01520	Pstat Serial Number
CTRLMODE	IQUANT	0	Control Mode
ELECTROMETER	IQUANT	1	RE=0 or CS=1
IESTAB	IQUANT	0	I/E Stability
CASPEED	IQUANT	4	Control Amp Speed
CONVENTION	IQUANT	1	Current Convention
ICHRANGE	IQUANT	2	Ich Range
ICHRANGEMODE	TOGGLE	T	Ich Auto Range
ICHOFFSETENABLE	TOGGLE	F	Ich Offset Enable
ICHOFFSET	QUANT	0	Ich Offset (V)
ICHFILTER	IQUANT	1	Ich Filter
VCHRANGE	IQUANT	2	Vch Range
VCHRANGEMODE	TOGGLE	T	Vch Auto Range
VCHOFFSETENABLE	TOGGLE	F	Vch Offset Enable
VCHOFFSET	QUANT	0	Vch Offset (V)
VCHFILTER	IQUANT	1	Vch Filter
IERANGELOWERLIMIT	IQUANT	9	I/E Range Lower Limit
IERANGEMODE	TOGGLE	F	I/E AutoRange
IERANGE	IQUANT	9	I/E Range
ACHSELECT	IQUANT	1	Ach Select
ACHRANGE	IQUANT	2	Ach Range
ACHOFFSETENABLE	TOGGLE	F	Ach Offset Enable
ACHOFFSET	QUANT	0	Ach Offset (V)
ACHFILTER	IQUANT	1	Ach Filter
CABLEID	IQUANT	14	Cable ID
DCCALDATE	LABEL	5-7-2017	DC Calibration Date
ACCALDATE	LABEL	12/3/2015	AC Calibration Date
FRAMEWORKVERSION	QUANT	7.01	Framework Version
INSTRUMENTVERSION	LABEL	4.00	Instrument Version
CURVE	TABLE	72
	Pt	T	Vf	Im	Vu	Pwr	Sig	Ach	Temp	IERange	Over
	#	s	V	A	V	W	V	V	deg C	#	bits
	0	0.013333	8.39163E-001	-9.86874E-005	0.00000E+000	-8.28148E-005	-5.99601E-002	8.39440E-001	3.57720E+000	9	...........
	1	0.026667	8.26188E-001	-9.96094E-005	0.00000E+000	-8.22961E-005	-5.99601E-002	8.26452E-001	3.57720E+000	9	...........
	2	0.04	8.13785E-001	-9.94604E-005	0.00000E+000	-8.09394E-005	-5.99601E-002	8.14072E-001	3.57720E+000	9	...........
	3	0.053333	8.01804E-001	-9.90135E-005	0.00000E+000	-7.93894E-005	-5.99601E-002	8.02048E-001	3.57720E+000	9	...........
	4	0.066667	7.90057E-001	-9.83863E-005	0.00000E+000	-7.77308E-005	-5.99601E-002	7.90332E-001	3.57720E+000	9	...........
	5	0.08	7.78533E-001	-9.81216E-005	0.00000E+000	-7.63909E-005	-5.99601E-002	7.78791E-001	3.57720E+000	9	...........
	6	0.093333	7.67169E-001	-9.85227E-005	0.00000E+000	-7.55836E-005	-5.99601E-002	7.67444E-001	3.57720E+000	9	...........
	7	0.106667	7.55943E-001	-9.82185E-005	0.00000E+000	-7.42476E-005	-5.99601E-002	7.56206E-001	3.57720E+000	9	...........
	8	0.12	7.44783E-001	-9.81956E-005	0.00000E+000	-7.31344E-005	-5.99601E-002	7.45048E-001	3.57720E+000	9	...........
	9	0.133333	7.33660E-001	-9.88364E-005	0.00000E+000	-7.25123E-005	-5.99601E-002	7.33930E-001	3.57720E+000	9	...........
	10	0.146667	7.22576E-001	-9.77507E-005	0.00000E+000	-7.06323E-005	-5.99601E-002	7.22809E-001	3.57720E+000	9	...........
	11	0.16	7.11403E-001	-9.89364E-005	0.00000E+000	-7.03836E-005	-5.99601E-002	7.11651E-001	3.57720E+000	9	...........
	12	0.173333	7.00176E-001	-9.85332E-005	0.00000E+000	-6.89906E-005	-5.99601E-002	7.00427E-001	3.57720E+000	9	...........
	13	0.186667	6.88840E-001	-9.88749E-005	0.00000E+000	-6.81090E-005	-5.99601E-002	6.89104E-001	3.57720E+000	9	...........
	14	0.2	6.77388E-001	-9.94844E-005	0.00000E+000	-6.73895E-005	-5.99601E-002	6.77642E-001	3.57720E+000	9	...........
	15	0.213333	6.65821E-001	-9.94052E-005	0.00000E+000	-6.61861E-005	-5.99601E-002	6.66082E-001	3.57720E+000	9	...........
	16	0.226667	6.54134E-001	-9.88020E-005	0.00000E+000	-6.46298E-005	-5.99601E-002	6.54383E-001	3.57720E+000	9	...........
	17	0.24	6.42361E-001	-9.93667E-005	0.00000E+000	-6.38293E-005	-5.99601E-002	6.42612E-001	3.57720E+000	9	...........
	18	0.253333	6.30472E-001	-9.90041E-005	0.00000E+000	-6.24193E-005	-5.99601E-002	6.30729E-001	3.57720E+000	9	...........
	19	0.266667	6.18550E-001	-9.84904E-005	0.00000E+000	-6.09213E-005	-5.99601E-002	6.18804E-001	3.57720E+000	9	...........
	20	0.28	6.06488E-001	-9.88884E-005	0.00000E+000	-5.99747E-005	-5.99601E-002	6.06762E-001	3.57720E+000	9	...........
	21	0.293333	5.94442E-001	-9.87645E-005	0.00000E+000	-5.87098E-005	-5.99601E-002	5.94716E-001	3.57720E+000	9	...........
	22	0.306667	5.82298E-001	-9.85832E-005	0.00000E+000	-5.74048E-005	-5.99601E-002	5.82572E-001	3.57720E+000	9	...........
	23	0.32	5.70177E-001	-9.82487E-005	0.00000E+000	-5.60192E-005	-5.99601E-002	5.70431E-001	3.57720E+000	9	...........
	24	0.333333	5.57941E-001	-9.82987E-005	0.00000E+000	-5.48449E-005	-5.99601E-002	5.58205E-001	3.57720E+000	9	...........
	25	0.346667	5.45749E-001	-9.88249E-005	0.00000E+000	-5.39336E-005	-5.99601E-002	5.45992E-001	3.57720E+000	9	...........
	26	0.36	5.33509E-001	-9.84248E-005	0.00000E+000	-5.25105E-005	-5.99601E-002	5.33747E-001	3.57720E+000	9	...........
	27	0.373333	5.21277E-001	-9.90218E-005	0.00000E+000	-5.16178E-005	-5.99601E-002	5.21515E-001	3.57720E+000	9	...........
	28	0.386667	5.09023E-001	-9.87186E-005	0.00000E+000	-5.02501E-005	-5.99601E-002	5.09286E-001	3.57720E+000	9	...........
	29	0.4	4.96785E-001	-9.85227E-005	0.00000E+000	-4.89446E-005	-5.99601E-002	4.97045E-001	3.57720E+000	9	...........
	30	0.413333	4.84724E-001	-9.89260E-005	0.00000E+000	-4.79518E-005	-5.99601E-002	4.84891E-001	3.57720E+000	9	...........
	31	0.426667	4.72681E-001	-9.79820E-005	0.00000E+000	-4.63142E-005	-5.99601E-002	4.72782E-001	3.57720E+000	9	...........
	32	0.44	4.60483E-001	-9.88311E-005	0.00000E+000	-4.55101E-005	-5.99601E-002	4.60578E-001	3.57720E+000	9	...........
	33	0.453333	4.48305E-001	-9.90927E-005	0.00000E+000	-4.44237E-005	-5.99601E-002	4.48402E-001	3.57720E+000	9	...........
	34	0.466667	4.36150E-001	-9.82466E-005	0.00000E+000	-4.28503E-005	-5.99601E-002	4.36242E-001	3.57720E+000	9	...........
	35	0.48	4.24012E-001	-9.82248E-005	0.00000E+000	-4.16485E-005	-5.99601E-002	4.24107E-001	3.57720E+000	9	...........
	36	0.493333	4.11909E-001	-9.88687E-005	0.00000E+000	-4.07249E-005	-5.99601E-002	4.11999E-001	3.57720E+000	9	...........
	37	0.506667	3.99825E-001	-9.87311E-005	0.00000E+000	-3.94752E-005	-5.99601E-002	3.99906E-001	3.57720E+000	9	...........
	38	0.52	3.87763E-001	-9.89614E-005	0.00000E+000	-3.83735E-005	-5.99601E-002	3.87843E-001	3.57720E+000	9	...........
	39	0.533333	3.75724E-001	-9.93917E-005	0.00000E+000	-3.73438E-005	-5.99601E-002	3.75792E-001	3.57720E+000	9	...........
	40	0.546667	3.63696E-001	-9.85217E-005	0.00000E+000	-3.58320E-005	-5.99601E-002	3.63766E-001	3.57720E+000	9	...........
	41	0.56	3.51687E-001	-9.94459E-005	0.00000E+000	-3.49738E-005	-5.99601E-002	3.51752E-001	3.57720E+000	9	...........
	42	0.573333	3.39692E-001	-9.96803E-005	0.00000E+000	-3.38606E-005	-5.99601E-002	3.39754E-001	3.57720E+000	9	...........
	43	0.586667	3.27714E-001	-9.83206E-005	0.00000E+000	-3.22210E-005	-5.99601E-002	3.27774E-001	3.57720E+000	9	...........
	44	0.6	3.15737E-001	-9.79080E-005	0.00000E+000	-3.09132E-005	-5.99601E-002	3.15792E-001	3.57720E+000	9	...........
	45	0.613333	3.03753E-001	-9.79101E-005	0.00000E+000	-2.97404E-005	-5.99601E-002	3.03811E-001	3.57720E+000	9	...........
	46	0.626667	2.91766E-001	-9.90208E-005	0.00000E+000	-2.88909E-005	-5.99601E-002	2.91819E-001	3.57720E+000	9	...........
	47	0.64	2.79774E-001	-9.87738E-005	0.00000E+000	-2.76344E-005	-5.99601E-002	2.79826E-001	3.57720E+000	9	...........
	48	0.653333	2.67777E-001	-9.82154E-005	0.00000E+000	-2.62998E-005	-5.99601E-002	2.67830E-001	3.57720E+000	9	...........
	49	0.666667	2.55770E-001	-9.93969E-005	0.00000E+000	-2.54227E-005	-5.99601E-002	2.55818E-001	3.57720E+000	9	...........
	50	0.68	2.43764E-001	-9.85478E-005	0.00000E+000	-2.40224E-005	-5.99601E-002	2.43806E-001	3.57720E+000	9	...........
	51	0.693333	2.31747E-001	-9.91635E-005	0.00000E+000	-2.29809E-005	-5.99601E-002	2.31789E-001	3.57720E+000	9	...........
	52	0.706667	2.19733E-001	-9.88301E-005	0.00000E+000	-2.17162E-005	-5.99601E-002	2.19771E-001	3.57720E+000	9	...........
	53	0.72	2.07709E-001	-9.93385E-005	0.00000E+000	-2.06335E-005	-5.99601E-002	2.07749E-001	3.57720E+000	9	...........
	54	0.733333	1.95694E-001	-9.92198E-005	0.00000E+000	-1.94167E-005	-5.99601E-002	1.95732E-001	3.57720E+000	9	...........
	55	0.746667	1.83690E-001	-9.97147E-005	0.00000E+000	-1.83165E-005	-5.99601E-002	1.83728E-001	3.57720E+000	9	...........
	56	0.76	1.71687E-001	-9.94761E-005	0.00000E+000	-1.70788E-005	-5.99601E-002	1.71721E-001	3.57720E+000	9	...........
	57	0.773333	1.59717E-001	-9.81029E-005	0.00000E+000	-1.56687E-005	-5.99601E-002	1.59744E-001	3.57720E+000	9	...........
	58	0.786667	1.47755E-001	-9.81716E-005	0.00000E+000	-1.45054E-005	-5.99601E-002	1.47789E-001	3.57720E+000	9	...........
	59	0.8	1.35825E-001	-9.91979E-005	0.00000E+000	-1.34735E-005	-5.99601E-002	1.35845E-001	3.57720E+000	9	...........
	60	0.813333	1.23931E-001	-9.87603E-005	0.00000E+000	-1.22394E-005	-5.99601E-002	1.23955E-001	3.57720E+000	9	...........
	61	0.826667	1.12074E-001	-9.83654E-005	0.00000E+000	-1.10243E-005	-5.99601E-002	1.12094E-001	3.57720E+000	9	...........
	62	0.84	1.00263E-001	-9.89374E-005	0.00000E+000	-9.91975E-006	-5.99601E-002	1.00280E-001	3.57720E+000	9	...........
	63	0.853333	8.85115E-002	-9.94865E-005	0.00000E+000	-8.80570E-006	-5.99601E-002	8.85276E-002	3.57720E+000	9	...........
	64	0.866667	7.68457E-002	-9.83863E-005	0.00000E+000	-7.56056E-006	-5.99601E-002	7.68535E-002	3.57720E+000	9	...........
	65	0.88	6.52542E-002	-9.92354E-005	0.00000E+000	-6.47552E-006	-5.99601E-002	6.52586E-002	3.57720E+000	9	...........
	66	0.893333	5.37465E-002	-9.90322E-005	0.00000E+000	-5.32264E-006	-5.99601E-002	5.37513E-002	3.57720E+000	9	...........
	67	0.906667	4.23800E-002	-9.88905E-005	0.00000E+000	-4.19098E-006	-5.99601E-002	4.23755E-002	3.57720E+000	9	...........
	68	0.92	3.10949E-002	-9.95292E-005	0.00000E+000	-3.09485E-006	-5.99601E-002	3.10903E-002	3.57720E+000	9	...........
	69	0.933333	1.99404E-002	-9.82602E-005	0.00000E+000	-1.95935E-006	-5.99601E-002	1.99274E-002	3.57720E+000	9	...........
	70	0.946667	8.93483E-003	-9.87405E-005	0.00000E+000	-8.82229E-007	-5.99601E-002	8.92061E-003	3.57720E+000	9	...........
	71	0.95333	7.70815E-004	-9.86561E-005	0.00000E+000	-7.60456E-008	-5.99601E-002	7.47400E-004	3.57720E+000	9	...........
STARTTIMEOFFSET	QUANT	227.5883	Start Time Offset (s)
