EXPLAIN
TAG	PWR800_DISCHARGE
TITLE	LABEL	PWR Cyclic Charge Discharge (Cell) - Discharge Step	Test &Identifier
DATE	LABEL	12-7-2017	Date
TIME	LABEL	16:24:05	Time
NOTES	NOTES	2	&Notes...
	supercap test cell
	6M KOH
PSTAT	PSTAT	IFC5000-01520	Potentiostat
CAPACITY	QUANT	1.00000E-003	Capacity (A-hr)
CELLTYPE	SELECTOR	1	&Cell Type
WORKINGCONNECTION	SELECTOR	0	&Working Lead
MAXDISCHARGETIME	VARIABLEANDUNITS	1.00000E+002	s	1.00000E+002	second(s)	Max &Discharge Time
DISCHARGEMODE	MULTIPARAM	0	1.00000E-004	&Discharge Mode	Constant Current	Amp(s)
SAMPLETIME	QUANT	1.00000E-002	Sa&mple Period (s)
DISCHARGESTOPAT1	MULTIPARAM	3	0.00000E+000	Discharge Stop At &1	Voltage < Limit	V
DISCHARGESTOPAT2	MULTIPARAM	0	0.00000E+000	Discharge Stop At &2	None	N/A
AESBHCSELECTOR	TOGGLE	F	Save Both Half Cells
IRCOMP	TOGGLE	F	IR &Measure
EOC	QUANT	0	Open Circuit (V)
SEQUENCER	TOGGLE	TRUE	Run as Sequence
PSTATMODEL	IQUANT	53	Pstat Model
PSTATSECTION	LABEL	IFC5000-01520	Pstat Section
PSTATSERIALNO	LABEL	01520	Pstat Serial Number
CTRLMODE	IQUANT	0	Control Mode
ELECTROMETER	IQUANT	1	RE=0 or CS=1
IESTAB	IQUANT	0	I/E Stability
CASPEED	IQUANT	4	Control Amp Speed
CONVENTION	IQUANT	1	Current Convention
ICHRANGE	IQUANT	2	Ich Range
ICHRANGEMODE	TOGGLE	T	Ich Auto Range
ICHOFFSETENABLE	TOGGLE	F	Ich Offset Enable
ICHOFFSET	QUANT	0	Ich Offset (V)
ICHFILTER	IQUANT	1	Ich Filter
VCHRANGE	IQUANT	2	Vch Range
VCHRANGEMODE	TOGGLE	T	Vch Auto Range
VCHOFFSETENABLE	TOGGLE	F	Vch Offset Enable
VCHOFFSET	QUANT	0	Vch Offset (V)
VCHFILTER	IQUANT	1	Vch Filter
IERANGELOWERLIMIT	IQUANT	9	I/E Range Lower Limit
IERANGEMODE	TOGGLE	F	I/E AutoRange
IERANGE	IQUANT	9	I/E Range
ACHSELECT	IQUANT	1	Ach Select
ACHRANGE	IQUANT	2	Ach Range
ACHOFFSETENABLE	TOGGLE	F	Ach Offset Enable
ACHOFFSET	QUANT	0	Ach Offset (V)
ACHFILTER	IQUANT	1	Ach Filter
CABLEID	IQUANT	14	Cable ID
DCCALDATE	LABEL	5-7-2017	DC Calibration Date
ACCALDATE	LABEL	12/3/2015	AC Calibration Date
FRAMEWORKVERSION	QUANT	7.01	Framework Version
INSTRUMENTVERSION	LABEL	4.00	Instrument Version
CURVE	TABLE	71
	Pt	T	Vf	Im	Vu	Pwr	Sig	Ach	Temp	IERange	Over
	#	s	V	A	V	W	V	V	deg C	#	bits
	0	0.013333	8.44438E-001	-9.95761E-005	0.00000E+000	-8.40859E-005	-5.99601E-002	8.44753E-001	3.57830E+000	9	...........
	1	0.026667	8.31522E-001	-9.86655E-005	0.00000E+000	-8.20426E-005	-5.99601E-002	8.31818E-001	3.57830E+000	9	...........
	2	0.04	8.19158E-001	-9.78007E-005	0.00000E+000	-8.01142E-005	-5.99601E-002	8.19477E-001	3.57830E+000	9	...........
	3	0.053333	8.07211E-001	-9.77757E-005	0.00000E+000	-7.89256E-005	-5.99601E-002	8.07471E-001	3.57830E+000	9	...........
	4	0.066667	7.95507E-001	-9.94802E-005	0.00000E+000	-7.91372E-005	-5.99601E-002	7.95792E-001	3.57830E+000	9	...........
	5	0.08	7.83992E-001	-9.95594E-005	0.00000E+000	-7.80538E-005	-5.99601E-002	7.84277E-001	3.57830E+000	9	...........
	6	0.093333	7.72664E-001	-9.90072E-005	0.00000E+000	-7.64994E-005	-5.99601E-002	7.72954E-001	3.57830E+000	9	...........
	7	0.106667	7.61483E-001	-9.82248E-005	0.00000E+000	-7.47965E-005	-5.99601E-002	7.61716E-001	3.57830E+000	9	...........
	8	0.12	7.50398E-001	-9.78716E-005	0.00000E+000	-7.34426E-005	-5.99601E-002	7.50665E-001	3.57830E+000	9	...........
	9	0.133333	7.39433E-001	-9.94802E-005	0.00000E+000	-7.35590E-005	-5.99601E-002	7.39704E-001	3.57830E+000	9	...........
	10	0.146667	7.28574E-001	-9.96615E-005	0.00000E+000	-7.26108E-005	-5.99601E-002	7.28823E-001	3.57830E+000	9	...........
	11	0.16	7.17788E-001	-9.84081E-005	0.00000E+000	-7.06362E-005	-5.99601E-002	7.18046E-001	3.57830E+000	9	...........
	12	0.173333	7.07053E-001	-9.90979E-005	0.00000E+000	-7.00674E-005	-5.99601E-002	7.07314E-001	3.57830E+000	9	...........
	13	0.186667	6.96360E-001	-9.98584E-005	0.00000E+000	-6.95374E-005	-5.99601E-002	6.96629E-001	3.57830E+000	9	...........
	14	0.2	6.85680E-001	-9.82591E-005	0.00000E+000	-6.73743E-005	-5.99601E-002	6.85945E-001	3.57830E+000	9	...........
	15	0.213333	6.74951E-001	-9.88864E-005	0.00000E+000	-6.67434E-005	-5.99601E-002	6.75200E-001	3.57830E+000	9	...........
	16	0.226667	6.64143E-001	-9.86186E-005	0.00000E+000	-6.54969E-005	-5.99601E-002	6.64404E-001	3.57830E+000	9	...........
	17	0.24	6.53204E-001	-9.77663E-005	0.00000E+000	-6.38614E-005	-5.99601E-002	6.53438E-001	3.57830E+000	9	...........
	18	0.253333	6.42128E-001	-9.85550E-005	0.00000E+000	-6.32849E-005	-5.99601E-002	6.42369E-001	3.57830E+000	9	...........
	19	0.266667	6.30851E-001	-9.91833E-005	0.00000E+000	-6.25699E-005	-5.99601E-002	6.31104E-001	3.57830E+000	9	...........
	20	0.28	6.19463E-001	-9.87645E-005	0.00000E+000	-6.11809E-005	-5.99601E-002	6.19688E-001	3.57830E+000	9	...........
	21	0.293333	6.07790E-001	-9.93198E-005	0.00000E+000	-6.03656E-005	-5.99601E-002	6.08088E-001	3.57830E+000	9	...........
	22	0.306667	5.96053E-001	-9.83019E-005	0.00000E+000	-5.85931E-005	-5.99601E-002	5.96330E-001	3.57830E+000	9	...........
	23	0.32	5.84136E-001	-9.92990E-005	0.00000E+000	-5.80041E-005	-5.99601E-002	5.84408E-001	3.57830E+000	9	...........
	24	0.333333	5.72103E-001	-9.80143E-005	0.00000E+000	-5.60743E-005	-5.99601E-002	5.72356E-001	3.57830E+000	9	...........
	25	0.346667	5.59903E-001	-9.89499E-005	0.00000E+000	-5.54024E-005	-5.99601E-002	5.60142E-001	3.57830E+000	9	...........
	26	0.36	5.47605E-001	-9.84290E-005	0.00000E+000	-5.39002E-005	-5.99601E-002	5.47845E-001	3.57830E+000	9	...........
	27	0.373333	5.35182E-001	-9.87822E-005	0.00000E+000	-5.28664E-005	-5.99601E-002	5.35437E-001	3.57830E+000	9	...........
	28	0.386667	5.22683E-001	-9.88405E-005	0.00000E+000	-5.16623E-005	-5.99601E-002	5.22931E-001	3.57830E+000	9	...........
	29	0.4	5.10077E-001	-9.87238E-005	0.00000E+000	-5.03568E-005	-5.99601E-002	5.10335E-001	3.57830E+000	9	...........
	30	0.413333	4.97423E-001	-9.92521E-005	0.00000E+000	-4.93702E-005	-5.99601E-002	4.97681E-001	3.57830E+000	9	...........
	31	0.426667	4.84878E-001	-9.86374E-005	0.00000E+000	-4.78271E-005	-5.99601E-002	4.85030E-001	3.57830E+000	9	...........
	32	0.44	4.72259E-001	-9.85821E-005	0.00000E+000	-4.65563E-005	-5.99601E-002	4.72365E-001	3.57830E+000	9	...........
	33	0.453333	4.59436E-001	-9.93813E-005	0.00000E+000	-4.56593E-005	-5.99601E-002	4.59539E-001	3.57830E+000	9	...........
	34	0.466667	4.46591E-001	-9.86363E-005	0.00000E+000	-4.40501E-005	-5.99601E-002	4.46692E-001	3.57830E+000	9	...........
	35	0.48	4.33723E-001	-9.94802E-005	0.00000E+000	-4.31469E-005	-5.99601E-002	4.33820E-001	3.57830E+000	9	...........
	36	0.493333	4.20842E-001	-9.87207E-005	0.00000E+000	-4.15458E-005	-5.99601E-002	4.20939E-001	3.57830E+000	9	...........
	37	0.506667	4.07955E-001	-9.88384E-005	0.00000E+000	-4.03217E-005	-5.99601E-002	4.08048E-001	3.57830E+000	9	...........
	38	0.52	3.95075E-001	-9.91593E-005	0.00000E+000	-3.91754E-005	-5.99601E-002	3.95160E-001	3.57717E+000	9	...........
	39	0.533333	3.82202E-001	-9.81935E-005	0.00000E+000	-3.75297E-005	-5.99601E-002	3.82285E-001	3.57680E+000	9	...........
	40	0.546667	3.69354E-001	-9.83404E-005	0.00000E+000	-3.63224E-005	-5.99601E-002	3.69434E-001	3.57680E+000	9	...........
	41	0.56	3.56530E-001	-9.97595E-005	0.00000E+000	-3.55673E-005	-5.99601E-002	3.56604E-001	3.57680E+000	9	...........
	42	0.573333	3.43733E-001	-9.90812E-005	0.00000E+000	-3.40575E-005	-5.99601E-002	3.43805E-001	3.57680E+000	9	...........
	43	0.586667	3.30970E-001	-9.92187E-005	0.00000E+000	-3.28384E-005	-5.99601E-002	3.31044E-001	3.57680E+000	9	...........
	44	0.6	3.18253E-001	-9.90093E-005	0.00000E+000	-3.15100E-005	-5.99601E-002	3.18323E-001	3.57680E+000	9	...........
	45	0.613333	3.05569E-001	-9.87061E-005	0.00000E+000	-3.01615E-005	-5.99601E-002	3.05633E-001	3.57680E+000	9	...........
	46	0.626667	2.92917E-001	-9.90520E-005	0.00000E+000	-2.90140E-005	-5.99601E-002	2.92976E-001	3.57680E+000	9	...........
	47	0.64	2.80311E-001	-9.86280E-005	0.00000E+000	-2.76465E-005	-5.99601E-002	2.80373E-001	3.57680E+000	9	...........
	48	0.653333	2.67749E-001	-9.92594E-005	0.00000E+000	-2.65765E-005	-5.99601E-002	2.67807E-001	3.57680E+000	9	...........
	49	0.666667	2.55230E-001	-9.92229E-005	0.00000E+000	-2.53246E-005	-5.99601E-002	2.55285E-001	3.57680E+000	9	...........
	50	0.68	2.42740E-001	-1.00512E-004	0.00000E+000	-2.43982E-005	-5.99601E-002	2.42792E-001	3.57680E+000	9	...........
	51	0.693333	2.30282E-001	-9.92573E-005	0.00000E+000	-2.28572E-005	-5.99601E-002	2.30328E-001	3.57680E+000	9	...........
	52	0.706667	2.17861E-001	-9.93375E-005	0.00000E+000	-2.16418E-005	-5.99601E-002	2.17911E-001	3.57680E+000	9	...........
	53	0.72	2.05483E-001	-9.84977E-005	0.00000E+000	-2.02396E-005	-5.99601E-002	2.05524E-001	3.57680E+000	9	...........
	54	0.733333	1.93124E-001	-9.94438E-005	0.00000E+000	-1.92050E-005	-5.99601E-002	1.93168E-001	3.57680E+000	9	...........
	55	0.746667	1.80800E-001	-9.78684E-005	0.00000E+000	-1.76946E-005	-5.99601E-002	1.80841E-001	3.57680E+000	9	...........
	56	0.76	1.68517E-001	-9.96834E-005	0.00000E+000	-1.67984E-005	-5.99601E-002	1.68554E-001	3.57680E+000	9	...........
	57	0.773333	1.56264E-001	-9.92739E-005	0.00000E+000	-1.55130E-005	-5.99601E-002	1.56298E-001	3.57680E+000	9	...........
	58	0.786667	1.44055E-001	-9.82633E-005	0.00000E+000	-1.41553E-005	-5.99601E-002	1.44083E-001	3.57680E+000	9	...........
	59	0.8	1.31896E-001	-9.98261E-005	0.00000E+000	-1.31666E-005	-5.99601E-002	1.31921E-001	3.57680E+000	9	...........
	60	0.813333	1.19791E-001	-9.87686E-005	0.00000E+000	-1.18316E-005	-5.99601E-002	1.19819E-001	3.57680E+000	9	...........
	61	0.826667	1.07747E-001	-9.74506E-005	0.00000E+000	-1.05000E-005	-5.99601E-002	1.07768E-001	3.57680E+000	9	...........
	62	0.84	9.57694E-002	-9.84675E-005	0.00000E+000	-9.43017E-006	-5.99601E-002	9.57870E-002	3.57680E+000	9	...........
	63	0.853333	8.38691E-002	-9.96813E-005	0.00000E+000	-8.36018E-006	-5.99601E-002	8.38876E-002	3.57680E+000	9	...........
	64	0.866667	7.20616E-002	-9.75361E-005	0.00000E+000	-7.02861E-006	-5.99601E-002	7.20702E-002	3.57680E+000	9	...........
	65	0.88	6.03573E-002	-9.88489E-005	0.00000E+000	-5.96625E-006	-5.99601E-002	6.03625E-002	3.57680E+000	9	...........
	66	0.893333	4.87635E-002	-9.84561E-005	0.00000E+000	-4.80106E-006	-5.99601E-002	4.87719E-002	3.57680E+000	9	...........
	67	0.906667	3.72982E-002	-9.91145E-005	0.00000E+000	-3.69679E-006	-5.99601E-002	3.73078E-002	3.57680E+000	9	...........
	68	0.92	2.59563E-002	-9.89270E-005	0.00000E+000	-2.56778E-006	-5.99601E-002	2.59541E-002	3.57680E+000	9	...........
	69	0.933333	1.47463E-002	-9.85290E-005	0.00000E+000	-1.45293E-006	-5.99601E-002	1.47311E-002	3.57680E+000	9	...........
	70	0.946667	3.67671E-003	-9.86280E-005	0.00000E+000	-3.62626E-007	-5.99601E-002	3.65752E-003	3.57680E+000	9	...........
STARTTIMEOFFSET	QUANT	599.6849	Start Time Offset (s)
