EXPLAIN
TAG	PWR800_DISCHARGE
TITLE	LABEL	PWR Cyclic Charge Discharge (Cell) - Discharge Step	Test &Identifier
DATE	LABEL	12-7-2017	Date
TIME	LABEL	16:52:48	Time
NOTES	NOTES	2	&Notes...
	supercap test cell
	6M KOH
PSTAT	PSTAT	IFC5000-01520	Potentiostat
CAPACITY	QUANT	1.00000E-003	Capacity (A-hr)
CELLTYPE	SELECTOR	1	&Cell Type
WORKINGCONNECTION	SELECTOR	0	&Working Lead
MAXDISCHARGETIME	VARIABLEANDUNITS	1.00000E+002	s	1.00000E+002	second(s)	Max &Discharge Time
DISCHARGEMODE	MULTIPARAM	0	1.00000E-004	&Discharge Mode	Constant Current	Amp(s)
SAMPLETIME	QUANT	1.00000E-002	Sa&mple Period (s)
DISCHARGESTOPAT1	MULTIPARAM	3	0.00000E+000	Discharge Stop At &1	Voltage < Limit	V
DISCHARGESTOPAT2	MULTIPARAM	0	0.00000E+000	Discharge Stop At &2	None	N/A
AESBHCSELECTOR	TOGGLE	F	Save Both Half Cells
IRCOMP	TOGGLE	F	IR &Measure
EOC	QUANT	0	Open Circuit (V)
SEQUENCER	TOGGLE	TRUE	Run as Sequence
PSTATMODEL	IQUANT	53	Pstat Model
PSTATSECTION	LABEL	IFC5000-01520	Pstat Section
PSTATSERIALNO	LABEL	01520	Pstat Serial Number
CTRLMODE	IQUANT	0	Control Mode
ELECTROMETER	IQUANT	1	RE=0 or CS=1
IESTAB	IQUANT	0	I/E Stability
CASPEED	IQUANT	4	Control Amp Speed
CONVENTION	IQUANT	1	Current Convention
ICHRANGE	IQUANT	2	Ich Range
ICHRANGEMODE	TOGGLE	T	Ich Auto Range
ICHOFFSETENABLE	TOGGLE	F	Ich Offset Enable
ICHOFFSET	QUANT	0	Ich Offset (V)
ICHFILTER	IQUANT	1	Ich Filter
VCHRANGE	IQUANT	2	Vch Range
VCHRANGEMODE	TOGGLE	T	Vch Auto Range
VCHOFFSETENABLE	TOGGLE	F	Vch Offset Enable
VCHOFFSET	QUANT	0	Vch Offset (V)
VCHFILTER	IQUANT	1	Vch Filter
IERANGELOWERLIMIT	IQUANT	9	I/E Range Lower Limit
IERANGEMODE	TOGGLE	F	I/E AutoRange
IERANGE	IQUANT	9	I/E Range
ACHSELECT	IQUANT	1	Ach Select
ACHRANGE	IQUANT	2	Ach Range
ACHOFFSETENABLE	TOGGLE	F	Ach Offset Enable
ACHOFFSET	QUANT	0	Ach Offset (V)
ACHFILTER	IQUANT	1	Ach Filter
CABLEID	IQUANT	14	Cable ID
DCCALDATE	LABEL	5-7-2017	DC Calibration Date
ACCALDATE	LABEL	12/3/2015	AC Calibration Date
FRAMEWORKVERSION	QUANT	7.01	Framework Version
INSTRUMENTVERSION	LABEL	4.00	Instrument Version
CURVE	TABLE	70
	Pt	T	Vf	Im	Vu	Pwr	Sig	Ach	Temp	IERange	Over
	#	s	V	A	V	W	V	V	deg C	#	bits
	0	0.013333	8.45086E-001	-9.81893E-005	0.00000E+000	-8.29785E-005	-5.99601E-002	8.45386E-001	3.57660E+000	9	...........
	1	0.026667	8.31895E-001	-9.88749E-005	0.00000E+000	-8.22535E-005	-5.99601E-002	8.32196E-001	3.57660E+000	9	...........
	2	0.04	8.19319E-001	-9.89583E-005	0.00000E+000	-8.10784E-005	-5.99601E-002	8.19593E-001	3.57660E+000	9	...........
	3	0.053333	8.07057E-001	-9.80570E-005	0.00000E+000	-7.91376E-005	-5.99601E-002	8.07337E-001	3.57660E+000	9	...........
	4	0.066667	7.95048E-001	-9.76559E-005	0.00000E+000	-7.76411E-005	-5.99601E-002	7.95351E-001	3.57660E+000	9	...........
	5	0.08	7.83270E-001	-9.95646E-005	0.00000E+000	-7.79859E-005	-5.99601E-002	7.83517E-001	3.57660E+000	9	...........
	6	0.093333	7.71613E-001	-9.82175E-005	0.00000E+000	-7.57859E-005	-5.99601E-002	7.71880E-001	3.57660E+000	9	...........
	7	0.106667	7.60075E-001	-9.77590E-005	0.00000E+000	-7.43042E-005	-5.99601E-002	7.60326E-001	3.57660E+000	9	...........
	8	0.12	7.48654E-001	-9.83467E-005	0.00000E+000	-7.36277E-005	-5.99601E-002	7.48911E-001	3.57660E+000	9	...........
	9	0.133333	7.37326E-001	-9.89082E-005	0.00000E+000	-7.29277E-005	-5.99601E-002	7.37554E-001	3.57660E+000	9	...........
	10	0.146667	7.26076E-001	-9.92937E-005	0.00000E+000	-7.20948E-005	-5.99601E-002	7.26318E-001	3.57660E+000	9	...........
	11	0.16	7.14917E-001	-9.70016E-005	0.00000E+000	-6.93481E-005	-5.99601E-002	7.15176E-001	3.57660E+000	9	...........
	12	0.173333	7.03844E-001	-9.77955E-005	0.00000E+000	-6.88328E-005	-5.99601E-002	7.04094E-001	3.57660E+000	9	...........
	13	0.186667	6.92852E-001	-9.91562E-005	0.00000E+000	-6.87006E-005	-5.99601E-002	6.93100E-001	3.57660E+000	9	...........
	14	0.2	6.81932E-001	-9.74913E-005	0.00000E+000	-6.64824E-005	-5.99601E-002	6.82183E-001	3.57660E+000	9	...........
	15	0.213333	6.71078E-001	-9.88061E-005	0.00000E+000	-6.63066E-005	-5.99601E-002	6.71319E-001	3.57660E+000	9	...........
	16	0.226667	6.60259E-001	-9.77684E-005	0.00000E+000	-6.45525E-005	-5.99601E-002	6.60502E-001	3.57660E+000	9	...........
	17	0.24	6.49498E-001	-9.85613E-005	0.00000E+000	-6.40153E-005	-5.99601E-002	6.49731E-001	3.57660E+000	9	...........
	18	0.253333	6.38696E-001	-9.85259E-005	0.00000E+000	-6.29281E-005	-5.99601E-002	6.38933E-001	3.57660E+000	9	...........
	19	0.266667	6.27815E-001	-9.76684E-005	0.00000E+000	-6.13177E-005	-5.99601E-002	6.28063E-001	3.57660E+000	9	...........
	20	0.28	6.16849E-001	-9.90291E-005	0.00000E+000	-6.10860E-005	-5.99601E-002	6.17087E-001	3.57660E+000	9	...........
	21	0.293333	6.05636E-001	-9.80716E-005	0.00000E+000	-5.93957E-005	-5.99601E-002	6.05917E-001	3.57660E+000	9	...........
	22	0.306667	5.94296E-001	-9.78841E-005	0.00000E+000	-5.81721E-005	-5.99601E-002	5.94553E-001	3.57660E+000	9	...........
	23	0.32	5.82708E-001	-9.81664E-005	0.00000E+000	-5.72024E-005	-5.99601E-002	5.82976E-001	3.57660E+000	9	...........
	24	0.333333	5.70961E-001	-9.84446E-005	0.00000E+000	-5.62080E-005	-5.99601E-002	5.71183E-001	3.57660E+000	9	...........
	25	0.346667	5.58964E-001	-9.78799E-005	0.00000E+000	-5.47114E-005	-5.99601E-002	5.59211E-001	3.57660E+000	9	...........
	26	0.36	5.46779E-001	-9.97063E-005	0.00000E+000	-5.45173E-005	-5.99601E-002	5.47006E-001	3.57660E+000	9	...........
	27	0.373333	5.34355E-001	-9.86113E-005	0.00000E+000	-5.26935E-005	-5.99601E-002	5.34621E-001	3.57660E+000	9	...........
	28	0.386667	5.21831E-001	-9.92750E-005	0.00000E+000	-5.18047E-005	-5.99601E-002	5.22041E-001	3.57660E+000	9	...........
	29	0.4	5.09086E-001	-9.84540E-005	0.00000E+000	-5.01215E-005	-5.99601E-002	5.09324E-001	3.57660E+000	9	...........
	30	0.413333	4.96250E-001	-9.93010E-005	0.00000E+000	-4.92781E-005	-5.99601E-002	4.96479E-001	3.57660E+000	9	...........
	31	0.426667	4.83436E-001	-9.95803E-005	0.00000E+000	-4.81407E-005	-5.99601E-002	4.83588E-001	3.57660E+000	9	...........
	32	0.44	4.70488E-001	-9.91896E-005	0.00000E+000	-4.66674E-005	-5.99601E-002	4.70584E-001	3.57660E+000	9	...........
	33	0.453333	4.57298E-001	-9.84592E-005	0.00000E+000	-4.50252E-005	-5.99601E-002	4.57392E-001	3.57660E+000	9	...........
	34	0.466667	4.44030E-001	-9.80435E-005	0.00000E+000	-4.35342E-005	-5.99601E-002	4.44126E-001	3.57660E+000	9	...........
	35	0.48	4.30690E-001	-9.92229E-005	0.00000E+000	-4.27343E-005	-5.99601E-002	4.30780E-001	3.57660E+000	9	...........
	36	0.493333	4.17303E-001	-9.83571E-005	0.00000E+000	-4.10447E-005	-5.99601E-002	4.17393E-001	3.57660E+000	9	...........
	37	0.506667	4.03875E-001	-9.92198E-005	0.00000E+000	-4.00724E-005	-5.99601E-002	4.03952E-001	3.57660E+000	9	...........
	38	0.52	3.90420E-001	-9.91593E-005	0.00000E+000	-3.87138E-005	-5.99601E-002	3.90491E-001	3.57660E+000	9	...........
	39	0.533333	3.76944E-001	-9.69651E-005	0.00000E+000	-3.65504E-005	-5.99601E-002	3.77014E-001	3.57660E+000	9	...........
	40	0.546667	3.63471E-001	-9.95459E-005	0.00000E+000	-3.61820E-005	-5.99601E-002	3.63543E-001	3.57660E+000	9	...........
	41	0.56	3.50008E-001	-9.87009E-005	0.00000E+000	-3.45461E-005	-5.99601E-002	3.50080E-001	3.57660E+000	9	...........
	42	0.573333	3.36561E-001	-9.90593E-005	0.00000E+000	-3.33395E-005	-5.99601E-002	3.36628E-001	3.57660E+000	9	...........
	43	0.586667	3.23144E-001	-9.80351E-005	0.00000E+000	-3.16795E-005	-5.99601E-002	3.23217E-001	3.57660E+000	9	...........
	44	0.6	3.09763E-001	-9.84706E-005	0.00000E+000	-3.05026E-005	-5.99601E-002	3.09829E-001	3.57660E+000	9	...........
	45	0.613333	2.96423E-001	-1.00192E-004	0.00000E+000	-2.96992E-005	-5.99601E-002	2.96482E-001	3.57660E+000	9	...........
	46	0.626667	2.83147E-001	-9.82519E-005	0.00000E+000	-2.78197E-005	-5.99601E-002	2.83204E-001	3.57660E+000	9	...........
	47	0.64	2.69926E-001	-9.87530E-005	0.00000E+000	-2.66560E-005	-5.99601E-002	2.69981E-001	3.57660E+000	9	...........
	48	0.653333	2.56772E-001	-9.87728E-005	0.00000E+000	-2.53621E-005	-5.99601E-002	2.56828E-001	3.57660E+000	9	...........
	49	0.666667	2.43694E-001	-9.85561E-005	0.00000E+000	-2.40175E-005	-5.99601E-002	2.43743E-001	3.57660E+000	9	...........
	50	0.68	2.30683E-001	-9.92250E-005	0.00000E+000	-2.28895E-005	-5.99601E-002	2.30727E-001	3.57660E+000	9	...........
	51	0.693333	2.17747E-001	-9.88134E-005	0.00000E+000	-2.15163E-005	-5.99601E-002	2.17785E-001	3.57660E+000	9	...........
	52	0.706667	2.04895E-001	-9.88353E-005	0.00000E+000	-2.02509E-005	-5.99601E-002	2.04931E-001	3.57660E+000	9	...........
	53	0.72	1.92118E-001	-9.77257E-005	0.00000E+000	-1.87748E-005	-5.99601E-002	1.92153E-001	3.57660E+000	9	...........
	54	0.733333	1.79413E-001	-9.93896E-005	0.00000E+000	-1.78317E-005	-5.99601E-002	1.79447E-001	3.57660E+000	9	...........
	55	0.746667	1.66787E-001	-9.92739E-005	0.00000E+000	-1.65576E-005	-5.99601E-002	1.66819E-001	3.57660E+000	9	...........
	56	0.76	1.54241E-001	-9.84259E-005	0.00000E+000	-1.51813E-005	-5.99601E-002	1.54268E-001	3.57660E+000	9	...........
	57	0.773333	1.41777E-001	-9.85623E-005	0.00000E+000	-1.39739E-005	-5.99601E-002	1.41800E-001	3.57660E+000	9	...........
	58	0.786667	1.29382E-001	-9.92427E-005	0.00000E+000	-1.28402E-005	-5.99601E-002	1.29406E-001	3.57660E+000	9	...........
	59	0.8	1.17072E-001	-9.79362E-005	0.00000E+000	-1.14656E-005	-5.99601E-002	1.17100E-001	3.57660E+000	9	...........
	60	0.813333	1.04852E-001	-9.86978E-005	0.00000E+000	-1.03487E-005	-5.99601E-002	1.04872E-001	3.57660E+000	9	...........
	61	0.826667	9.27321E-002	-9.85832E-005	0.00000E+000	-9.14182E-006	-5.99601E-002	9.27458E-002	3.57660E+000	9	...........
	62	0.84	8.07070E-002	-9.80956E-005	0.00000E+000	-7.91700E-006	-5.99601E-002	8.07241E-002	3.57660E+000	9	...........
	63	0.853333	6.88067E-002	-9.83810E-005	0.00000E+000	-6.76927E-006	-5.99601E-002	6.88133E-002	3.57660E+000	9	...........
	64	0.866667	5.70309E-002	-9.82529E-005	0.00000E+000	-5.60345E-006	-5.99601E-002	5.70353E-002	3.57660E+000	9	...........
	65	0.88	4.54162E-002	-9.97167E-005	0.00000E+000	-4.52876E-006	-5.99601E-002	4.54208E-002	3.57660E+000	9	...........
	66	0.893333	3.39482E-002	-9.95886E-005	0.00000E+000	-3.38085E-006	-5.99601E-002	3.39506E-002	3.57660E+000	9	...........
	67	0.906667	2.26276E-002	-9.90385E-005	0.00000E+000	-2.24100E-006	-5.99601E-002	2.26200E-002	3.57660E+000	9	...........
	68	0.92	1.14708E-002	-9.72173E-005	0.00000E+000	-1.11516E-006	-5.99601E-002	1.14549E-002	3.57660E+000	9	...........
	69	0.928333	2.53003E-003	-9.85186E-005	0.00000E+000	-2.49255E-007	-5.99601E-002	2.51506E-003	3.57660E+000	9	...........
STARTTIMEOFFSET	QUANT	1822.185	Start Time Offset (s)
