EXPLAIN
TAG	PWR800_DISCHARGE
TITLE	LABEL	PWR Cyclic Charge Discharge (Cell) - Discharge Step	Test &Identifier
DATE	LABEL	12-7-2017	Date
TIME	LABEL	16:11:38	Time
NOTES	NOTES	2	&Notes...
	supercap test cell
	6M KOH
PSTAT	PSTAT	IFC5000-01520	Potentiostat
CAPACITY	QUANT	1.00000E-003	Capacity (A-hr)
CELLTYPE	SELECTOR	1	&Cell Type
WORKINGCONNECTION	SELECTOR	0	&Working Lead
MAXDISCHARGETIME	VARIABLEANDUNITS	1.00000E+002	s	1.00000E+002	second(s)	Max &Discharge Time
DISCHARGEMODE	MULTIPARAM	0	1.00000E-004	&Discharge Mode	Constant Current	Amp(s)
SAMPLETIME	QUANT	1.00000E-002	Sa&mple Period (s)
DISCHARGESTOPAT1	MULTIPARAM	3	0.00000E+000	Discharge Stop At &1	Voltage < Limit	V
DISCHARGESTOPAT2	MULTIPARAM	0	0.00000E+000	Discharge Stop At &2	None	N/A
AESBHCSELECTOR	TOGGLE	F	Save Both Half Cells
IRCOMP	TOGGLE	F	IR &Measure
EOC	QUANT	0	Open Circuit (V)
SEQUENCER	TOGGLE	TRUE	Run as Sequence
PSTATMODEL	IQUANT	53	Pstat Model
PSTATSECTION	LABEL	IFC5000-01520	Pstat Section
PSTATSERIALNO	LABEL	01520	Pstat Serial Number
CTRLMODE	IQUANT	0	Control Mode
ELECTROMETER	IQUANT	1	RE=0 or CS=1
IESTAB	IQUANT	0	I/E Stability
CASPEED	IQUANT	4	Control Amp Speed
CONVENTION	IQUANT	1	Current Convention
ICHRANGE	IQUANT	2	Ich Range
ICHRANGEMODE	TOGGLE	T	Ich Auto Range
ICHOFFSETENABLE	TOGGLE	F	Ich Offset Enable
ICHOFFSET	QUANT	0	Ich Offset (V)
ICHFILTER	IQUANT	1	Ich Filter
VCHRANGE	IQUANT	2	Vch Range
VCHRANGEMODE	TOGGLE	T	Vch Auto Range
VCHOFFSETENABLE	TOGGLE	F	Vch Offset Enable
VCHOFFSET	QUANT	0	Vch Offset (V)
VCHFILTER	IQUANT	1	Vch Filter
IERANGELOWERLIMIT	IQUANT	9	I/E Range Lower Limit
IERANGEMODE	TOGGLE	F	I/E AutoRange
IERANGE	IQUANT	9	I/E Range
ACHSELECT	IQUANT	1	Ach Select
ACHRANGE	IQUANT	2	Ach Range
ACHOFFSETENABLE	TOGGLE	F	Ach Offset Enable
ACHOFFSET	QUANT	0	Ach Offset (V)
ACHFILTER	IQUANT	1	Ach Filter
CABLEID	IQUANT	14	Cable ID
DCCALDATE	LABEL	5-7-2017	DC Calibration Date
ACCALDATE	LABEL	12/3/2015	AC Calibration Date
FRAMEWORKVERSION	QUANT	7.01	Framework Version
INSTRUMENTVERSION	LABEL	4.00	Instrument Version
CURVE	TABLE	74
	Pt	T	Vf	Im	Vu	Pwr	Sig	Ach	Temp	IERange	Over
	#	s	V	A	V	W	V	V	deg C	#	bits
	0	0.013333	8.39167E-001	-9.88478E-005	0.00000E+000	-8.29498E-005	-5.99601E-002	8.39470E-001	3.57860E+000	9	...........
	1	0.026667	8.25937E-001	-9.87988E-005	0.00000E+000	-8.16016E-005	-5.99601E-002	8.26237E-001	3.57860E+000	9	...........
	2	0.04	8.13253E-001	-9.92104E-005	0.00000E+000	-8.06832E-005	-5.99601E-002	8.13525E-001	3.57860E+000	9	...........
	3	0.053333	8.00931E-001	-9.82977E-005	0.00000E+000	-7.87297E-005	-5.99601E-002	8.01192E-001	3.57860E+000	9	...........
	4	0.066667	7.88795E-001	-9.94615E-005	0.00000E+000	-7.84548E-005	-5.99601E-002	7.89094E-001	3.57860E+000	9	...........
	5	0.08	7.76842E-001	-9.85061E-005	0.00000E+000	-7.65237E-005	-5.99601E-002	7.77126E-001	3.57860E+000	9	...........
	6	0.093333	7.64979E-001	-9.89645E-005	0.00000E+000	-7.57058E-005	-5.99601E-002	7.65234E-001	3.57860E+000	9	...........
	7	0.106667	7.53139E-001	-9.80966E-005	0.00000E+000	-7.38803E-005	-5.99601E-002	7.53401E-001	3.57860E+000	9	...........
	8	0.12	7.41287E-001	-9.90176E-005	0.00000E+000	-7.34005E-005	-5.99601E-002	7.41568E-001	3.57860E+000	9	...........
	9	0.133333	7.29481E-001	-9.86530E-005	0.00000E+000	-7.19655E-005	-5.99601E-002	7.29724E-001	3.57860E+000	9	...........
	10	0.146667	7.17595E-001	-9.86165E-005	0.00000E+000	-7.07668E-005	-5.99601E-002	7.17880E-001	3.57860E+000	9	...........
	11	0.16	7.05732E-001	-9.87884E-005	0.00000E+000	-6.97182E-005	-5.99601E-002	7.06005E-001	3.57860E+000	9	...........
	12	0.173333	6.93857E-001	-9.77622E-005	0.00000E+000	-6.78329E-005	-5.99601E-002	6.94125E-001	3.57860E+000	9	...........
	13	0.186667	6.81993E-001	-9.83196E-005	0.00000E+000	-6.70533E-005	-5.99601E-002	6.82219E-001	3.57860E+000	9	...........
	14	0.2	6.70099E-001	-9.82154E-005	0.00000E+000	-6.58140E-005	-5.99601E-002	6.70348E-001	3.57860E+000	9	...........
	15	0.213333	6.58191E-001	-9.85384E-005	0.00000E+000	-6.48571E-005	-5.99601E-002	6.58440E-001	3.57860E+000	9	...........
	16	0.226667	6.46300E-001	-9.83988E-005	0.00000E+000	-6.35951E-005	-5.99601E-002	6.46549E-001	3.57860E+000	9	...........
	17	0.24	6.34383E-001	-9.79393E-005	0.00000E+000	-6.21311E-005	-5.99601E-002	6.34643E-001	3.57860E+000	9	...........
	18	0.253333	6.22528E-001	-9.89103E-005	0.00000E+000	-6.15744E-005	-5.99601E-002	6.22759E-001	3.57860E+000	9	...........
	19	0.266667	6.10628E-001	-9.75382E-005	0.00000E+000	-5.95596E-005	-5.99601E-002	6.10903E-001	3.57860E+000	9	...........
	20	0.28	5.98817E-001	-9.92427E-005	0.00000E+000	-5.94282E-005	-5.99601E-002	5.99058E-001	3.57860E+000	9	...........
	21	0.293333	5.86997E-001	-9.93115E-005	0.00000E+000	-5.82955E-005	-5.99601E-002	5.87263E-001	3.57860E+000	9	...........
	22	0.306667	5.75227E-001	-9.82935E-005	0.00000E+000	-5.65410E-005	-5.99601E-002	5.75502E-001	3.57860E+000	9	...........
	23	0.32	5.63538E-001	-9.80174E-005	0.00000E+000	-5.52366E-005	-5.99601E-002	5.63762E-001	3.57860E+000	9	...........
	24	0.333333	5.51830E-001	-9.80060E-005	0.00000E+000	-5.40827E-005	-5.99601E-002	5.52067E-001	3.57860E+000	9	...........
	25	0.346667	5.40200E-001	-9.86321E-005	0.00000E+000	-5.32811E-005	-5.99601E-002	5.40420E-001	3.57860E+000	9	...........
	26	0.36	5.28576E-001	-9.91573E-005	0.00000E+000	-5.24121E-005	-5.99601E-002	5.28820E-001	3.57860E+000	9	...........
	27	0.373333	5.17078E-001	-9.80133E-005	0.00000E+000	-5.06805E-005	-5.99601E-002	5.17274E-001	3.57860E+000	9	...........
	28	0.386667	5.05512E-001	-9.85082E-005	0.00000E+000	-4.97971E-005	-5.99601E-002	5.05774E-001	3.57860E+000	9	...........
	29	0.4	4.94075E-001	-9.86217E-005	0.00000E+000	-4.87266E-005	-5.99601E-002	4.94305E-001	3.57860E+000	9	...........
	30	0.413333	4.82855E-001	-9.87603E-005	0.00000E+000	-4.76869E-005	-5.99601E-002	4.82997E-001	3.57860E+000	9	...........
	31	0.426667	4.71590E-001	-9.93531E-005	0.00000E+000	-4.68539E-005	-5.99601E-002	4.71691E-001	3.57860E+000	9	...........
	32	0.44	4.60253E-001	-9.95365E-005	0.00000E+000	-4.58120E-005	-5.99601E-002	4.60348E-001	3.57860E+000	9	...........
	33	0.453333	4.48941E-001	-9.86894E-005	0.00000E+000	-4.43057E-005	-5.99601E-002	4.49038E-001	3.57860E+000	9	...........
	34	0.466667	4.37666E-001	-9.91229E-005	0.00000E+000	-4.33827E-005	-5.99601E-002	4.37756E-001	3.57730E+000	9	...........
	35	0.48	4.26413E-001	-9.87509E-005	0.00000E+000	-4.21086E-005	-5.99601E-002	4.26494E-001	3.57730E+000	9	...........
	36	0.493333	4.15169E-001	-9.89197E-005	0.00000E+000	-4.10684E-005	-5.99601E-002	4.15254E-001	3.57730E+000	9	...........
	37	0.506667	4.03949E-001	-9.91625E-005	0.00000E+000	-4.00566E-005	-5.99601E-002	4.04027E-001	3.57730E+000	9	...........
	38	0.52	3.92721E-001	-9.81352E-005	0.00000E+000	-3.85398E-005	-5.99601E-002	3.92796E-001	3.57730E+000	9	...........
	39	0.533333	3.81494E-001	-9.88937E-005	0.00000E+000	-3.77273E-005	-5.99601E-002	3.81563E-001	3.57730E+000	9	...........
	40	0.546667	3.70255E-001	-9.89239E-005	0.00000E+000	-3.66270E-005	-5.99601E-002	3.70325E-001	3.57730E+000	9	...........
	41	0.56	3.58996E-001	-9.83394E-005	0.00000E+000	-3.53035E-005	-5.99601E-002	3.59066E-001	3.57730E+000	9	...........
	42	0.573333	3.47732E-001	-9.81560E-005	0.00000E+000	-3.41319E-005	-5.99601E-002	3.47801E-001	3.57730E+000	9	...........
	43	0.586667	3.36437E-001	-9.92833E-005	0.00000E+000	-3.34026E-005	-5.99601E-002	3.36505E-001	3.57730E+000	9	...........
	44	0.6	3.25132E-001	-9.86519E-005	0.00000E+000	-3.20749E-005	-5.99601E-002	3.25197E-001	3.57730E+000	9	...........
	45	0.613333	3.13804E-001	-9.84248E-005	0.00000E+000	-3.08861E-005	-5.99601E-002	3.13861E-001	3.57730E+000	9	...........
	46	0.626667	3.02447E-001	-9.91041E-005	0.00000E+000	-2.99737E-005	-5.99601E-002	3.02505E-001	3.57730E+000	9	...........
	47	0.64	2.91066E-001	-9.91625E-005	0.00000E+000	-2.88628E-005	-5.99601E-002	2.91126E-001	3.57730E+000	9	...........
	48	0.653333	2.79670E-001	-9.84904E-005	0.00000E+000	-2.75449E-005	-5.99601E-002	2.79724E-001	3.57730E+000	9	...........
	49	0.666667	2.68258E-001	-9.89249E-005	0.00000E+000	-2.65374E-005	-5.99601E-002	2.68314E-001	3.57730E+000	9	...........
	50	0.68	2.56820E-001	-9.83456E-005	0.00000E+000	-2.52572E-005	-5.99601E-002	2.56873E-001	3.57730E+000	9	...........
	51	0.693333	2.45382E-001	-9.89166E-005	0.00000E+000	-2.42724E-005	-5.99601E-002	2.45422E-001	3.57730E+000	9	...........
	52	0.706667	2.33920E-001	-9.82112E-005	0.00000E+000	-2.29736E-005	-5.99601E-002	2.33958E-001	3.57730E+000	9	...........
	53	0.72	2.22445E-001	-9.92135E-005	0.00000E+000	-2.20696E-005	-5.99601E-002	2.22483E-001	3.57730E+000	9	...........
	54	0.733333	2.10971E-001	-9.86874E-005	0.00000E+000	-2.08202E-005	-5.99601E-002	2.11003E-001	3.57730E+000	9	...........
	55	0.746667	1.99477E-001	-9.83560E-005	0.00000E+000	-1.96198E-005	-5.99601E-002	1.99514E-001	3.57730E+000	9	...........
	56	0.76	1.87989E-001	-9.86676E-005	0.00000E+000	-1.85484E-005	-5.99601E-002	1.88023E-001	3.57730E+000	9	...........
	57	0.773333	1.76511E-001	-9.85123E-005	0.00000E+000	-1.73885E-005	-5.99601E-002	1.76540E-001	3.57730E+000	9	...........
	58	0.786667	1.65043E-001	-9.79893E-005	0.00000E+000	-1.61725E-005	-5.99601E-002	1.65066E-001	3.57730E+000	9	...........
	59	0.8	1.53583E-001	-9.81664E-005	0.00000E+000	-1.50767E-005	-5.99601E-002	1.53609E-001	3.57730E+000	9	...........
	60	0.813333	1.42147E-001	-9.84113E-005	0.00000E+000	-1.39889E-005	-5.99601E-002	1.42171E-001	3.57730E+000	9	...........
	61	0.826667	1.30745E-001	-9.94834E-005	0.00000E+000	-1.30069E-005	-5.99601E-002	1.30766E-001	3.57730E+000	9	...........
	62	0.84	1.19389E-001	-9.88364E-005	0.00000E+000	-1.18000E-005	-5.99601E-002	1.19405E-001	3.57730E+000	9	...........
	63	0.853333	1.08088E-001	-9.96094E-005	0.00000E+000	-1.07666E-005	-5.99601E-002	1.08102E-001	3.57730E+000	9	...........
	64	0.866667	9.68448E-002	-9.90364E-005	0.00000E+000	-9.59116E-006	-5.99601E-002	9.68620E-002	3.57730E+000	9	...........
	65	0.88	8.56856E-002	-9.86144E-005	0.00000E+000	-8.44983E-006	-5.99601E-002	8.56958E-002	3.57730E+000	9	...........
	66	0.893333	7.45997E-002	-9.89562E-005	0.00000E+000	-7.38210E-006	-5.99601E-002	7.46108E-002	3.57730E+000	9	...........
	67	0.906667	6.36109E-002	-9.84102E-005	0.00000E+000	-6.25997E-006	-5.99601E-002	6.36126E-002	3.57730E+000	9	...........
	68	0.92	5.27256E-002	-9.88634E-005	0.00000E+000	-5.21263E-006	-5.99601E-002	5.27281E-002	3.57730E+000	9	...........
	69	0.933333	4.19921E-002	-9.78434E-005	0.00000E+000	-4.10865E-006	-5.99601E-002	4.19929E-002	3.57730E+000	9	...........
	70	0.946667	3.13460E-002	-9.86488E-005	0.00000E+000	-3.09225E-006	-5.99601E-002	3.13407E-002	3.57730E+000	9	...........
	71	0.96	2.08342E-002	-9.81987E-005	0.00000E+000	-2.04590E-006	-5.99601E-002	2.08197E-002	3.57730E+000	9	...........
	72	0.97333	1.04582E-002	-9.91677E-005	0.00000E+000	-1.03712E-006	-5.99601E-002	1.04443E-002	3.57730E+000	9	...........
	73	0.98167	2.13974E-003	-9.88820E-005	0.00000E+000	-2.11582E-007	-5.99601E-002	2.12021E-003	3.57730E+000	9	...........
STARTTIMEOFFSET	QUANT	66.12334	Start Time Offset (s)
