EXPLAIN
TAG	PWR800_DISCHARGE
TITLE	LABEL	PWR Cyclic Charge Discharge (Cell) - Discharge Step	Test &Identifier
DATE	LABEL	12-7-2017	Date
TIME	LABEL	16:52:26	Time
NOTES	NOTES	2	&Notes...
	supercap test cell
	6M KOH
PSTAT	PSTAT	IFC5000-01520	Potentiostat
CAPACITY	QUANT	1.00000E-003	Capacity (A-hr)
CELLTYPE	SELECTOR	1	&Cell Type
WORKINGCONNECTION	SELECTOR	0	&Working Lead
MAXDISCHARGETIME	VARIABLEANDUNITS	1.00000E+002	s	1.00000E+002	second(s)	Max &Discharge Time
DISCHARGEMODE	MULTIPARAM	0	1.00000E-004	&Discharge Mode	Constant Current	Amp(s)
SAMPLETIME	QUANT	1.00000E-002	Sa&mple Period (s)
DISCHARGESTOPAT1	MULTIPARAM	3	0.00000E+000	Discharge Stop At &1	Voltage < Limit	V
DISCHARGESTOPAT2	MULTIPARAM	0	0.00000E+000	Discharge Stop At &2	None	N/A
AESBHCSELECTOR	TOGGLE	F	Save Both Half Cells
IRCOMP	TOGGLE	F	IR &Measure
EOC	QUANT	0	Open Circuit (V)
SEQUENCER	TOGGLE	TRUE	Run as Sequence
PSTATMODEL	IQUANT	53	Pstat Model
PSTATSECTION	LABEL	IFC5000-01520	Pstat Section
PSTATSERIALNO	LABEL	01520	Pstat Serial Number
CTRLMODE	IQUANT	0	Control Mode
ELECTROMETER	IQUANT	1	RE=0 or CS=1
IESTAB	IQUANT	0	I/E Stability
CASPEED	IQUANT	4	Control Amp Speed
CONVENTION	IQUANT	1	Current Convention
ICHRANGE	IQUANT	2	Ich Range
ICHRANGEMODE	TOGGLE	T	Ich Auto Range
ICHOFFSETENABLE	TOGGLE	F	Ich Offset Enable
ICHOFFSET	QUANT	0	Ich Offset (V)
ICHFILTER	IQUANT	1	Ich Filter
VCHRANGE	IQUANT	2	Vch Range
VCHRANGEMODE	TOGGLE	T	Vch Auto Range
VCHOFFSETENABLE	TOGGLE	F	Vch Offset Enable
VCHOFFSET	QUANT	0	Vch Offset (V)
VCHFILTER	IQUANT	1	Vch Filter
IERANGELOWERLIMIT	IQUANT	9	I/E Range Lower Limit
IERANGEMODE	TOGGLE	F	I/E AutoRange
IERANGE	IQUANT	9	I/E Range
ACHSELECT	IQUANT	1	Ach Select
ACHRANGE	IQUANT	2	Ach Range
ACHOFFSETENABLE	TOGGLE	F	Ach Offset Enable
ACHOFFSET	QUANT	0	Ach Offset (V)
ACHFILTER	IQUANT	1	Ach Filter
CABLEID	IQUANT	14	Cable ID
DCCALDATE	LABEL	5-7-2017	DC Calibration Date
ACCALDATE	LABEL	12/3/2015	AC Calibration Date
FRAMEWORKVERSION	QUANT	7.01	Framework Version
INSTRUMENTVERSION	LABEL	4.00	Instrument Version
CURVE	TABLE	70
	Pt	T	Vf	Im	Vu	Pwr	Sig	Ach	Temp	IERange	Over
	#	s	V	A	V	W	V	V	deg C	#	bits
	0	0.013333	8.44767E-001	-9.90624E-005	0.00000E+000	-8.36847E-005	-5.99601E-002	8.45068E-001	3.57670E+000	9	...........
	1	0.026667	8.31553E-001	-9.85915E-005	0.00000E+000	-8.19840E-005	-5.99601E-002	8.31825E-001	3.57670E+000	9	...........
	2	0.04	8.18898E-001	-9.87936E-005	0.00000E+000	-8.09019E-005	-5.99601E-002	8.19160E-001	3.57670E+000	9	...........
	3	0.053333	8.06623E-001	-9.80529E-005	0.00000E+000	-7.90917E-005	-5.99601E-002	8.06882E-001	3.57670E+000	9	...........
	4	0.066667	7.94628E-001	-9.88020E-005	0.00000E+000	-7.85108E-005	-5.99601E-002	7.94888E-001	3.57670E+000	9	...........
	5	0.08	7.82803E-001	-9.82383E-005	0.00000E+000	-7.69013E-005	-5.99601E-002	7.83034E-001	3.57670E+000	9	...........
	6	0.093333	7.71149E-001	-9.87197E-005	0.00000E+000	-7.61276E-005	-5.99601E-002	7.71374E-001	3.57670E+000	9	...........
	7	0.106667	7.59606E-001	-9.90426E-005	0.00000E+000	-7.52334E-005	-5.99601E-002	7.59821E-001	3.57670E+000	9	...........
	8	0.12	7.48168E-001	-9.89530E-005	0.00000E+000	-7.40335E-005	-5.99601E-002	7.48391E-001	3.57670E+000	9	...........
	9	0.133333	7.36811E-001	-9.93177E-005	0.00000E+000	-7.31784E-005	-5.99601E-002	7.37056E-001	3.57670E+000	9	...........
	10	0.146667	7.25571E-001	-9.82664E-005	0.00000E+000	-7.12993E-005	-5.99601E-002	7.25793E-001	3.57670E+000	9	...........
	11	0.16	7.14410E-001	-9.85009E-005	0.00000E+000	-7.03700E-005	-5.99601E-002	7.14641E-001	3.57670E+000	9	...........
	12	0.173333	7.03320E-001	-1.00105E-004	0.00000E+000	-7.04061E-005	-5.99601E-002	7.03577E-001	3.57670E+000	9	...........
	13	0.186667	6.92330E-001	-9.83852E-005	0.00000E+000	-6.81150E-005	-5.99601E-002	6.92562E-001	3.57670E+000	9	...........
	14	0.2	6.81400E-001	-9.91802E-005	0.00000E+000	-6.75813E-005	-5.99601E-002	6.81618E-001	3.57670E+000	9	...........
	15	0.213333	6.70564E-001	-9.69287E-005	0.00000E+000	-6.49969E-005	-5.99601E-002	6.70769E-001	3.57670E+000	9	...........
	16	0.226667	6.59733E-001	-9.79289E-005	0.00000E+000	-6.46069E-005	-5.99601E-002	6.59956E-001	3.57670E+000	9	...........
	17	0.24	6.48974E-001	-9.76173E-005	0.00000E+000	-6.33511E-005	-5.99601E-002	6.49179E-001	3.57670E+000	9	...........
	18	0.253333	6.38156E-001	-9.87634E-005	0.00000E+000	-6.30265E-005	-5.99601E-002	6.38383E-001	3.57670E+000	9	...........
	19	0.266667	6.27273E-001	-9.88968E-005	0.00000E+000	-6.20353E-005	-5.99601E-002	6.27487E-001	3.57670E+000	9	...........
	20	0.28	6.16285E-001	-9.83373E-005	0.00000E+000	-6.06038E-005	-5.99601E-002	6.16488E-001	3.57670E+000	9	...........
	21	0.293333	6.05066E-001	-1.00147E-004	0.00000E+000	-6.05956E-005	-5.99601E-002	6.05319E-001	3.57670E+000	9	...........
	22	0.306667	5.93717E-001	-9.92500E-005	0.00000E+000	-5.89264E-005	-5.99601E-002	5.93956E-001	3.57670E+000	9	...........
	23	0.32	5.82105E-001	-9.83081E-005	0.00000E+000	-5.72257E-005	-5.99601E-002	5.82377E-001	3.57670E+000	9	...........
	24	0.333333	5.70336E-001	-9.93635E-005	0.00000E+000	-5.66706E-005	-5.99601E-002	5.70551E-001	3.57670E+000	9	...........
	25	0.346667	5.58297E-001	-9.84331E-005	0.00000E+000	-5.49549E-005	-5.99601E-002	5.58535E-001	3.57670E+000	9	...........
	26	0.36	5.46112E-001	-9.82404E-005	0.00000E+000	-5.36503E-005	-5.99601E-002	5.46292E-001	3.57670E+000	9	...........
	27	0.373333	5.33697E-001	-9.86603E-005	0.00000E+000	-5.26547E-005	-5.99601E-002	5.33872E-001	3.57670E+000	9	...........
	28	0.386667	5.21134E-001	-9.80726E-005	0.00000E+000	-5.11090E-005	-5.99601E-002	5.21321E-001	3.57670E+000	9	...........
	29	0.4	5.08384E-001	-9.94511E-005	0.00000E+000	-5.05594E-005	-5.99601E-002	5.08609E-001	3.57670E+000	9	...........
	30	0.413333	4.95531E-001	-9.82112E-005	0.00000E+000	-4.86667E-005	-5.99601E-002	4.95751E-001	3.57670E+000	9	...........
	31	0.426667	4.82751E-001	-9.84988E-005	0.00000E+000	-4.75504E-005	-5.99601E-002	4.82856E-001	3.57670E+000	9	...........
	32	0.44	4.69754E-001	-9.95052E-005	0.00000E+000	-4.67430E-005	-5.99601E-002	4.69851E-001	3.57670E+000	9	...........
	33	0.453333	4.56562E-001	-9.92406E-005	0.00000E+000	-4.53095E-005	-5.99601E-002	4.56658E-001	3.57670E+000	9	...........
	34	0.466667	4.43292E-001	-9.89582E-005	0.00000E+000	-4.38674E-005	-5.99601E-002	4.43385E-001	3.57670E+000	9	...........
	35	0.48	4.29957E-001	-9.72558E-005	0.00000E+000	-4.18158E-005	-5.99601E-002	4.30047E-001	3.57670E+000	9	...........
	36	0.493333	4.16555E-001	-9.81945E-005	0.00000E+000	-4.09034E-005	-5.99601E-002	4.16645E-001	3.57670E+000	9	...........
	37	0.506667	4.03124E-001	-9.92083E-005	0.00000E+000	-3.99932E-005	-5.99601E-002	4.03205E-001	3.57670E+000	9	...........
	38	0.52	3.89672E-001	-9.69808E-005	0.00000E+000	-3.77907E-005	-5.99601E-002	3.89753E-001	3.57670E+000	9	...........
	39	0.533333	3.76205E-001	-9.73704E-005	0.00000E+000	-3.66312E-005	-5.99601E-002	3.76282E-001	3.57670E+000	9	...........
	40	0.546667	3.62732E-001	-9.89270E-005	0.00000E+000	-3.58840E-005	-5.99601E-002	3.62807E-001	3.57670E+000	9	...........
	41	0.56	3.49269E-001	-9.86248E-005	0.00000E+000	-3.44466E-005	-5.99601E-002	3.49337E-001	3.57670E+000	9	...........
	42	0.573333	3.35830E-001	-9.93833E-005	0.00000E+000	-3.33759E-005	-5.99601E-002	3.35902E-001	3.57670E+000	9	...........
	43	0.586667	3.22430E-001	-9.99095E-005	0.00000E+000	-3.22139E-005	-5.99601E-002	3.22498E-001	3.57670E+000	9	...........
	44	0.6	3.09065E-001	-9.86092E-005	0.00000E+000	-3.04767E-005	-5.99601E-002	3.09137E-001	3.57670E+000	9	...........
	45	0.613333	2.95730E-001	-9.76153E-005	0.00000E+000	-2.88678E-005	-5.99601E-002	2.95794E-001	3.57670E+000	9	...........
	46	0.626667	2.82463E-001	-9.86988E-005	0.00000E+000	-2.78788E-005	-5.99601E-002	2.82524E-001	3.57693E+000	9	...........
	47	0.64	2.69252E-001	-9.80299E-005	0.00000E+000	-2.63948E-005	-5.99601E-002	2.69313E-001	3.57780E+000	9	...........
	48	0.653333	2.56115E-001	-9.83071E-005	0.00000E+000	-2.51779E-005	-5.99601E-002	2.56171E-001	3.57780E+000	9	...........
	49	0.666667	2.43046E-001	-9.83727E-005	0.00000E+000	-2.39091E-005	-5.99601E-002	2.43094E-001	3.57780E+000	9	...........
	50	0.68	2.30043E-001	-9.83300E-005	0.00000E+000	-2.26201E-005	-5.99601E-002	2.30096E-001	3.57780E+000	9	...........
	51	0.693333	2.17110E-001	-9.77309E-005	0.00000E+000	-2.12184E-005	-5.99601E-002	2.17156E-001	3.57780E+000	9	...........
	52	0.706667	2.04260E-001	-9.91979E-005	0.00000E+000	-2.02622E-005	-5.99601E-002	2.04296E-001	3.57780E+000	9	...........
	53	0.72	1.91479E-001	-9.88614E-005	0.00000E+000	-1.89299E-005	-5.99601E-002	1.91517E-001	3.57780E+000	9	...........
	54	0.733333	1.78780E-001	-9.80956E-005	0.00000E+000	-1.75375E-005	-5.99601E-002	1.78811E-001	3.57780E+000	9	...........
	55	0.746667	1.66159E-001	-9.86644E-005	0.00000E+000	-1.63939E-005	-5.99601E-002	1.66190E-001	3.57780E+000	9	...........
	56	0.76	1.53623E-001	-9.77247E-005	0.00000E+000	-1.50127E-005	-5.99601E-002	1.53648E-001	3.57780E+000	9	...........
	57	0.773333	1.41151E-001	-9.84852E-005	0.00000E+000	-1.39013E-005	-5.99601E-002	1.41175E-001	3.57780E+000	9	...........
	58	0.786667	1.28760E-001	-9.89030E-005	0.00000E+000	-1.27347E-005	-5.99601E-002	1.28780E-001	3.57780E+000	9	...........
	59	0.8	1.16460E-001	-9.85967E-005	0.00000E+000	-1.14826E-005	-5.99601E-002	1.16481E-001	3.57780E+000	9	...........
	60	0.813333	1.04252E-001	-9.84831E-005	0.00000E+000	-1.02671E-005	-5.99601E-002	1.04273E-001	3.57780E+000	9	...........
	61	0.826667	9.21375E-002	-9.84446E-005	0.00000E+000	-9.07044E-006	-5.99601E-002	9.21527E-002	3.57780E+000	9	...........
	62	0.84	8.01280E-002	-9.81425E-005	0.00000E+000	-7.86395E-006	-5.99601E-002	8.01399E-002	3.57780E+000	9	...........
	63	0.853333	6.82323E-002	-9.79059E-005	0.00000E+000	-6.68035E-006	-5.99601E-002	6.82402E-002	3.57780E+000	9	...........
	64	0.866667	5.64663E-002	-1.00049E-004	0.00000E+000	-5.64940E-006	-5.99601E-002	5.64751E-002	3.57780E+000	9	...........
	65	0.88	4.48769E-002	-9.88551E-005	0.00000E+000	-4.43631E-006	-5.99601E-002	4.48831E-002	3.57780E+000	9	...........
	66	0.893333	3.34085E-002	-9.92646E-005	0.00000E+000	-3.31628E-006	-5.99601E-002	3.34096E-002	3.57780E+000	9	...........
	67	0.906667	2.21031E-002	-9.76882E-005	0.00000E+000	-2.15921E-006	-5.99601E-002	2.20950E-002	3.57780E+000	9	...........
	68	0.92	1.09464E-002	-9.90926E-005	0.00000E+000	-1.08471E-006	-5.99601E-002	1.09329E-002	3.57780E+000	9	...........
	69	0.928333	2.02129E-003	-9.80201E-005	0.00000E+000	-1.98127E-007	-5.99601E-002	1.99419E-003	3.57780E+000	9	...........
STARTTIMEOFFSET	QUANT	1806.887	Start Time Offset (s)
