EXPLAIN
TAG	PWR800_DISCHARGE
TITLE	LABEL	PWR Cyclic Charge Discharge (Cell) - Discharge Step	Test &Identifier
DATE	LABEL	12-7-2017	Date
TIME	LABEL	16:33:48	Time
NOTES	NOTES	2	&Notes...
	supercap test cell
	6M KOH
PSTAT	PSTAT	IFC5000-01520	Potentiostat
CAPACITY	QUANT	1.00000E-003	Capacity (A-hr)
CELLTYPE	SELECTOR	1	&Cell Type
WORKINGCONNECTION	SELECTOR	0	&Working Lead
MAXDISCHARGETIME	VARIABLEANDUNITS	1.00000E+002	s	1.00000E+002	second(s)	Max &Discharge Time
DISCHARGEMODE	MULTIPARAM	0	1.00000E-004	&Discharge Mode	Constant Current	Amp(s)
SAMPLETIME	QUANT	1.00000E-002	Sa&mple Period (s)
DISCHARGESTOPAT1	MULTIPARAM	3	0.00000E+000	Discharge Stop At &1	Voltage < Limit	V
DISCHARGESTOPAT2	MULTIPARAM	0	0.00000E+000	Discharge Stop At &2	None	N/A
AESBHCSELECTOR	TOGGLE	F	Save Both Half Cells
IRCOMP	TOGGLE	F	IR &Measure
EOC	QUANT	0	Open Circuit (V)
SEQUENCER	TOGGLE	TRUE	Run as Sequence
PSTATMODEL	IQUANT	53	Pstat Model
PSTATSECTION	LABEL	IFC5000-01520	Pstat Section
PSTATSERIALNO	LABEL	01520	Pstat Serial Number
CTRLMODE	IQUANT	0	Control Mode
ELECTROMETER	IQUANT	1	RE=0 or CS=1
IESTAB	IQUANT	0	I/E Stability
CASPEED	IQUANT	4	Control Amp Speed
CONVENTION	IQUANT	1	Current Convention
ICHRANGE	IQUANT	2	Ich Range
ICHRANGEMODE	TOGGLE	T	Ich Auto Range
ICHOFFSETENABLE	TOGGLE	F	Ich Offset Enable
ICHOFFSET	QUANT	0	Ich Offset (V)
ICHFILTER	IQUANT	1	Ich Filter
VCHRANGE	IQUANT	2	Vch Range
VCHRANGEMODE	TOGGLE	T	Vch Auto Range
VCHOFFSETENABLE	TOGGLE	F	Vch Offset Enable
VCHOFFSET	QUANT	0	Vch Offset (V)
VCHFILTER	IQUANT	1	Vch Filter
IERANGELOWERLIMIT	IQUANT	9	I/E Range Lower Limit
IERANGEMODE	TOGGLE	F	I/E AutoRange
IERANGE	IQUANT	9	I/E Range
ACHSELECT	IQUANT	1	Ach Select
ACHRANGE	IQUANT	2	Ach Range
ACHOFFSETENABLE	TOGGLE	F	Ach Offset Enable
ACHOFFSET	QUANT	0	Ach Offset (V)
ACHFILTER	IQUANT	1	Ach Filter
CABLEID	IQUANT	14	Cable ID
DCCALDATE	LABEL	5-7-2017	DC Calibration Date
ACCALDATE	LABEL	12/3/2015	AC Calibration Date
FRAMEWORKVERSION	QUANT	7.01	Framework Version
INSTRUMENTVERSION	LABEL	4.00	Instrument Version
CURVE	TABLE	71
	Pt	T	Vf	Im	Vu	Pwr	Sig	Ach	Temp	IERange	Over
	#	s	V	A	V	W	V	V	deg C	#	bits
	0	0.013333	8.45389E-001	-9.91833E-005	0.00000E+000	-8.38485E-005	-5.99601E-002	8.45639E-001	3.57810E+000	9	...........
	1	0.026667	8.32345E-001	-9.88426E-005	0.00000E+000	-8.22712E-005	-5.99601E-002	8.32580E-001	3.57810E+000	9	...........
	2	0.04	8.19868E-001	-9.91083E-005	0.00000E+000	-8.12557E-005	-5.99601E-002	8.20106E-001	3.57810E+000	9	...........
	3	0.053333	8.07779E-001	-9.84884E-005	0.00000E+000	-7.95568E-005	-5.99601E-002	8.07996E-001	3.57810E+000	9	...........
	4	0.066667	7.95964E-001	-9.96084E-005	0.00000E+000	-7.92847E-005	-5.99601E-002	7.96192E-001	3.57810E+000	9	...........
	5	0.08	7.84348E-001	-9.92917E-005	0.00000E+000	-7.78792E-005	-5.99601E-002	7.84549E-001	3.57810E+000	9	...........
	6	0.093333	7.72903E-001	-9.99470E-005	0.00000E+000	-7.72494E-005	-5.99601E-002	7.73124E-001	3.57810E+000	9	...........
	7	0.106667	7.61575E-001	-9.73121E-005	0.00000E+000	-7.41105E-005	-5.99601E-002	7.61780E-001	3.57810E+000	9	...........
	8	0.12	7.50369E-001	-9.87009E-005	0.00000E+000	-7.40621E-005	-5.99601E-002	7.50585E-001	3.57810E+000	9	...........
	9	0.133333	7.39238E-001	-9.98449E-005	0.00000E+000	-7.38092E-005	-5.99601E-002	7.39485E-001	3.57810E+000	9	...........
	10	0.146667	7.28263E-001	-9.96292E-005	0.00000E+000	-7.25563E-005	-5.99601E-002	7.28475E-001	3.57810E+000	9	...........
	11	0.16	7.17313E-001	-9.84634E-005	0.00000E+000	-7.06290E-005	-5.99601E-002	7.17560E-001	3.57810E+000	9	...........
	12	0.173333	7.06466E-001	-9.86571E-005	0.00000E+000	-6.96979E-005	-5.99601E-002	7.06713E-001	3.57810E+000	9	...........
	13	0.186667	6.95707E-001	-9.92302E-005	0.00000E+000	-6.90352E-005	-5.99601E-002	6.95942E-001	3.57810E+000	9	...........
	14	0.2	6.84980E-001	-9.98147E-005	0.00000E+000	-6.83710E-005	-5.99601E-002	6.85229E-001	3.57810E+000	9	...........
	15	0.213333	6.74364E-001	-9.91479E-005	0.00000E+000	-6.68618E-005	-5.99601E-002	6.74584E-001	3.57810E+000	9	...........
	16	0.226667	6.63662E-001	-9.90604E-005	0.00000E+000	-6.57426E-005	-5.99601E-002	6.63950E-001	3.57810E+000	9	...........
	17	0.24	6.52985E-001	-9.75840E-005	0.00000E+000	-6.37209E-005	-5.99601E-002	6.53254E-001	3.57810E+000	9	...........
	18	0.253333	6.42214E-001	-1.00136E-004	0.00000E+000	-6.43084E-005	-5.99601E-002	6.42497E-001	3.57810E+000	9	...........
	19	0.266667	6.31324E-001	-9.82623E-005	0.00000E+000	-6.20353E-005	-5.99601E-002	6.31569E-001	3.57810E+000	9	...........
	20	0.28	6.20281E-001	-9.86019E-005	0.00000E+000	-6.11609E-005	-5.99601E-002	6.20528E-001	3.57810E+000	9	...........
	21	0.293333	6.08984E-001	-9.85780E-005	0.00000E+000	-6.00324E-005	-5.99601E-002	6.09266E-001	3.57810E+000	9	...........
	22	0.306667	5.97560E-001	-9.86728E-005	0.00000E+000	-5.89629E-005	-5.99601E-002	5.97830E-001	3.57810E+000	9	...........
	23	0.32	5.85933E-001	-9.81164E-005	0.00000E+000	-5.74896E-005	-5.99601E-002	5.86207E-001	3.57810E+000	9	...........
	24	0.333333	5.74102E-001	-9.84977E-005	0.00000E+000	-5.65478E-005	-5.99601E-002	5.74353E-001	3.57810E+000	9	...........
	25	0.346667	5.62110E-001	-9.96959E-005	0.00000E+000	-5.60401E-005	-5.99601E-002	5.62336E-001	3.57810E+000	9	...........
	26	0.36	5.49895E-001	-9.95740E-005	0.00000E+000	-5.47552E-005	-5.99601E-002	5.50151E-001	3.57810E+000	9	...........
	27	0.373333	5.37605E-001	-9.85936E-005	0.00000E+000	-5.30044E-005	-5.99601E-002	5.37839E-001	3.57810E+000	9	...........
	28	0.386667	5.25103E-001	-9.89874E-005	0.00000E+000	-5.19786E-005	-5.99601E-002	5.25339E-001	3.57810E+000	9	...........
	29	0.4	5.12517E-001	-9.85644E-005	0.00000E+000	-5.05160E-005	-5.99601E-002	5.12738E-001	3.57810E+000	9	...........
	30	0.413333	4.99744E-001	-9.83279E-005	0.00000E+000	-4.91387E-005	-5.99601E-002	5.00000E-001	3.57810E+000	9	...........
	31	0.426667	4.87023E-001	-9.91260E-005	0.00000E+000	-4.82766E-005	-5.99601E-002	4.87221E-001	3.57810E+000	9	...........
	32	0.44	4.74340E-001	-9.87384E-005	0.00000E+000	-4.68355E-005	-5.99601E-002	4.74444E-001	3.57810E+000	9	...........
	33	0.453333	4.61344E-001	-9.98470E-005	0.00000E+000	-4.60638E-005	-5.99601E-002	4.61448E-001	3.57810E+000	9	...........
	34	0.466667	4.48285E-001	-9.80081E-005	0.00000E+000	-4.39355E-005	-5.99601E-002	4.48383E-001	3.57810E+000	9	...........
	35	0.48	4.35181E-001	-9.85373E-005	0.00000E+000	-4.28815E-005	-5.99601E-002	4.35281E-001	3.57810E+000	9	...........
	36	0.493333	4.22038E-001	-9.82529E-005	0.00000E+000	-4.14664E-005	-5.99601E-002	4.22131E-001	3.57810E+000	9	...........
	37	0.506667	4.08872E-001	-9.78236E-005	0.00000E+000	-3.99973E-005	-5.99601E-002	4.08958E-001	3.57810E+000	9	...........
	38	0.52	3.95685E-001	-1.00252E-004	0.00000E+000	-3.96683E-005	-5.99601E-002	3.95764E-001	3.57810E+000	9	...........
	39	0.533333	3.82491E-001	-9.93010E-005	0.00000E+000	-3.79818E-005	-5.99601E-002	3.82570E-001	3.57791E+000	9	...........
	40	0.546667	3.69307E-001	-9.97157E-005	0.00000E+000	-3.68257E-005	-5.99601E-002	3.69376E-001	3.57660E+000	9	...........
	41	0.56	3.56135E-001	-9.94677E-005	0.00000E+000	-3.54239E-005	-5.99601E-002	3.56204E-001	3.57660E+000	9	...........
	42	0.573333	3.42987E-001	-9.88384E-005	0.00000E+000	-3.39003E-005	-5.99601E-002	3.43060E-001	3.57660E+000	9	...........
	43	0.586667	3.29877E-001	-9.79382E-005	0.00000E+000	-3.23075E-005	-5.99601E-002	3.29948E-001	3.57660E+000	9	...........
	44	0.6	3.16806E-001	-1.00073E-004	0.00000E+000	-3.17037E-005	-5.99601E-002	3.16870E-001	3.57660E+000	9	...........
	45	0.613333	3.03775E-001	-9.89353E-005	0.00000E+000	-3.00541E-005	-5.99601E-002	3.03839E-001	3.57660E+000	9	...........
	46	0.626667	2.90792E-001	-9.81852E-005	0.00000E+000	-2.85515E-005	-5.99601E-002	2.90851E-001	3.57660E+000	9	...........
	47	0.64	2.77863E-001	-9.85728E-005	0.00000E+000	-2.73897E-005	-5.99601E-002	2.77923E-001	3.57660E+000	9	...........
	48	0.653333	2.64998E-001	-9.95427E-005	0.00000E+000	-2.63786E-005	-5.99601E-002	2.65058E-001	3.57660E+000	9	...........
	49	0.666667	2.52192E-001	-9.85478E-005	0.00000E+000	-2.48529E-005	-5.99601E-002	2.52245E-001	3.57660E+000	9	...........
	50	0.68	2.39439E-001	-9.97813E-005	0.00000E+000	-2.38916E-005	-5.99601E-002	2.39489E-001	3.57660E+000	9	...........
	51	0.693333	2.26751E-001	-9.88437E-005	0.00000E+000	-2.24129E-005	-5.99601E-002	2.26792E-001	3.57660E+000	9	...........
	52	0.706667	2.14126E-001	-9.81112E-005	0.00000E+000	-2.10081E-005	-5.99601E-002	2.14167E-001	3.57660E+000	9	...........
	53	0.72	2.01549E-001	-9.88166E-005	0.00000E+000	-1.99164E-005	-5.99601E-002	2.01590E-001	3.57660E+000	9	...........
	54	0.733333	1.89040E-001	-9.78091E-005	0.00000E+000	-1.84898E-005	-5.99601E-002	1.89076E-001	3.57660E+000	9	...........
	55	0.746667	1.76578E-001	-9.86769E-005	0.00000E+000	-1.74242E-005	-5.99601E-002	1.76616E-001	3.57660E+000	9	...........
	56	0.76	1.64183E-001	-9.75392E-005	0.00000E+000	-1.60143E-005	-5.99601E-002	1.64211E-001	3.57660E+000	9	...........
	57	0.773333	1.51829E-001	-9.87301E-005	0.00000E+000	-1.49901E-005	-5.99601E-002	1.51857E-001	3.57660E+000	9	...........
	58	0.786667	1.39549E-001	-9.84686E-005	0.00000E+000	-1.37412E-005	-5.99601E-002	1.39567E-001	3.57660E+000	9	...........
	59	0.8	1.27320E-001	-9.85967E-005	0.00000E+000	-1.25534E-005	-5.99601E-002	1.27342E-001	3.57660E+000	9	...........
	60	0.813333	1.15159E-001	-9.91864E-005	0.00000E+000	-1.14222E-005	-5.99601E-002	1.15179E-001	3.57660E+000	9	...........
	61	0.826667	1.03081E-001	-9.95980E-005	0.00000E+000	-1.02667E-005	-5.99601E-002	1.03096E-001	3.57660E+000	9	...........
	62	0.84	9.10821E-002	-9.91781E-005	0.00000E+000	-9.03335E-006	-5.99601E-002	9.10956E-002	3.57660E+000	9	...........
	63	0.853333	7.91856E-002	-9.86342E-005	0.00000E+000	-7.81041E-006	-5.99601E-002	7.91989E-002	3.57660E+000	9	...........
	64	0.866667	6.73990E-002	-1.00563E-004	0.00000E+000	-6.77783E-006	-5.99601E-002	6.74070E-002	3.57660E+000	9	...........
	65	0.88	5.57216E-002	-9.91062E-005	0.00000E+000	-5.52236E-006	-5.99601E-002	5.57252E-002	3.57660E+000	9	...........
	66	0.893333	4.41909E-002	-9.97657E-005	0.00000E+000	-4.40874E-006	-5.99601E-002	4.41960E-002	3.57660E+000	9	...........
	67	0.906667	3.27858E-002	-9.78132E-005	0.00000E+000	-3.20688E-006	-5.99601E-002	3.27858E-002	3.57660E+000	9	...........
	68	0.92	2.15149E-002	-9.91124E-005	0.00000E+000	-2.13240E-006	-5.99601E-002	2.15122E-002	3.57660E+000	9	...........
	69	0.933333	1.04015E-002	-9.85759E-005	0.00000E+000	-1.02533E-006	-5.99601E-002	1.03846E-002	3.57660E+000	9	...........
	70	0.941667	1.47767E-003	-9.95521E-005	0.00000E+000	-1.47106E-007	-5.99601E-002	1.46203E-003	3.57660E+000	9	...........
STARTTIMEOFFSET	QUANT	1015.266	Start Time Offset (s)
