EXPLAIN
TAG	PWR800_DISCHARGE
TITLE	LABEL	PWR Cyclic Charge Discharge (Cell) - Discharge Step	Test &Identifier
DATE	LABEL	12-7-2017	Date
TIME	LABEL	16:27:56	Time
NOTES	NOTES	2	&Notes...
	supercap test cell
	6M KOH
PSTAT	PSTAT	IFC5000-01520	Potentiostat
CAPACITY	QUANT	1.00000E-003	Capacity (A-hr)
CELLTYPE	SELECTOR	1	&Cell Type
WORKINGCONNECTION	SELECTOR	0	&Working Lead
MAXDISCHARGETIME	VARIABLEANDUNITS	1.00000E+002	s	1.00000E+002	second(s)	Max &Discharge Time
DISCHARGEMODE	MULTIPARAM	0	1.00000E-004	&Discharge Mode	Constant Current	Amp(s)
SAMPLETIME	QUANT	1.00000E-002	Sa&mple Period (s)
DISCHARGESTOPAT1	MULTIPARAM	3	0.00000E+000	Discharge Stop At &1	Voltage < Limit	V
DISCHARGESTOPAT2	MULTIPARAM	0	0.00000E+000	Discharge Stop At &2	None	N/A
AESBHCSELECTOR	TOGGLE	F	Save Both Half Cells
IRCOMP	TOGGLE	F	IR &Measure
EOC	QUANT	0	Open Circuit (V)
SEQUENCER	TOGGLE	TRUE	Run as Sequence
PSTATMODEL	IQUANT	53	Pstat Model
PSTATSECTION	LABEL	IFC5000-01520	Pstat Section
PSTATSERIALNO	LABEL	01520	Pstat Serial Number
CTRLMODE	IQUANT	0	Control Mode
ELECTROMETER	IQUANT	1	RE=0 or CS=1
IESTAB	IQUANT	0	I/E Stability
CASPEED	IQUANT	4	Control Amp Speed
CONVENTION	IQUANT	1	Current Convention
ICHRANGE	IQUANT	2	Ich Range
ICHRANGEMODE	TOGGLE	T	Ich Auto Range
ICHOFFSETENABLE	TOGGLE	F	Ich Offset Enable
ICHOFFSET	QUANT	0	Ich Offset (V)
ICHFILTER	IQUANT	1	Ich Filter
VCHRANGE	IQUANT	2	Vch Range
VCHRANGEMODE	TOGGLE	T	Vch Auto Range
VCHOFFSETENABLE	TOGGLE	F	Vch Offset Enable
VCHOFFSET	QUANT	0	Vch Offset (V)
VCHFILTER	IQUANT	1	Vch Filter
IERANGELOWERLIMIT	IQUANT	9	I/E Range Lower Limit
IERANGEMODE	TOGGLE	F	I/E AutoRange
IERANGE	IQUANT	9	I/E Range
ACHSELECT	IQUANT	1	Ach Select
ACHRANGE	IQUANT	2	Ach Range
ACHOFFSETENABLE	TOGGLE	F	Ach Offset Enable
ACHOFFSET	QUANT	0	Ach Offset (V)
ACHFILTER	IQUANT	1	Ach Filter
CABLEID	IQUANT	14	Cable ID
DCCALDATE	LABEL	5-7-2017	DC Calibration Date
ACCALDATE	LABEL	12/3/2015	AC Calibration Date
FRAMEWORKVERSION	QUANT	7.01	Framework Version
INSTRUMENTVERSION	LABEL	4.00	Instrument Version
CURVE	TABLE	71
	Pt	T	Vf	Im	Vu	Pwr	Sig	Ach	Temp	IERange	Over
	#	s	V	A	V	W	V	V	deg C	#	bits
	0	0.013333	8.46742E-001	-9.82331E-005	0.00000E+000	-8.31781E-005	-5.99601E-002	8.47051E-001	3.57740E+000	9	...........
	1	0.026667	8.33726E-001	-9.98324E-005	0.00000E+000	-8.32328E-005	-5.99601E-002	8.34050E-001	3.57740E+000	9	...........
	2	0.04	8.21356E-001	-9.81727E-005	0.00000E+000	-8.06347E-005	-5.99601E-002	8.21653E-001	3.57740E+000	9	...........
	3	0.053333	8.09326E-001	-9.95834E-005	0.00000E+000	-8.05954E-005	-5.99601E-002	8.09612E-001	3.57740E+000	9	...........
	4	0.066667	7.97590E-001	-9.73527E-005	0.00000E+000	-7.76475E-005	-5.99601E-002	7.97873E-001	3.57740E+000	9	...........
	5	0.08	7.86014E-001	-9.88499E-005	0.00000E+000	-7.76974E-005	-5.99601E-002	7.86319E-001	3.57740E+000	9	...........
	6	0.093333	7.74643E-001	-9.92666E-005	0.00000E+000	-7.68962E-005	-5.99601E-002	7.74930E-001	3.57740E+000	9	...........
	7	0.106667	7.63389E-001	-9.98616E-005	0.00000E+000	-7.62332E-005	-5.99601E-002	7.63689E-001	3.57740E+000	9	...........
	8	0.12	7.52246E-001	-9.94511E-005	0.00000E+000	-7.48116E-005	-5.99601E-002	7.52522E-001	3.57740E+000	9	...........
	9	0.133333	7.41200E-001	-9.84727E-005	0.00000E+000	-7.29880E-005	-5.99601E-002	7.41489E-001	3.57740E+000	9	...........
	10	0.146667	7.30280E-001	-9.87728E-005	0.00000E+000	-7.21318E-005	-5.99601E-002	7.30543E-001	3.57740E+000	9	...........
	11	0.16	7.19432E-001	-9.82112E-005	0.00000E+000	-7.06563E-005	-5.99601E-002	7.19711E-001	3.57740E+000	9	...........
	12	0.173333	7.08632E-001	-9.94417E-005	0.00000E+000	-7.04676E-005	-5.99601E-002	7.08918E-001	3.57740E+000	9	...........
	13	0.186667	6.97949E-001	-9.80216E-005	0.00000E+000	-6.84141E-005	-5.99601E-002	6.98220E-001	3.57740E+000	9	...........
	14	0.2	6.87284E-001	-9.90374E-005	0.00000E+000	-6.80669E-005	-5.99601E-002	6.87528E-001	3.57740E+000	9	...........
	15	0.213333	6.76621E-001	-9.91250E-005	0.00000E+000	-6.70701E-005	-5.99601E-002	6.76875E-001	3.57670E+000	9	...........
	16	0.226667	6.65923E-001	-9.86978E-005	0.00000E+000	-6.57251E-005	-5.99601E-002	6.66163E-001	3.57670E+000	9	...........
	17	0.24	6.55139E-001	-9.91812E-005	0.00000E+000	-6.49774E-005	-5.99601E-002	6.55378E-001	3.57670E+000	9	...........
	18	0.253333	6.44236E-001	-9.90906E-005	0.00000E+000	-6.38377E-005	-5.99601E-002	6.44494E-001	3.57670E+000	9	...........
	19	0.266667	6.33170E-001	-9.81768E-005	0.00000E+000	-6.21627E-005	-5.99601E-002	6.33421E-001	3.57670E+000	9	...........
	20	0.28	6.21960E-001	-9.81435E-005	0.00000E+000	-6.10413E-005	-5.99601E-002	6.22181E-001	3.57670E+000	9	...........
	21	0.293333	6.10503E-001	-9.92062E-005	0.00000E+000	-6.05657E-005	-5.99601E-002	6.10762E-001	3.57670E+000	9	...........
	22	0.306667	5.98907E-001	-9.91156E-005	0.00000E+000	-5.93610E-005	-5.99601E-002	5.99158E-001	3.57670E+000	9	...........
	23	0.32	5.87123E-001	-9.86853E-005	0.00000E+000	-5.79404E-005	-5.99601E-002	5.87383E-001	3.57670E+000	9	...........
	24	0.333333	5.75178E-001	-9.80331E-005	0.00000E+000	-5.63864E-005	-5.99601E-002	5.75413E-001	3.57670E+000	9	...........
	25	0.346667	5.63075E-001	-9.86290E-005	0.00000E+000	-5.55355E-005	-5.99601E-002	5.63334E-001	3.57670E+000	9	...........
	26	0.36	5.50817E-001	-9.89332E-005	0.00000E+000	-5.44942E-005	-5.99601E-002	5.51066E-001	3.57670E+000	9	...........
	27	0.373333	5.38439E-001	-9.70266E-005	0.00000E+000	-5.22429E-005	-5.99601E-002	5.38680E-001	3.57670E+000	9	...........
	28	0.386667	5.25933E-001	-9.82321E-005	0.00000E+000	-5.16635E-005	-5.99601E-002	5.26175E-001	3.57670E+000	9	...........
	29	0.4	5.13336E-001	-9.76090E-005	0.00000E+000	-5.01062E-005	-5.99601E-002	5.13583E-001	3.57670E+000	9	...........
	30	0.413333	5.00609E-001	-9.90854E-005	0.00000E+000	-4.96030E-005	-5.99601E-002	5.00873E-001	3.57670E+000	9	...........
	31	0.426667	4.87937E-001	-9.97803E-005	0.00000E+000	-4.86865E-005	-5.99601E-002	4.88125E-001	3.57670E+000	9	...........
	32	0.44	4.75329E-001	-1.00281E-004	0.00000E+000	-4.76667E-005	-5.99601E-002	4.75440E-001	3.57670E+000	9	...........
	33	0.453333	4.62418E-001	-9.92875E-005	0.00000E+000	-4.59123E-005	-5.99601E-002	4.62523E-001	3.57670E+000	9	...........
	34	0.466667	4.49460E-001	-9.83529E-005	0.00000E+000	-4.42057E-005	-5.99601E-002	4.49562E-001	3.57670E+000	9	...........
	35	0.48	4.36467E-001	-9.97584E-005	0.00000E+000	-4.35412E-005	-5.99601E-002	4.36564E-001	3.57670E+000	9	...........
	36	0.493333	4.23439E-001	-1.00146E-004	0.00000E+000	-4.24057E-005	-5.99601E-002	4.23537E-001	3.57670E+000	9	...........
	37	0.506667	4.10410E-001	-9.97668E-005	0.00000E+000	-4.09453E-005	-5.99601E-002	4.10496E-001	3.57670E+000	9	...........
	38	0.52	3.97364E-001	-9.99137E-005	0.00000E+000	-3.97021E-005	-5.99601E-002	3.97448E-001	3.57670E+000	9	...........
	39	0.533333	3.84318E-001	-9.86134E-005	0.00000E+000	-3.78989E-005	-5.99601E-002	3.84397E-001	3.57670E+000	9	...........
	40	0.546667	3.71280E-001	-9.99532E-005	0.00000E+000	-3.71106E-005	-5.99601E-002	3.71357E-001	3.57670E+000	9	...........
	41	0.56	3.58277E-001	-9.84936E-005	0.00000E+000	-3.52879E-005	-5.99601E-002	3.58355E-001	3.57670E+000	9	...........
	42	0.573333	3.45298E-001	-9.92594E-005	0.00000E+000	-3.42741E-005	-5.99601E-002	3.45369E-001	3.57670E+000	9	...........
	43	0.586667	3.32349E-001	-9.94240E-005	0.00000E+000	-3.30435E-005	-5.99601E-002	3.32419E-001	3.57670E+000	9	...........
	44	0.6	3.19441E-001	-9.86019E-005	0.00000E+000	-3.14975E-005	-5.99601E-002	3.19511E-001	3.57670E+000	9	...........
	45	0.613333	3.06584E-001	-9.78726E-005	0.00000E+000	-3.00061E-005	-5.99601E-002	3.06648E-001	3.57670E+000	9	...........
	46	0.626667	2.93765E-001	-9.95709E-005	0.00000E+000	-2.92504E-005	-5.99601E-002	2.93822E-001	3.57670E+000	9	...........
	47	0.64	2.80993E-001	-9.87822E-005	0.00000E+000	-2.77571E-005	-5.99601E-002	2.81052E-001	3.57670E+000	9	...........
	48	0.653333	2.68261E-001	-9.98157E-005	0.00000E+000	-2.67767E-005	-5.99601E-002	2.68323E-001	3.57670E+000	9	...........
	49	0.666667	2.55592E-001	-9.90749E-005	0.00000E+000	-2.53228E-005	-5.99601E-002	2.55648E-001	3.57670E+000	9	...........
	50	0.68	2.42970E-001	-9.95344E-005	0.00000E+000	-2.41839E-005	-5.99601E-002	2.43023E-001	3.57670E+000	9	...........
	51	0.693333	2.30393E-001	-9.92844E-005	0.00000E+000	-2.28745E-005	-5.99601E-002	2.30444E-001	3.57670E+000	9	...........
	52	0.706667	2.17865E-001	-9.85040E-005	0.00000E+000	-2.14606E-005	-5.99601E-002	2.17907E-001	3.57670E+000	9	...........
	53	0.72	2.05380E-001	-9.79112E-005	0.00000E+000	-2.01090E-005	-5.99601E-002	2.05426E-001	3.57670E+000	9	...........
	54	0.733333	1.92940E-001	-9.89270E-005	0.00000E+000	-1.90870E-005	-5.99601E-002	1.92982E-001	3.57670E+000	9	...........
	55	0.746667	1.80535E-001	-9.90697E-005	0.00000E+000	-1.78856E-005	-5.99601E-002	1.80579E-001	3.57670E+000	9	...........
	56	0.76	1.68176E-001	-9.81977E-005	0.00000E+000	-1.65145E-005	-5.99601E-002	1.68207E-001	3.57670E+000	9	...........
	57	0.773333	1.55870E-001	-9.65505E-005	0.00000E+000	-1.50493E-005	-5.99601E-002	1.55898E-001	3.57670E+000	9	...........
	58	0.786667	1.43601E-001	-9.92583E-005	0.00000E+000	-1.42536E-005	-5.99601E-002	1.43625E-001	3.57670E+000	9	...........
	59	0.8	1.31395E-001	-9.79403E-005	0.00000E+000	-1.28689E-005	-5.99601E-002	1.31415E-001	3.57670E+000	9	...........
	60	0.813333	1.19237E-001	-9.91177E-005	0.00000E+000	-1.18184E-005	-5.99601E-002	1.19259E-001	3.57670E+000	9	...........
	61	0.826667	1.07155E-001	-9.88061E-005	0.00000E+000	-1.05875E-005	-5.99601E-002	1.07177E-001	3.57670E+000	9	...........
	62	0.84	9.51467E-002	-9.97532E-005	0.00000E+000	-9.49119E-006	-5.99601E-002	9.51656E-002	3.57670E+000	9	...........
	63	0.853333	8.32250E-002	-1.00156E-004	0.00000E+000	-8.33552E-006	-5.99601E-002	8.32363E-002	3.57670E+000	9	...........
	64	0.866667	7.13994E-002	-9.95969E-005	0.00000E+000	-7.11117E-006	-5.99601E-002	7.14058E-002	3.57670E+000	9	...........
	65	0.88	5.96818E-002	-9.92958E-005	0.00000E+000	-5.92615E-006	-5.99601E-002	5.96846E-002	3.57670E+000	9	...........
	66	0.893333	4.80949E-002	-9.80268E-005	0.00000E+000	-4.71459E-006	-5.99601E-002	4.80915E-002	3.57670E+000	9	...........
	67	0.906667	3.66232E-002	-9.90968E-005	0.00000E+000	-3.62924E-006	-5.99601E-002	3.66236E-002	3.57670E+000	9	...........
	68	0.92	2.52685E-002	-9.93969E-005	0.00000E+000	-2.51161E-006	-5.99601E-002	2.52612E-002	3.57670E+000	9	...........
	69	0.933333	1.40666E-002	-9.81862E-005	0.00000E+000	-1.38115E-006	-5.99601E-002	1.40558E-002	3.57670E+000	9	...........
	70	0.945	3.69921E-003	-9.94271E-005	0.00000E+000	-3.67802E-007	-5.99601E-002	3.68469E-003	3.57670E+000	9	...........
STARTTIMEOFFSET	QUANT	764.9399	Start Time Offset (s)
