EXPLAIN
TAG	PWR800_DISCHARGE
TITLE	LABEL	PWR Cyclic Charge Discharge (Cell) - Discharge Step	Test &Identifier
DATE	LABEL	12-7-2017	Date
TIME	LABEL	16:11:46	Time
NOTES	NOTES	2	&Notes...
	supercap test cell
	6M KOH
PSTAT	PSTAT	IFC5000-01520	Potentiostat
CAPACITY	QUANT	1.00000E-003	Capacity (A-hr)
CELLTYPE	SELECTOR	1	&Cell Type
WORKINGCONNECTION	SELECTOR	0	&Working Lead
MAXDISCHARGETIME	VARIABLEANDUNITS	1.00000E+002	s	1.00000E+002	second(s)	Max &Discharge Time
DISCHARGEMODE	MULTIPARAM	0	1.00000E-004	&Discharge Mode	Constant Current	Amp(s)
SAMPLETIME	QUANT	1.00000E-002	Sa&mple Period (s)
DISCHARGESTOPAT1	MULTIPARAM	3	0.00000E+000	Discharge Stop At &1	Voltage < Limit	V
DISCHARGESTOPAT2	MULTIPARAM	0	0.00000E+000	Discharge Stop At &2	None	N/A
AESBHCSELECTOR	TOGGLE	F	Save Both Half Cells
IRCOMP	TOGGLE	F	IR &Measure
EOC	QUANT	0	Open Circuit (V)
SEQUENCER	TOGGLE	TRUE	Run as Sequence
PSTATMODEL	IQUANT	53	Pstat Model
PSTATSECTION	LABEL	IFC5000-01520	Pstat Section
PSTATSERIALNO	LABEL	01520	Pstat Serial Number
CTRLMODE	IQUANT	0	Control Mode
ELECTROMETER	IQUANT	1	RE=0 or CS=1
IESTAB	IQUANT	0	I/E Stability
CASPEED	IQUANT	4	Control Amp Speed
CONVENTION	IQUANT	1	Current Convention
ICHRANGE	IQUANT	2	Ich Range
ICHRANGEMODE	TOGGLE	T	Ich Auto Range
ICHOFFSETENABLE	TOGGLE	F	Ich Offset Enable
ICHOFFSET	QUANT	0	Ich Offset (V)
ICHFILTER	IQUANT	1	Ich Filter
VCHRANGE	IQUANT	2	Vch Range
VCHRANGEMODE	TOGGLE	T	Vch Auto Range
VCHOFFSETENABLE	TOGGLE	F	Vch Offset Enable
VCHOFFSET	QUANT	0	Vch Offset (V)
VCHFILTER	IQUANT	1	Vch Filter
IERANGELOWERLIMIT	IQUANT	9	I/E Range Lower Limit
IERANGEMODE	TOGGLE	F	I/E AutoRange
IERANGE	IQUANT	9	I/E Range
ACHSELECT	IQUANT	1	Ach Select
ACHRANGE	IQUANT	2	Ach Range
ACHOFFSETENABLE	TOGGLE	F	Ach Offset Enable
ACHOFFSET	QUANT	0	Ach Offset (V)
ACHFILTER	IQUANT	1	Ach Filter
CABLEID	IQUANT	14	Cable ID
DCCALDATE	LABEL	5-7-2017	DC Calibration Date
ACCALDATE	LABEL	12/3/2015	AC Calibration Date
FRAMEWORKVERSION	QUANT	7.01	Framework Version
INSTRUMENTVERSION	LABEL	4.00	Instrument Version
CURVE	TABLE	74
	Pt	T	Vf	Im	Vu	Pwr	Sig	Ach	Temp	IERange	Over
	#	s	V	A	V	W	V	V	deg C	#	bits
	0	0.013333	8.34634E-001	-9.87405E-005	0.00000E+000	-8.24121E-005	-5.99601E-002	8.34918E-001	3.57780E+000	9	...........
	1	0.026667	8.21424E-001	-9.92458E-005	0.00000E+000	-8.15229E-005	-5.99601E-002	8.21691E-001	3.57780E+000	9	...........
	2	0.04	8.08747E-001	-9.83946E-005	0.00000E+000	-7.95763E-005	-5.99601E-002	8.09018E-001	3.57780E+000	9	...........
	3	0.053333	7.96441E-001	-9.91500E-005	0.00000E+000	-7.89671E-005	-5.99601E-002	7.96707E-001	3.57780E+000	9	...........
	4	0.066667	7.84340E-001	-9.95396E-005	0.00000E+000	-7.80729E-005	-5.99601E-002	7.84617E-001	3.57780E+000	9	...........
	5	0.08	7.72408E-001	-9.88634E-005	0.00000E+000	-7.63629E-005	-5.99601E-002	7.72691E-001	3.57780E+000	9	...........
	6	0.093333	7.60539E-001	-9.94656E-005	0.00000E+000	-7.56475E-005	-5.99601E-002	7.60816E-001	3.57780E+000	9	...........
	7	0.106667	7.48728E-001	-9.88770E-005	0.00000E+000	-7.40320E-005	-5.99601E-002	7.48995E-001	3.57780E+000	9	...........
	8	0.12	7.36899E-001	-9.87176E-005	0.00000E+000	-7.27449E-005	-5.99601E-002	7.37171E-001	3.57780E+000	9	...........
	9	0.133333	7.25107E-001	-9.87207E-005	0.00000E+000	-7.15831E-005	-5.99601E-002	7.25345E-001	3.57780E+000	9	...........
	10	0.146667	7.13240E-001	-9.79706E-005	0.00000E+000	-6.98765E-005	-5.99601E-002	7.13518E-001	3.57780E+000	9	...........
	11	0.16	7.01398E-001	-9.86155E-005	0.00000E+000	-6.91687E-005	-5.99601E-002	7.01673E-001	3.57780E+000	9	...........
	12	0.173333	6.89528E-001	-9.84561E-005	0.00000E+000	-6.78882E-005	-5.99601E-002	6.89810E-001	3.57780E+000	9	...........
	13	0.186667	6.77644E-001	-9.92646E-005	0.00000E+000	-6.72661E-005	-5.99601E-002	6.77914E-001	3.57780E+000	9	...........
	14	0.2	6.65761E-001	-9.81841E-005	0.00000E+000	-6.53672E-005	-5.99601E-002	6.66027E-001	3.57780E+000	9	...........
	15	0.213333	6.53857E-001	-9.86144E-005	0.00000E+000	-6.44797E-005	-5.99601E-002	6.54131E-001	3.57780E+000	9	...........
	16	0.226667	6.41965E-001	-9.83592E-005	0.00000E+000	-6.31431E-005	-5.99601E-002	6.42224E-001	3.57780E+000	9	...........
	17	0.24	6.30048E-001	-9.95896E-005	0.00000E+000	-6.27463E-005	-5.99601E-002	6.30336E-001	3.57780E+000	9	...........
	18	0.253333	6.18194E-001	-9.95365E-005	0.00000E+000	-6.15328E-005	-5.99601E-002	6.18459E-001	3.57780E+000	9	...........
	19	0.266667	6.06300E-001	-9.86811E-005	0.00000E+000	-5.98304E-005	-5.99601E-002	6.06577E-001	3.57780E+000	9	...........
	20	0.28	5.94484E-001	-9.84529E-005	0.00000E+000	-5.85287E-005	-5.99601E-002	5.94752E-001	3.57780E+000	9	...........
	21	0.293333	5.82667E-001	-9.87676E-005	0.00000E+000	-5.75486E-005	-5.99601E-002	5.82946E-001	3.57780E+000	9	...........
	22	0.306667	5.70914E-001	-9.83685E-005	0.00000E+000	-5.61599E-005	-5.99601E-002	5.71175E-001	3.57780E+000	9	...........
	23	0.32	5.59144E-001	-9.84186E-005	0.00000E+000	-5.50302E-005	-5.99601E-002	5.59421E-001	3.57780E+000	9	...........
	24	0.333333	5.47476E-001	-9.92177E-005	0.00000E+000	-5.43193E-005	-5.99601E-002	5.47715E-001	3.57780E+000	9	...........
	25	0.346667	5.35809E-001	-9.91260E-005	0.00000E+000	-5.31126E-005	-5.99601E-002	5.36049E-001	3.57780E+000	9	...........
	26	0.36	5.24218E-001	-9.81977E-005	0.00000E+000	-5.14770E-005	-5.99601E-002	5.24446E-001	3.57780E+000	9	...........
	27	0.373333	5.12658E-001	-9.86030E-005	0.00000E+000	-5.05496E-005	-5.99601E-002	5.12886E-001	3.57780E+000	9	...........
	28	0.386667	5.01122E-001	-9.92604E-005	0.00000E+000	-4.97415E-005	-5.99601E-002	5.01363E-001	3.57780E+000	9	...........
	29	0.4	4.89675E-001	-9.88082E-005	0.00000E+000	-4.83839E-005	-5.99601E-002	4.89894E-001	3.57780E+000	9	...........
	30	0.413333	4.78550E-001	-9.89291E-005	0.00000E+000	-4.73425E-005	-5.99601E-002	4.78653E-001	3.57780E+000	9	...........
	31	0.426667	4.67156E-001	-9.83685E-005	0.00000E+000	-4.59534E-005	-5.99601E-002	4.67256E-001	3.57780E+000	9	...........
	32	0.44	4.55800E-001	-9.81143E-005	0.00000E+000	-4.47205E-005	-5.99601E-002	4.55894E-001	3.57780E+000	9	...........
	33	0.453333	4.44471E-001	-9.87676E-005	0.00000E+000	-4.38993E-005	-5.99601E-002	4.44569E-001	3.57780E+000	9	...........
	34	0.466667	4.33176E-001	-9.82935E-005	0.00000E+000	-4.25784E-005	-5.99601E-002	4.33275E-001	3.57780E+000	9	...........
	35	0.48	4.21900E-001	-9.85509E-005	0.00000E+000	-4.15786E-005	-5.99601E-002	4.21993E-001	3.57780E+000	9	...........
	36	0.493333	4.10640E-001	-9.87718E-005	0.00000E+000	-4.05597E-005	-5.99601E-002	4.10725E-001	3.57780E+000	9	...........
	37	0.506667	3.99392E-001	-9.85227E-005	0.00000E+000	-3.93492E-005	-5.99601E-002	3.99470E-001	3.57780E+000	9	...........
	38	0.52	3.88143E-001	-9.89312E-005	0.00000E+000	-3.83995E-005	-5.99601E-002	3.88219E-001	3.57780E+000	9	...........
	39	0.533333	3.76892E-001	-9.87957E-005	0.00000E+000	-3.72353E-005	-5.99601E-002	3.76962E-001	3.57780E+000	9	...........
	40	0.546667	3.65623E-001	-9.89166E-005	0.00000E+000	-3.61662E-005	-5.99601E-002	3.65702E-001	3.57780E+000	9	...........
	41	0.56	3.54348E-001	-9.91197E-005	0.00000E+000	-3.51229E-005	-5.99601E-002	3.54421E-001	3.57780E+000	9	...........
	42	0.573333	3.43053E-001	-9.88207E-005	0.00000E+000	-3.39008E-005	-5.99601E-002	3.43122E-001	3.57780E+000	9	...........
	43	0.586667	3.31738E-001	-9.84331E-005	0.00000E+000	-3.26540E-005	-5.99601E-002	3.31799E-001	3.57780E+000	9	...........
	44	0.6	3.20405E-001	-9.89853E-005	0.00000E+000	-3.17154E-005	-5.99601E-002	3.20469E-001	3.57780E+000	9	...........
	45	0.613333	3.09058E-001	-9.85238E-005	0.00000E+000	-3.04495E-005	-5.99601E-002	3.09121E-001	3.57780E+000	9	...........
	46	0.626667	2.97688E-001	-9.86592E-005	0.00000E+000	-2.93697E-005	-5.99601E-002	2.97744E-001	3.57780E+000	9	...........
	47	0.64	2.86289E-001	-9.87780E-005	0.00000E+000	-2.82791E-005	-5.99601E-002	2.86348E-001	3.57780E+000	9	...........
	48	0.653333	2.74878E-001	-9.86603E-005	0.00000E+000	-2.71195E-005	-5.99601E-002	2.74930E-001	3.57780E+000	9	...........
	49	0.666667	2.63446E-001	-9.90979E-005	0.00000E+000	-2.61070E-005	-5.99601E-002	2.63497E-001	3.57800E+000	9	...........
	50	0.68	2.51999E-001	-9.88853E-005	0.00000E+000	-2.49190E-005	-5.99601E-002	2.52050E-001	3.57860E+000	9	...........
	51	0.693333	2.40539E-001	-9.93667E-005	0.00000E+000	-2.39016E-005	-5.99601E-002	2.40582E-001	3.57860E+000	9	...........
	52	0.706667	2.29052E-001	-9.82227E-005	0.00000E+000	-2.24981E-005	-5.99601E-002	2.29093E-001	3.57860E+000	9	...........
	53	0.72	2.17551E-001	-9.84290E-005	0.00000E+000	-2.14133E-005	-5.99601E-002	2.17590E-001	3.57860E+000	9	...........
	54	0.733333	2.06056E-001	-9.89291E-005	0.00000E+000	-2.03849E-005	-5.99601E-002	2.06089E-001	3.57860E+000	9	...........
	55	0.746667	1.94550E-001	-9.88468E-005	0.00000E+000	-1.92306E-005	-5.99601E-002	1.94584E-001	3.57860E+000	9	...........
	56	0.76	1.83045E-001	-9.86655E-005	0.00000E+000	-1.80603E-005	-5.99601E-002	1.83077E-001	3.57860E+000	9	...........
	57	0.773333	1.71548E-001	-9.87145E-005	0.00000E+000	-1.69342E-005	-5.99601E-002	1.71578E-001	3.57860E+000	9	...........
	58	0.786667	1.60060E-001	-9.88061E-005	0.00000E+000	-1.58149E-005	-5.99601E-002	1.60090E-001	3.57860E+000	9	...........
	59	0.8	1.48597E-001	-9.87582E-005	0.00000E+000	-1.46752E-005	-5.99601E-002	1.48620E-001	3.57860E+000	9	...........
	60	0.813333	1.37159E-001	-9.92594E-005	0.00000E+000	-1.36143E-005	-5.99601E-002	1.37179E-001	3.57860E+000	9	...........
	61	0.826667	1.25752E-001	-9.88978E-005	0.00000E+000	-1.24366E-005	-5.99601E-002	1.25772E-001	3.57860E+000	9	...........
	62	0.84	1.14398E-001	-9.94083E-005	0.00000E+000	-1.13721E-005	-5.99601E-002	1.14418E-001	3.57860E+000	9	...........
	63	0.853333	1.03099E-001	-9.84800E-005	0.00000E+000	-1.01532E-005	-5.99601E-002	1.03115E-001	3.57860E+000	9	...........
	64	0.866667	9.18597E-002	-9.91479E-005	0.00000E+000	-9.10770E-006	-5.99601E-002	9.18736E-002	3.57860E+000	9	...........
	65	0.88	8.07073E-002	-9.87686E-005	0.00000E+000	-7.97135E-006	-5.99601E-002	8.07172E-002	3.57860E+000	9	...........
	66	0.893333	6.96419E-002	-9.86321E-005	0.00000E+000	-6.86893E-006	-5.99601E-002	6.96474E-002	3.57860E+000	9	...........
	67	0.906667	5.86642E-002	-9.81352E-005	0.00000E+000	-5.75702E-006	-5.99601E-002	5.86609E-002	3.57860E+000	9	...........
	68	0.92	4.78162E-002	-9.90822E-005	0.00000E+000	-4.73774E-006	-5.99601E-002	4.78193E-002	3.57860E+000	9	...........
	69	0.933333	3.70912E-002	-9.80779E-005	0.00000E+000	-3.63783E-006	-5.99601E-002	3.70899E-002	3.57860E+000	9	...........
	70	0.946667	2.64676E-002	-9.81112E-005	0.00000E+000	-2.59677E-006	-5.99601E-002	2.64581E-002	3.57860E+000	9	...........
	71	0.96	1.59780E-002	-9.82987E-005	0.00000E+000	-1.57061E-006	-5.99601E-002	1.59634E-002	3.57860E+000	9	...........
	72	0.97333	5.64235E-003	-9.90176E-005	0.00000E+000	-5.58692E-007	-5.99601E-002	5.61788E-003	3.57860E+000	9	...........
	73	0.975	-1.17564E-004	-1.00136E-004	0.00000E+000	1.17723E-008	-5.99601E-002	-1.39447E-004	3.57860E+000	9	...........
STARTTIMEOFFSET	QUANT	72.39501	Start Time Offset (s)
