EXPLAIN
TAG	PWR800_DISCHARGE
TITLE	LABEL	PWR Cyclic Charge Discharge (Cell) - Discharge Step	Test &Identifier
DATE	LABEL	12-7-2017	Date
TIME	LABEL	16:23:21	Time
NOTES	NOTES	2	&Notes...
	supercap test cell
	6M KOH
PSTAT	PSTAT	IFC5000-01520	Potentiostat
CAPACITY	QUANT	1.00000E-003	Capacity (A-hr)
CELLTYPE	SELECTOR	1	&Cell Type
WORKINGCONNECTION	SELECTOR	0	&Working Lead
MAXDISCHARGETIME	VARIABLEANDUNITS	1.00000E+002	s	1.00000E+002	second(s)	Max &Discharge Time
DISCHARGEMODE	MULTIPARAM	0	1.00000E-004	&Discharge Mode	Constant Current	Amp(s)
SAMPLETIME	QUANT	1.00000E-002	Sa&mple Period (s)
DISCHARGESTOPAT1	MULTIPARAM	3	0.00000E+000	Discharge Stop At &1	Voltage < Limit	V
DISCHARGESTOPAT2	MULTIPARAM	0	0.00000E+000	Discharge Stop At &2	None	N/A
AESBHCSELECTOR	TOGGLE	F	Save Both Half Cells
IRCOMP	TOGGLE	F	IR &Measure
EOC	QUANT	0	Open Circuit (V)
SEQUENCER	TOGGLE	TRUE	Run as Sequence
PSTATMODEL	IQUANT	53	Pstat Model
PSTATSECTION	LABEL	IFC5000-01520	Pstat Section
PSTATSERIALNO	LABEL	01520	Pstat Serial Number
CTRLMODE	IQUANT	0	Control Mode
ELECTROMETER	IQUANT	1	RE=0 or CS=1
IESTAB	IQUANT	0	I/E Stability
CASPEED	IQUANT	4	Control Amp Speed
CONVENTION	IQUANT	1	Current Convention
ICHRANGE	IQUANT	2	Ich Range
ICHRANGEMODE	TOGGLE	T	Ich Auto Range
ICHOFFSETENABLE	TOGGLE	F	Ich Offset Enable
ICHOFFSET	QUANT	0	Ich Offset (V)
ICHFILTER	IQUANT	1	Ich Filter
VCHRANGE	IQUANT	2	Vch Range
VCHRANGEMODE	TOGGLE	T	Vch Auto Range
VCHOFFSETENABLE	TOGGLE	F	Vch Offset Enable
VCHOFFSET	QUANT	0	Vch Offset (V)
VCHFILTER	IQUANT	1	Vch Filter
IERANGELOWERLIMIT	IQUANT	9	I/E Range Lower Limit
IERANGEMODE	TOGGLE	F	I/E AutoRange
IERANGE	IQUANT	9	I/E Range
ACHSELECT	IQUANT	1	Ach Select
ACHRANGE	IQUANT	2	Ach Range
ACHOFFSETENABLE	TOGGLE	F	Ach Offset Enable
ACHOFFSET	QUANT	0	Ach Offset (V)
ACHFILTER	IQUANT	1	Ach Filter
CABLEID	IQUANT	14	Cable ID
DCCALDATE	LABEL	5-7-2017	DC Calibration Date
ACCALDATE	LABEL	12/3/2015	AC Calibration Date
FRAMEWORKVERSION	QUANT	7.01	Framework Version
INSTRUMENTVERSION	LABEL	4.00	Instrument Version
CURVE	TABLE	71
	Pt	T	Vf	Im	Vu	Pwr	Sig	Ach	Temp	IERange	Over
	#	s	V	A	V	W	V	V	deg C	#	bits
	0	0.013333	8.44130E-001	-9.79674E-005	0.00000E+000	-8.26972E-005	-5.99601E-002	8.44457E-001	3.57730E+000	9	...........
	1	0.026667	8.31190E-001	-9.76017E-005	0.00000E+000	-8.11256E-005	-5.99601E-002	8.31507E-001	3.57730E+000	9	...........
	2	0.04	8.18837E-001	-9.81883E-005	0.00000E+000	-8.04002E-005	-5.99601E-002	8.19141E-001	3.57730E+000	9	...........
	3	0.053333	8.06877E-001	-9.81560E-005	0.00000E+000	-7.91998E-005	-5.99601E-002	8.07157E-001	3.57730E+000	9	...........
	4	0.066667	7.95185E-001	-9.76382E-005	0.00000E+000	-7.76405E-005	-5.99601E-002	7.95451E-001	3.57730E+000	9	...........
	5	0.08	7.83687E-001	-9.89103E-005	0.00000E+000	-7.75148E-005	-5.99601E-002	7.83952E-001	3.57730E+000	9	...........
	6	0.093333	7.72349E-001	-9.89708E-005	0.00000E+000	-7.64400E-005	-5.99601E-002	7.72612E-001	3.57730E+000	9	...........
	7	0.106667	7.61181E-001	-9.81039E-005	0.00000E+000	-7.46749E-005	-5.99601E-002	7.61420E-001	3.57730E+000	9	...........
	8	0.12	7.50131E-001	-9.87238E-005	0.00000E+000	-7.40558E-005	-5.99601E-002	7.50371E-001	3.57730E+000	9	...........
	9	0.133333	7.39147E-001	-9.87301E-005	0.00000E+000	-7.29761E-005	-5.99601E-002	7.39389E-001	3.57730E+000	9	...........
	10	0.146667	7.28303E-001	-9.89176E-005	0.00000E+000	-7.20420E-005	-5.99601E-002	7.28553E-001	3.57730E+000	9	...........
	11	0.16	7.17509E-001	-9.86051E-005	0.00000E+000	-7.07500E-005	-5.99601E-002	7.17768E-001	3.57730E+000	9	...........
	12	0.173333	7.06770E-001	-9.86082E-005	0.00000E+000	-6.96933E-005	-5.99601E-002	7.07039E-001	3.57730E+000	9	...........
	13	0.186667	6.96112E-001	-9.79476E-005	0.00000E+000	-6.81826E-005	-5.99601E-002	6.96358E-001	3.57730E+000	9	...........
	14	0.2	6.85380E-001	-9.86999E-005	0.00000E+000	-6.76469E-005	-5.99601E-002	6.85644E-001	3.57730E+000	9	...........
	15	0.213333	6.74636E-001	-9.86592E-005	0.00000E+000	-6.65590E-005	-5.99601E-002	6.74905E-001	3.57730E+000	9	...........
	16	0.226667	6.63787E-001	-9.88426E-005	0.00000E+000	-6.56104E-005	-5.99601E-002	6.64052E-001	3.57730E+000	9	...........
	17	0.24	6.52820E-001	-9.90176E-005	0.00000E+000	-6.46407E-005	-5.99601E-002	6.53082E-001	3.57730E+000	9	...........
	18	0.253333	6.41694E-001	-9.81466E-005	0.00000E+000	-6.29801E-005	-5.99601E-002	6.41938E-001	3.57730E+000	9	...........
	19	0.266667	6.30378E-001	-9.96824E-005	0.00000E+000	-6.28376E-005	-5.99601E-002	6.30614E-001	3.57730E+000	9	...........
	20	0.28	6.18915E-001	-9.92666E-005	0.00000E+000	-6.14376E-005	-5.99601E-002	6.19153E-001	3.57730E+000	9	...........
	21	0.293333	6.07231E-001	-9.99824E-005	0.00000E+000	-6.07124E-005	-5.99601E-002	6.07483E-001	3.57730E+000	9	...........
	22	0.306667	5.95456E-001	-9.79549E-005	0.00000E+000	-5.83279E-005	-5.99601E-002	5.95686E-001	3.57730E+000	9	...........
	23	0.32	5.83500E-001	-9.83685E-005	0.00000E+000	-5.73980E-005	-5.99601E-002	5.83751E-001	3.57730E+000	9	...........
	24	0.333333	5.71439E-001	-9.85478E-005	0.00000E+000	-5.63140E-005	-5.99601E-002	5.71670E-001	3.57730E+000	9	...........
	25	0.346667	5.59237E-001	-9.94010E-005	0.00000E+000	-5.55887E-005	-5.99601E-002	5.59452E-001	3.57730E+000	9	...........
	26	0.36	5.46917E-001	-9.93719E-005	0.00000E+000	-5.43482E-005	-5.99601E-002	5.47145E-001	3.57730E+000	9	...........
	27	0.373333	5.34493E-001	-9.81227E-005	0.00000E+000	-5.24458E-005	-5.99601E-002	5.34729E-001	3.57730E+000	9	...........
	28	0.386667	5.22022E-001	-9.78091E-005	0.00000E+000	-5.10585E-005	-5.99601E-002	5.22236E-001	3.57730E+000	9	...........
	29	0.4	5.09412E-001	-9.87468E-005	0.00000E+000	-5.03028E-005	-5.99601E-002	5.09674E-001	3.57730E+000	9	...........
	30	0.413333	4.96771E-001	-9.95240E-005	0.00000E+000	-4.94407E-005	-5.99601E-002	4.97048E-001	3.57730E+000	9	...........
	31	0.426667	4.84234E-001	-9.88186E-005	0.00000E+000	-4.78513E-005	-5.99601E-002	4.84423E-001	3.57730E+000	9	...........
	32	0.44	4.71643E-001	-9.94729E-005	0.00000E+000	-4.69157E-005	-5.99601E-002	4.71753E-001	3.57730E+000	9	...........
	33	0.453333	4.58853E-001	-9.91854E-005	0.00000E+000	-4.55115E-005	-5.99601E-002	4.58964E-001	3.57730E+000	9	...........
	34	0.466667	4.46047E-001	-9.84019E-005	0.00000E+000	-4.38919E-005	-5.99601E-002	4.46141E-001	3.57730E+000	9	...........
	35	0.48	4.33210E-001	-9.86457E-005	0.00000E+000	-4.27343E-005	-5.99601E-002	4.33304E-001	3.57730E+000	9	...........
	36	0.493333	4.20365E-001	-9.84238E-005	0.00000E+000	-4.13739E-005	-5.99601E-002	4.20454E-001	3.57730E+000	9	...........
	37	0.506667	4.07528E-001	-9.82216E-005	0.00000E+000	-4.00281E-005	-5.99601E-002	4.07611E-001	3.57730E+000	9	...........
	38	0.52	3.94692E-001	-9.76976E-005	0.00000E+000	-3.85605E-005	-5.99601E-002	3.94772E-001	3.57730E+000	9	...........
	39	0.533333	3.81861E-001	-9.94365E-005	0.00000E+000	-3.79709E-005	-5.99601E-002	3.81937E-001	3.57730E+000	9	...........
	40	0.546667	3.69049E-001	-9.85071E-005	0.00000E+000	-3.63540E-005	-5.99601E-002	3.69124E-001	3.57730E+000	9	...........
	41	0.56	3.56269E-001	-9.87009E-005	0.00000E+000	-3.51640E-005	-5.99601E-002	3.56345E-001	3.57730E+000	9	...........
	42	0.573333	3.43513E-001	-9.82143E-005	0.00000E+000	-3.37379E-005	-5.99601E-002	3.43585E-001	3.57730E+000	9	...........
	43	0.586667	3.30793E-001	-9.93417E-005	0.00000E+000	-3.28615E-005	-5.99601E-002	3.30865E-001	3.57730E+000	9	...........
	44	0.6	3.18117E-001	-9.87405E-005	0.00000E+000	-3.14110E-005	-5.99601E-002	3.18180E-001	3.57730E+000	9	...........
	45	0.613333	3.05472E-001	-9.86884E-005	0.00000E+000	-3.01465E-005	-5.99601E-002	3.05538E-001	3.57730E+000	9	...........
	46	0.626667	2.92864E-001	-9.84894E-005	0.00000E+000	-2.88440E-005	-5.99601E-002	2.92931E-001	3.57730E+000	9	...........
	47	0.64	2.80291E-001	-9.82216E-005	0.00000E+000	-2.75306E-005	-5.99601E-002	2.80353E-001	3.57849E+000	9	...........
	48	0.653333	2.67769E-001	-9.90354E-005	0.00000E+000	-2.65185E-005	-5.99601E-002	2.67829E-001	3.57920E+000	9	...........
	49	0.666667	2.55277E-001	-9.89572E-005	0.00000E+000	-2.52615E-005	-5.99601E-002	2.55329E-001	3.57920E+000	9	...........
	50	0.68	2.42826E-001	-9.90343E-005	0.00000E+000	-2.40481E-005	-5.99601E-002	2.42874E-001	3.57920E+000	9	...........
	51	0.693333	2.30407E-001	-9.95813E-005	0.00000E+000	-2.29442E-005	-5.99601E-002	2.30456E-001	3.57920E+000	9	...........
	52	0.706667	2.18026E-001	-9.87728E-005	0.00000E+000	-2.15350E-005	-5.99601E-002	2.18068E-001	3.57920E+000	9	...........
	53	0.72	2.05673E-001	-9.83008E-005	0.00000E+000	-2.02178E-005	-5.99601E-002	2.05710E-001	3.57920E+000	9	...........
	54	0.733333	1.93338E-001	-9.83269E-005	0.00000E+000	-1.90103E-005	-5.99601E-002	1.93380E-001	3.57920E+000	9	...........
	55	0.746667	1.81042E-001	-9.78007E-005	0.00000E+000	-1.77061E-005	-5.99601E-002	1.81079E-001	3.57920E+000	9	...........
	56	0.76	1.68776E-001	-9.81810E-005	0.00000E+000	-1.65706E-005	-5.99601E-002	1.68811E-001	3.57920E+000	9	...........
	57	0.773333	1.56550E-001	-9.92729E-005	0.00000E+000	-1.55411E-005	-5.99601E-002	1.56581E-001	3.57920E+000	9	...........
	58	0.786667	1.44356E-001	-9.89437E-005	0.00000E+000	-1.42831E-005	-5.99601E-002	1.44384E-001	3.57920E+000	9	...........
	59	0.8	1.32207E-001	-9.79570E-005	0.00000E+000	-1.29506E-005	-5.99601E-002	1.32230E-001	3.57920E+000	9	...........
	60	0.813333	1.20109E-001	-9.94010E-005	0.00000E+000	-1.19390E-005	-5.99601E-002	1.20135E-001	3.57920E+000	9	...........
	61	0.826667	1.08066E-001	-9.87165E-005	0.00000E+000	-1.06679E-005	-5.99601E-002	1.08091E-001	3.57920E+000	9	...........
	62	0.84	9.60992E-002	-9.78278E-005	0.00000E+000	-9.40117E-006	-5.99601E-002	9.61200E-002	3.57920E+000	9	...........
	63	0.853333	8.42120E-002	-9.90708E-005	0.00000E+000	-8.34294E-006	-5.99601E-002	8.42281E-002	3.57920E+000	9	...........
	64	0.866667	7.24077E-002	-9.93240E-005	0.00000E+000	-7.19182E-006	-5.99601E-002	7.24183E-002	3.57920E+000	9	...........
	65	0.88	6.07047E-002	-9.88009E-005	0.00000E+000	-5.99768E-006	-5.99601E-002	6.07162E-002	3.57920E+000	9	...........
	66	0.893333	4.91203E-002	-9.79184E-005	0.00000E+000	-4.80978E-006	-5.99601E-002	4.91292E-002	3.57920E+000	9	...........
	67	0.906667	3.76622E-002	-9.88322E-005	0.00000E+000	-3.72224E-006	-5.99601E-002	3.76657E-002	3.57920E+000	9	...........
	68	0.92	2.63106E-002	-9.80091E-005	0.00000E+000	-2.57868E-006	-5.99601E-002	2.63030E-002	3.57920E+000	9	...........
	69	0.933333	1.50894E-002	-9.92989E-005	0.00000E+000	-1.49837E-006	-5.99601E-002	1.50793E-002	3.57920E+000	9	...........
	70	0.946667	4.03675E-003	-9.92844E-005	0.00000E+000	-4.00786E-007	-5.99601E-002	4.01632E-003	3.57920E+000	9	...........
STARTTIMEOFFSET	QUANT	568.1133	Start Time Offset (s)
