EXPLAIN
TAG	PWR800_DISCHARGE
TITLE	LABEL	PWR Cyclic Charge Discharge (Cell) - Discharge Step	Test &Identifier
DATE	LABEL	12-7-2017	Date
TIME	LABEL	16:28:51	Time
NOTES	NOTES	2	&Notes...
	supercap test cell
	6M KOH
PSTAT	PSTAT	IFC5000-01520	Potentiostat
CAPACITY	QUANT	1.00000E-003	Capacity (A-hr)
CELLTYPE	SELECTOR	1	&Cell Type
WORKINGCONNECTION	SELECTOR	0	&Working Lead
MAXDISCHARGETIME	VARIABLEANDUNITS	1.00000E+002	s	1.00000E+002	second(s)	Max &Discharge Time
DISCHARGEMODE	MULTIPARAM	0	1.00000E-004	&Discharge Mode	Constant Current	Amp(s)
SAMPLETIME	QUANT	1.00000E-002	Sa&mple Period (s)
DISCHARGESTOPAT1	MULTIPARAM	3	0.00000E+000	Discharge Stop At &1	Voltage < Limit	V
DISCHARGESTOPAT2	MULTIPARAM	0	0.00000E+000	Discharge Stop At &2	None	N/A
AESBHCSELECTOR	TOGGLE	F	Save Both Half Cells
IRCOMP	TOGGLE	F	IR &Measure
EOC	QUANT	0	Open Circuit (V)
SEQUENCER	TOGGLE	TRUE	Run as Sequence
PSTATMODEL	IQUANT	53	Pstat Model
PSTATSECTION	LABEL	IFC5000-01520	Pstat Section
PSTATSERIALNO	LABEL	01520	Pstat Serial Number
CTRLMODE	IQUANT	0	Control Mode
ELECTROMETER	IQUANT	1	RE=0 or CS=1
IESTAB	IQUANT	0	I/E Stability
CASPEED	IQUANT	4	Control Amp Speed
CONVENTION	IQUANT	1	Current Convention
ICHRANGE	IQUANT	2	Ich Range
ICHRANGEMODE	TOGGLE	T	Ich Auto Range
ICHOFFSETENABLE	TOGGLE	F	Ich Offset Enable
ICHOFFSET	QUANT	0	Ich Offset (V)
ICHFILTER	IQUANT	1	Ich Filter
VCHRANGE	IQUANT	2	Vch Range
VCHRANGEMODE	TOGGLE	T	Vch Auto Range
VCHOFFSETENABLE	TOGGLE	F	Vch Offset Enable
VCHOFFSET	QUANT	0	Vch Offset (V)
VCHFILTER	IQUANT	1	Vch Filter
IERANGELOWERLIMIT	IQUANT	9	I/E Range Lower Limit
IERANGEMODE	TOGGLE	F	I/E AutoRange
IERANGE	IQUANT	9	I/E Range
ACHSELECT	IQUANT	1	Ach Select
ACHRANGE	IQUANT	2	Ach Range
ACHOFFSETENABLE	TOGGLE	F	Ach Offset Enable
ACHOFFSET	QUANT	0	Ach Offset (V)
ACHFILTER	IQUANT	1	Ach Filter
CABLEID	IQUANT	14	Cable ID
DCCALDATE	LABEL	5-7-2017	DC Calibration Date
ACCALDATE	LABEL	12/3/2015	AC Calibration Date
FRAMEWORKVERSION	QUANT	7.01	Framework Version
INSTRUMENTVERSION	LABEL	4.00	Instrument Version
CURVE	TABLE	71
	Pt	T	Vf	Im	Vu	Pwr	Sig	Ach	Temp	IERange	Over
	#	s	V	A	V	W	V	V	deg C	#	bits
	0	0.013333	8.46577E-001	-9.80987E-005	0.00000E+000	-8.30481E-005	-5.99601E-002	8.46897E-001	3.57810E+000	9	...........
	1	0.026667	8.33548E-001	-9.98178E-005	0.00000E+000	-8.32030E-005	-5.99601E-002	8.33866E-001	3.57810E+000	9	...........
	2	0.04	8.21154E-001	-9.92114E-005	0.00000E+000	-8.14678E-005	-5.99601E-002	8.21470E-001	3.57810E+000	9	...........
	3	0.053333	8.09115E-001	-9.88291E-005	0.00000E+000	-7.99641E-005	-5.99601E-002	8.09401E-001	3.57810E+000	9	...........
	4	0.066667	7.97382E-001	-9.88801E-005	0.00000E+000	-7.88453E-005	-5.99601E-002	7.97650E-001	3.57810E+000	9	...........
	5	0.08	7.85788E-001	-9.89395E-005	0.00000E+000	-7.77455E-005	-5.99601E-002	7.86060E-001	3.57810E+000	9	...........
	6	0.093333	7.74379E-001	-9.96126E-005	0.00000E+000	-7.71379E-005	-5.99601E-002	7.74655E-001	3.57810E+000	9	...........
	7	0.106667	7.63120E-001	-9.90833E-005	0.00000E+000	-7.56124E-005	-5.99601E-002	7.63381E-001	3.57810E+000	9	...........
	8	0.12	7.51963E-001	-9.91593E-005	0.00000E+000	-7.45642E-005	-5.99601E-002	7.52237E-001	3.57810E+000	9	...........
	9	0.133333	7.40921E-001	-9.86426E-005	0.00000E+000	-7.30864E-005	-5.99601E-002	7.41189E-001	3.57810E+000	9	...........
	10	0.146667	7.29974E-001	-9.91406E-005	0.00000E+000	-7.23700E-005	-5.99601E-002	7.30235E-001	3.57810E+000	9	...........
	11	0.16	7.19117E-001	-9.86311E-005	0.00000E+000	-7.09273E-005	-5.99601E-002	7.19376E-001	3.57810E+000	9	...........
	12	0.173333	7.08287E-001	-9.81914E-005	0.00000E+000	-6.95477E-005	-5.99601E-002	7.08559E-001	3.57810E+000	9	...........
	13	0.186667	6.97567E-001	-9.92750E-005	0.00000E+000	-6.92509E-005	-5.99601E-002	6.97837E-001	3.57810E+000	9	...........
	14	0.2	6.86880E-001	-9.89155E-005	0.00000E+000	-6.79431E-005	-5.99601E-002	6.87180E-001	3.57810E+000	9	...........
	15	0.213333	6.76244E-001	-9.93000E-005	0.00000E+000	-6.71510E-005	-5.99601E-002	6.76513E-001	3.57810E+000	9	...........
	16	0.226667	6.65532E-001	-9.82133E-005	0.00000E+000	-6.53641E-005	-5.99601E-002	6.65822E-001	3.57810E+000	9	...........
	17	0.24	6.54768E-001	-9.93240E-005	0.00000E+000	-6.50342E-005	-5.99601E-002	6.55053E-001	3.57810E+000	9	...........
	18	0.253333	6.43914E-001	-9.71527E-005	0.00000E+000	-6.25580E-005	-5.99601E-002	6.44187E-001	3.57810E+000	9	...........
	19	0.266667	6.32858E-001	-9.99282E-005	0.00000E+000	-6.32404E-005	-5.99601E-002	6.33142E-001	3.57810E+000	9	...........
	20	0.28	6.21672E-001	-9.86092E-005	0.00000E+000	-6.13026E-005	-5.99601E-002	6.21934E-001	3.57810E+000	9	...........
	21	0.293333	6.10247E-001	-9.83967E-005	0.00000E+000	-6.00463E-005	-5.99601E-002	6.10532E-001	3.57810E+000	9	...........
	22	0.306667	5.98703E-001	-9.85394E-005	0.00000E+000	-5.89958E-005	-5.99601E-002	5.98983E-001	3.57810E+000	9	...........
	23	0.32	5.86952E-001	-9.88843E-005	0.00000E+000	-5.80403E-005	-5.99601E-002	5.87205E-001	3.57810E+000	9	...........
	24	0.333333	5.75010E-001	-9.90822E-005	0.00000E+000	-5.69733E-005	-5.99601E-002	5.75248E-001	3.57810E+000	9	...........
	25	0.346667	5.62904E-001	-9.80164E-005	0.00000E+000	-5.51739E-005	-5.99601E-002	5.63176E-001	3.57810E+000	9	...........
	26	0.36	5.50685E-001	-9.94865E-005	0.00000E+000	-5.47857E-005	-5.99601E-002	5.50906E-001	3.57810E+000	9	...........
	27	0.373333	5.38288E-001	-9.88124E-005	0.00000E+000	-5.31895E-005	-5.99601E-002	5.38536E-001	3.57810E+000	9	...........
	28	0.386667	5.25803E-001	-9.94677E-005	0.00000E+000	-5.23005E-005	-5.99601E-002	5.26040E-001	3.57705E+000	9	...........
	29	0.4	5.13196E-001	-9.87040E-005	0.00000E+000	-5.06545E-005	-5.99601E-002	5.13445E-001	3.57670E+000	9	...........
	30	0.413333	5.00450E-001	-9.90916E-005	0.00000E+000	-4.95904E-005	-5.99601E-002	5.00713E-001	3.57670E+000	9	...........
	31	0.426667	4.87777E-001	-9.77309E-005	0.00000E+000	-4.76709E-005	-5.99601E-002	4.87958E-001	3.57670E+000	9	...........
	32	0.44	4.75144E-001	-9.89218E-005	0.00000E+000	-4.70021E-005	-5.99601E-002	4.75257E-001	3.57670E+000	9	...........
	33	0.453333	4.62217E-001	-9.85405E-005	0.00000E+000	-4.55471E-005	-5.99601E-002	4.62318E-001	3.57670E+000	9	...........
	34	0.466667	4.49229E-001	-9.91385E-005	0.00000E+000	-4.45359E-005	-5.99601E-002	4.49333E-001	3.57670E+000	9	...........
	35	0.48	4.36204E-001	-9.90895E-005	0.00000E+000	-4.32233E-005	-5.99601E-002	4.36305E-001	3.57670E+000	9	...........
	36	0.493333	4.23147E-001	-9.91166E-005	0.00000E+000	-4.19409E-005	-5.99601E-002	4.23251E-001	3.57670E+000	9	...........
	37	0.506667	4.10078E-001	-9.90885E-005	0.00000E+000	-4.06340E-005	-5.99601E-002	4.10174E-001	3.57670E+000	9	...........
	38	0.52	3.97003E-001	-9.86728E-005	0.00000E+000	-3.91733E-005	-5.99601E-002	3.97084E-001	3.57670E+000	9	...........
	39	0.533333	3.83925E-001	-9.87988E-005	0.00000E+000	-3.79313E-005	-5.99601E-002	3.84006E-001	3.57670E+000	9	...........
	40	0.546667	3.70863E-001	-9.94886E-005	0.00000E+000	-3.68967E-005	-5.99601E-002	3.70937E-001	3.57670E+000	9	...........
	41	0.56	3.57810E-001	-9.73798E-005	0.00000E+000	-3.48435E-005	-5.99601E-002	3.57896E-001	3.57670E+000	9	...........
	42	0.573333	3.44797E-001	-9.94542E-005	0.00000E+000	-3.42915E-005	-5.99601E-002	3.44868E-001	3.57670E+000	9	...........
	43	0.586667	3.31812E-001	-9.89499E-005	0.00000E+000	-3.28328E-005	-5.99601E-002	3.31886E-001	3.57670E+000	9	...........
	44	0.6	3.18862E-001	-9.87426E-005	0.00000E+000	-3.14853E-005	-5.99601E-002	3.18928E-001	3.57670E+000	9	...........
	45	0.613333	3.05959E-001	-9.91156E-005	0.00000E+000	-3.03253E-005	-5.99601E-002	3.06026E-001	3.57670E+000	9	...........
	46	0.626667	2.93103E-001	-9.89291E-005	0.00000E+000	-2.89964E-005	-5.99601E-002	2.93169E-001	3.57670E+000	9	...........
	47	0.64	2.80300E-001	-9.85238E-005	0.00000E+000	-2.76162E-005	-5.99601E-002	2.80366E-001	3.57670E+000	9	...........
	48	0.653333	2.67547E-001	-9.84925E-005	0.00000E+000	-2.63514E-005	-5.99601E-002	2.67611E-001	3.57670E+000	9	...........
	49	0.666667	2.54848E-001	-9.91979E-005	0.00000E+000	-2.52804E-005	-5.99601E-002	2.54908E-001	3.57670E+000	9	...........
	50	0.68	2.42199E-001	-9.88207E-005	0.00000E+000	-2.39343E-005	-5.99601E-002	2.42254E-001	3.57670E+000	9	...........
	51	0.693333	2.29604E-001	-9.92000E-005	0.00000E+000	-2.27767E-005	-5.99601E-002	2.29652E-001	3.57670E+000	9	...........
	52	0.706667	2.17051E-001	-9.87780E-005	0.00000E+000	-2.14399E-005	-5.99601E-002	2.17097E-001	3.57670E+000	9	...........
	53	0.72	2.04552E-001	-9.82519E-005	0.00000E+000	-2.00976E-005	-5.99601E-002	2.04598E-001	3.57670E+000	9	...........
	54	0.733333	1.92101E-001	-9.82977E-005	0.00000E+000	-1.88831E-005	-5.99601E-002	1.92144E-001	3.57670E+000	9	...........
	55	0.746667	1.79691E-001	-9.76549E-005	0.00000E+000	-1.75477E-005	-5.99601E-002	1.79736E-001	3.57670E+000	9	...........
	56	0.76	1.67326E-001	-9.72683E-005	0.00000E+000	-1.62755E-005	-5.99601E-002	1.67366E-001	3.57670E+000	9	...........
	57	0.773333	1.55009E-001	-9.83706E-005	0.00000E+000	-1.52483E-005	-5.99601E-002	1.55041E-001	3.57670E+000	9	...........
	58	0.786667	1.42738E-001	-9.86905E-005	0.00000E+000	-1.40869E-005	-5.99601E-002	1.42768E-001	3.57670E+000	9	...........
	59	0.8	1.30518E-001	-9.75340E-005	0.00000E+000	-1.27299E-005	-5.99601E-002	1.30553E-001	3.57670E+000	9	...........
	60	0.813333	1.18363E-001	-9.83279E-005	0.00000E+000	-1.16384E-005	-5.99601E-002	1.18394E-001	3.57670E+000	9	...........
	61	0.826667	1.06275E-001	-9.90760E-005	0.00000E+000	-1.05293E-005	-5.99601E-002	1.06300E-001	3.57670E+000	9	...........
	62	0.84	9.42666E-002	-9.77059E-005	0.00000E+000	-9.21040E-006	-5.99601E-002	9.42866E-002	3.57670E+000	9	...........
	63	0.853333	8.23407E-002	-9.93365E-005	0.00000E+000	-8.17943E-006	-5.99601E-002	8.23569E-002	3.57670E+000	9	...........
	64	0.866667	7.05167E-002	-9.94875E-005	0.00000E+000	-7.01553E-006	-5.99601E-002	7.05235E-002	3.57670E+000	9	...........
	65	0.88	5.88007E-002	-9.80716E-005	0.00000E+000	-5.76668E-006	-5.99601E-002	5.88034E-002	3.57670E+000	9	...........
	66	0.893333	4.72147E-002	-9.79216E-005	0.00000E+000	-4.62334E-006	-5.99601E-002	4.72211E-002	3.57670E+000	9	...........
	67	0.906667	3.57684E-002	-9.67390E-005	0.00000E+000	-3.46020E-006	-5.99601E-002	3.57746E-002	3.57670E+000	9	...........
	68	0.92	2.44342E-002	-9.91208E-005	0.00000E+000	-2.42194E-006	-5.99601E-002	2.44295E-002	3.57670E+000	9	...........
	69	0.933333	1.32507E-002	-9.84925E-005	0.00000E+000	-1.30510E-006	-5.99601E-002	1.32379E-002	3.57670E+000	9	...........
	70	0.945	2.90088E-003	-9.88841E-005	0.00000E+000	-2.86851E-007	-5.99601E-002	2.88372E-003	3.57670E+000	9	...........
STARTTIMEOFFSET	QUANT	804.1667	Start Time Offset (s)
