EXPLAIN
TAG	PWR800_DISCHARGE
TITLE	LABEL	PWR Cyclic Charge Discharge (Cell) - Discharge Step	Test &Identifier
DATE	LABEL	12-7-2017	Date
TIME	LABEL	16:28:59	Time
NOTES	NOTES	2	&Notes...
	supercap test cell
	6M KOH
PSTAT	PSTAT	IFC5000-01520	Potentiostat
CAPACITY	QUANT	1.00000E-003	Capacity (A-hr)
CELLTYPE	SELECTOR	1	&Cell Type
WORKINGCONNECTION	SELECTOR	0	&Working Lead
MAXDISCHARGETIME	VARIABLEANDUNITS	1.00000E+002	s	1.00000E+002	second(s)	Max &Discharge Time
DISCHARGEMODE	MULTIPARAM	0	1.00000E-004	&Discharge Mode	Constant Current	Amp(s)
SAMPLETIME	QUANT	1.00000E-002	Sa&mple Period (s)
DISCHARGESTOPAT1	MULTIPARAM	3	0.00000E+000	Discharge Stop At &1	Voltage < Limit	V
DISCHARGESTOPAT2	MULTIPARAM	0	0.00000E+000	Discharge Stop At &2	None	N/A
AESBHCSELECTOR	TOGGLE	F	Save Both Half Cells
IRCOMP	TOGGLE	F	IR &Measure
EOC	QUANT	0	Open Circuit (V)
SEQUENCER	TOGGLE	TRUE	Run as Sequence
PSTATMODEL	IQUANT	53	Pstat Model
PSTATSECTION	LABEL	IFC5000-01520	Pstat Section
PSTATSERIALNO	LABEL	01520	Pstat Serial Number
CTRLMODE	IQUANT	0	Control Mode
ELECTROMETER	IQUANT	1	RE=0 or CS=1
IESTAB	IQUANT	0	I/E Stability
CASPEED	IQUANT	4	Control Amp Speed
CONVENTION	IQUANT	1	Current Convention
ICHRANGE	IQUANT	2	Ich Range
ICHRANGEMODE	TOGGLE	T	Ich Auto Range
ICHOFFSETENABLE	TOGGLE	F	Ich Offset Enable
ICHOFFSET	QUANT	0	Ich Offset (V)
ICHFILTER	IQUANT	1	Ich Filter
VCHRANGE	IQUANT	2	Vch Range
VCHRANGEMODE	TOGGLE	T	Vch Auto Range
VCHOFFSETENABLE	TOGGLE	F	Vch Offset Enable
VCHOFFSET	QUANT	0	Vch Offset (V)
VCHFILTER	IQUANT	1	Vch Filter
IERANGELOWERLIMIT	IQUANT	9	I/E Range Lower Limit
IERANGEMODE	TOGGLE	F	I/E AutoRange
IERANGE	IQUANT	9	I/E Range
ACHSELECT	IQUANT	1	Ach Select
ACHRANGE	IQUANT	2	Ach Range
ACHOFFSETENABLE	TOGGLE	F	Ach Offset Enable
ACHOFFSET	QUANT	0	Ach Offset (V)
ACHFILTER	IQUANT	1	Ach Filter
CABLEID	IQUANT	14	Cable ID
DCCALDATE	LABEL	5-7-2017	DC Calibration Date
ACCALDATE	LABEL	12/3/2015	AC Calibration Date
FRAMEWORKVERSION	QUANT	7.01	Framework Version
INSTRUMENTVERSION	LABEL	4.00	Instrument Version
CURVE	TABLE	71
	Pt	T	Vf	Im	Vu	Pwr	Sig	Ach	Temp	IERange	Over
	#	s	V	A	V	W	V	V	deg C	#	bits
	0	0.013333	8.44499E-001	-9.84852E-005	0.00000E+000	-8.31706E-005	-5.99601E-002	8.44809E-001	3.57740E+000	9	...........
	1	0.026667	8.31487E-001	-9.88239E-005	0.00000E+000	-8.21708E-005	-5.99601E-002	8.31811E-001	3.57740E+000	9	...........
	2	0.04	8.19072E-001	-9.94959E-005	0.00000E+000	-8.14942E-005	-5.99601E-002	8.19392E-001	3.57740E+000	9	...........
	3	0.053333	8.07038E-001	-9.82008E-005	0.00000E+000	-7.92518E-005	-5.99601E-002	8.07322E-001	3.57740E+000	9	...........
	4	0.066667	7.95275E-001	-9.95198E-005	0.00000E+000	-7.91457E-005	-5.99601E-002	7.95546E-001	3.57740E+000	9	...........
	5	0.08	7.83724E-001	-9.97886E-005	0.00000E+000	-7.82067E-005	-5.99601E-002	7.83964E-001	3.57740E+000	9	...........
	6	0.093333	7.72326E-001	-9.89009E-005	0.00000E+000	-7.63837E-005	-5.99601E-002	7.72601E-001	3.57740E+000	9	...........
	7	0.106667	7.61079E-001	-9.77538E-005	0.00000E+000	-7.43984E-005	-5.99601E-002	7.61326E-001	3.57740E+000	9	...........
	8	0.12	7.49929E-001	-9.85696E-005	0.00000E+000	-7.39202E-005	-5.99601E-002	7.50165E-001	3.57740E+000	9	...........
	9	0.133333	7.38882E-001	-9.81935E-005	0.00000E+000	-7.25534E-005	-5.99601E-002	7.39144E-001	3.57740E+000	9	...........
	10	0.146667	7.27952E-001	-9.91875E-005	0.00000E+000	-7.22037E-005	-5.99601E-002	7.28193E-001	3.57670E+000	9	...........
	11	0.16	7.17108E-001	-9.89374E-005	0.00000E+000	-7.09488E-005	-5.99601E-002	7.17315E-001	3.57670E+000	9	...........
	12	0.173333	7.06299E-001	-9.82018E-005	0.00000E+000	-6.93598E-005	-5.99601E-002	7.06517E-001	3.57670E+000	9	...........
	13	0.186667	6.95612E-001	-9.75340E-005	0.00000E+000	-6.78458E-005	-5.99601E-002	6.95829E-001	3.57670E+000	9	...........
	14	0.2	6.84940E-001	-9.98116E-005	0.00000E+000	-6.83649E-005	-5.99601E-002	6.85169E-001	3.57670E+000	9	...........
	15	0.213333	6.74309E-001	-9.80643E-005	0.00000E+000	-6.61257E-005	-5.99601E-002	6.74534E-001	3.57670E+000	9	...........
	16	0.226667	6.63615E-001	-9.94479E-005	0.00000E+000	-6.59952E-005	-5.99601E-002	6.63850E-001	3.57670E+000	9	...........
	17	0.24	6.52866E-001	-9.81529E-005	0.00000E+000	-6.40807E-005	-5.99601E-002	6.53102E-001	3.57670E+000	9	...........
	18	0.253333	6.41974E-001	-9.76872E-005	0.00000E+000	-6.27126E-005	-5.99601E-002	6.42231E-001	3.57670E+000	9	...........
	19	0.266667	6.30951E-001	-9.79393E-005	0.00000E+000	-6.17949E-005	-5.99601E-002	6.31179E-001	3.57670E+000	9	...........
	20	0.28	6.19752E-001	-9.88739E-005	0.00000E+000	-6.12772E-005	-5.99601E-002	6.19982E-001	3.57670E+000	9	...........
	21	0.293333	6.08294E-001	-9.89416E-005	0.00000E+000	-6.01855E-005	-5.99601E-002	6.08570E-001	3.57670E+000	9	...........
	22	0.306667	5.96741E-001	-9.97730E-005	0.00000E+000	-5.95386E-005	-5.99601E-002	5.96996E-001	3.57670E+000	9	...........
	23	0.32	5.84970E-001	-9.80768E-005	0.00000E+000	-5.73720E-005	-5.99601E-002	5.85223E-001	3.57670E+000	9	...........
	24	0.333333	5.73047E-001	-9.83696E-005	0.00000E+000	-5.63704E-005	-5.99601E-002	5.73288E-001	3.57670E+000	9	...........
	25	0.346667	5.60925E-001	-9.94479E-005	0.00000E+000	-5.57828E-005	-5.99601E-002	5.61182E-001	3.57670E+000	9	...........
	26	0.36	5.48680E-001	-9.86301E-005	0.00000E+000	-5.41164E-005	-5.99601E-002	5.48941E-001	3.57670E+000	9	...........
	27	0.373333	5.36320E-001	-9.87603E-005	0.00000E+000	-5.29671E-005	-5.99601E-002	5.36567E-001	3.57670E+000	9	...........
	28	0.386667	5.23816E-001	-9.87249E-005	0.00000E+000	-5.17137E-005	-5.99601E-002	5.24049E-001	3.57670E+000	9	...........
	29	0.4	5.11202E-001	-9.83894E-005	0.00000E+000	-5.02968E-005	-5.99601E-002	5.11441E-001	3.57670E+000	9	...........
	30	0.413333	4.98491E-001	-1.00391E-004	0.00000E+000	-5.00439E-005	-5.99601E-002	4.98724E-001	3.57670E+000	9	...........
	31	0.426667	4.85819E-001	-9.88447E-005	0.00000E+000	-4.80207E-005	-5.99601E-002	4.86009E-001	3.57670E+000	9	...........
	32	0.44	4.73148E-001	-9.94688E-005	0.00000E+000	-4.70635E-005	-5.99601E-002	4.73254E-001	3.57670E+000	9	...........
	33	0.453333	4.60217E-001	-9.81800E-005	0.00000E+000	-4.51841E-005	-5.99601E-002	4.60319E-001	3.57670E+000	9	...........
	34	0.466667	4.47237E-001	-9.94313E-005	0.00000E+000	-4.44694E-005	-5.99601E-002	4.47332E-001	3.57670E+000	9	...........
	35	0.48	4.34220E-001	-9.82550E-005	0.00000E+000	-4.26643E-005	-5.99601E-002	4.34311E-001	3.57670E+000	9	...........
	36	0.493333	4.21172E-001	-9.81289E-005	0.00000E+000	-4.13291E-005	-5.99601E-002	4.21263E-001	3.57670E+000	9	...........
	37	0.506667	4.08113E-001	-9.85290E-005	0.00000E+000	-4.02110E-005	-5.99601E-002	4.08196E-001	3.57670E+000	9	...........
	38	0.52	3.95054E-001	-9.73319E-005	0.00000E+000	-3.84513E-005	-5.99601E-002	3.95130E-001	3.57670E+000	9	...........
	39	0.533333	3.81978E-001	-9.96105E-005	0.00000E+000	-3.80490E-005	-5.99601E-002	3.82049E-001	3.57670E+000	9	...........
	40	0.546667	3.68923E-001	-9.91479E-005	0.00000E+000	-3.65780E-005	-5.99601E-002	3.69002E-001	3.57670E+000	9	...........
	41	0.56	3.55889E-001	-9.87957E-005	0.00000E+000	-3.51603E-005	-5.99601E-002	3.55963E-001	3.57670E+000	9	...........
	42	0.573333	3.42877E-001	-9.85123E-005	0.00000E+000	-3.37776E-005	-5.99601E-002	3.42952E-001	3.57670E+000	9	...........
	43	0.586667	3.29908E-001	-9.93000E-005	0.00000E+000	-3.27598E-005	-5.99601E-002	3.29976E-001	3.57670E+000	9	...........
	44	0.6	3.16985E-001	-9.97928E-005	0.00000E+000	-3.16328E-005	-5.99601E-002	3.17050E-001	3.57670E+000	9	...........
	45	0.613333	3.04092E-001	-9.82425E-005	0.00000E+000	-2.98747E-005	-5.99601E-002	3.04161E-001	3.57670E+000	9	...........
	46	0.626667	2.91255E-001	-9.89082E-005	0.00000E+000	-2.88075E-005	-5.99601E-002	2.91318E-001	3.57670E+000	9	...........
	47	0.64	2.78462E-001	-9.80289E-005	0.00000E+000	-2.72973E-005	-5.99601E-002	2.78523E-001	3.57670E+000	9	...........
	48	0.653333	2.65715E-001	-9.86373E-005	0.00000E+000	-2.62094E-005	-5.99601E-002	2.65775E-001	3.57670E+000	9	...........
	49	0.666667	2.53027E-001	-9.96001E-005	0.00000E+000	-2.52015E-005	-5.99601E-002	2.53090E-001	3.57670E+000	9	...........
	50	0.68	2.40405E-001	-9.73194E-005	0.00000E+000	-2.33960E-005	-5.99601E-002	2.40453E-001	3.57670E+000	9	...........
	51	0.693333	2.27810E-001	-9.79039E-005	0.00000E+000	-2.23035E-005	-5.99601E-002	2.27860E-001	3.57670E+000	9	...........
	52	0.706667	2.15276E-001	-9.92260E-005	0.00000E+000	-2.13610E-005	-5.99601E-002	2.15322E-001	3.57670E+000	9	...........
	53	0.72	2.02789E-001	-9.83998E-005	0.00000E+000	-1.99543E-005	-5.99601E-002	2.02831E-001	3.57670E+000	9	...........
	54	0.733333	1.90347E-001	-9.73506E-005	0.00000E+000	-1.85304E-005	-5.99601E-002	1.90382E-001	3.57670E+000	9	...........
	55	0.746667	1.77936E-001	-9.85957E-005	0.00000E+000	-1.75437E-005	-5.99601E-002	1.77978E-001	3.57670E+000	9	...........
	56	0.76	1.65589E-001	-9.89103E-005	0.00000E+000	-1.63785E-005	-5.99601E-002	1.65625E-001	3.57670E+000	9	...........
	57	0.773333	1.53285E-001	-9.82748E-005	0.00000E+000	-1.50641E-005	-5.99601E-002	1.53312E-001	3.57670E+000	9	...........
	58	0.786667	1.41021E-001	-9.88478E-005	0.00000E+000	-1.39396E-005	-5.99601E-002	1.41053E-001	3.57670E+000	9	...........
	59	0.8	1.28821E-001	-9.87895E-005	0.00000E+000	-1.27261E-005	-5.99601E-002	1.28851E-001	3.57670E+000	9	...........
	60	0.813333	1.16689E-001	-9.89280E-005	0.00000E+000	-1.15438E-005	-5.99601E-002	1.16716E-001	3.57670E+000	9	...........
	61	0.826667	1.04618E-001	-9.91281E-005	0.00000E+000	-1.03706E-005	-5.99601E-002	1.04635E-001	3.57670E+000	9	...........
	62	0.84	9.26216E-002	-9.86738E-005	0.00000E+000	-9.13933E-006	-5.99601E-002	9.26416E-002	3.57670E+000	9	...........
	63	0.853333	8.07231E-002	-9.89291E-005	0.00000E+000	-7.98586E-006	-5.99601E-002	8.07381E-002	3.57670E+000	9	...........
	64	0.866667	6.89288E-002	-9.82789E-005	0.00000E+000	-6.77425E-006	-5.99601E-002	6.89361E-002	3.57670E+000	9	...........
	65	0.88	5.72376E-002	-9.97438E-005	0.00000E+000	-5.70910E-006	-5.99601E-002	5.72417E-002	3.57670E+000	9	...........
	66	0.893333	4.56757E-002	-9.91864E-005	0.00000E+000	-4.53040E-006	-5.99601E-002	4.56884E-002	3.57670E+000	9	...........
	67	0.906667	3.42454E-002	-9.85926E-005	0.00000E+000	-3.37634E-006	-5.99601E-002	3.42502E-002	3.57670E+000	9	...........
	68	0.92	2.29415E-002	-1.00560E-004	0.00000E+000	-2.30699E-006	-5.99601E-002	2.29373E-002	3.57670E+000	9	...........
	69	0.933333	1.17828E-002	-9.80351E-005	0.00000E+000	-1.15513E-006	-5.99601E-002	1.17705E-002	3.57670E+000	9	...........
	70	0.943333	2.14663E-003	-9.80754E-005	0.00000E+000	-2.10532E-007	-5.99601E-002	2.12605E-003	3.57670E+000	9	...........
STARTTIMEOFFSET	QUANT	810.0468	Start Time Offset (s)
