EXPLAIN
TAG	PWR800_DISCHARGE
TITLE	LABEL	PWR Cyclic Charge Discharge (Cell) - Discharge Step	Test &Identifier
DATE	LABEL	12-7-2017	Date
TIME	LABEL	16:48:42	Time
NOTES	NOTES	2	&Notes...
	supercap test cell
	6M KOH
PSTAT	PSTAT	IFC5000-01520	Potentiostat
CAPACITY	QUANT	1.00000E-003	Capacity (A-hr)
CELLTYPE	SELECTOR	1	&Cell Type
WORKINGCONNECTION	SELECTOR	0	&Working Lead
MAXDISCHARGETIME	VARIABLEANDUNITS	1.00000E+002	s	1.00000E+002	second(s)	Max &Discharge Time
DISCHARGEMODE	MULTIPARAM	0	1.00000E-004	&Discharge Mode	Constant Current	Amp(s)
SAMPLETIME	QUANT	1.00000E-002	Sa&mple Period (s)
DISCHARGESTOPAT1	MULTIPARAM	3	0.00000E+000	Discharge Stop At &1	Voltage < Limit	V
DISCHARGESTOPAT2	MULTIPARAM	0	0.00000E+000	Discharge Stop At &2	None	N/A
AESBHCSELECTOR	TOGGLE	F	Save Both Half Cells
IRCOMP	TOGGLE	F	IR &Measure
EOC	QUANT	0	Open Circuit (V)
SEQUENCER	TOGGLE	TRUE	Run as Sequence
PSTATMODEL	IQUANT	53	Pstat Model
PSTATSECTION	LABEL	IFC5000-01520	Pstat Section
PSTATSERIALNO	LABEL	01520	Pstat Serial Number
CTRLMODE	IQUANT	0	Control Mode
ELECTROMETER	IQUANT	1	RE=0 or CS=1
IESTAB	IQUANT	0	I/E Stability
CASPEED	IQUANT	4	Control Amp Speed
CONVENTION	IQUANT	1	Current Convention
ICHRANGE	IQUANT	2	Ich Range
ICHRANGEMODE	TOGGLE	T	Ich Auto Range
ICHOFFSETENABLE	TOGGLE	F	Ich Offset Enable
ICHOFFSET	QUANT	0	Ich Offset (V)
ICHFILTER	IQUANT	1	Ich Filter
VCHRANGE	IQUANT	2	Vch Range
VCHRANGEMODE	TOGGLE	T	Vch Auto Range
VCHOFFSETENABLE	TOGGLE	F	Vch Offset Enable
VCHOFFSET	QUANT	0	Vch Offset (V)
VCHFILTER	IQUANT	1	Vch Filter
IERANGELOWERLIMIT	IQUANT	9	I/E Range Lower Limit
IERANGEMODE	TOGGLE	F	I/E AutoRange
IERANGE	IQUANT	9	I/E Range
ACHSELECT	IQUANT	1	Ach Select
ACHRANGE	IQUANT	2	Ach Range
ACHOFFSETENABLE	TOGGLE	F	Ach Offset Enable
ACHOFFSET	QUANT	0	Ach Offset (V)
ACHFILTER	IQUANT	1	Ach Filter
CABLEID	IQUANT	14	Cable ID
DCCALDATE	LABEL	5-7-2017	DC Calibration Date
ACCALDATE	LABEL	12/3/2015	AC Calibration Date
FRAMEWORKVERSION	QUANT	7.01	Framework Version
INSTRUMENTVERSION	LABEL	4.00	Instrument Version
CURVE	TABLE	70
	Pt	T	Vf	Im	Vu	Pwr	Sig	Ach	Temp	IERange	Over
	#	s	V	A	V	W	V	V	deg C	#	bits
	0	0.013333	8.44492E-001	-9.86957E-005	0.00000E+000	-8.33478E-005	-5.99601E-002	8.44792E-001	3.57790E+000	9	...........
	1	0.026667	8.31310E-001	-9.89082E-005	0.00000E+000	-8.22234E-005	-5.99601E-002	8.31597E-001	3.57790E+000	9	...........
	2	0.04	8.18699E-001	-9.75371E-005	0.00000E+000	-7.98535E-005	-5.99601E-002	8.19000E-001	3.57790E+000	9	...........
	3	0.053333	8.06452E-001	-9.90301E-005	0.00000E+000	-7.98630E-005	-5.99601E-002	8.06761E-001	3.57790E+000	9	...........
	4	0.066667	7.94503E-001	-9.77142E-005	0.00000E+000	-7.76342E-005	-5.99601E-002	7.94790E-001	3.57790E+000	9	...........
	5	0.08	7.82730E-001	-9.87363E-005	0.00000E+000	-7.72838E-005	-5.99601E-002	7.83007E-001	3.57790E+000	9	...........
	6	0.093333	7.71096E-001	-9.82591E-005	0.00000E+000	-7.57673E-005	-5.99601E-002	7.71385E-001	3.57790E+000	9	...........
	7	0.106667	7.59626E-001	-9.99762E-005	0.00000E+000	-7.59445E-005	-5.99601E-002	7.59872E-001	3.57790E+000	9	...........
	8	0.12	7.48223E-001	-9.93365E-005	0.00000E+000	-7.43258E-005	-5.99601E-002	7.48507E-001	3.57790E+000	9	...........
	9	0.133333	7.36933E-001	-9.93167E-005	0.00000E+000	-7.31897E-005	-5.99601E-002	7.37204E-001	3.57790E+000	9	...........
	10	0.146667	7.25761E-001	-9.81945E-005	0.00000E+000	-7.12658E-005	-5.99601E-002	7.26006E-001	3.57790E+000	9	...........
	11	0.16	7.14619E-001	-9.91427E-005	0.00000E+000	-7.08493E-005	-5.99601E-002	7.14873E-001	3.57790E+000	9	...........
	12	0.173333	7.03608E-001	-9.84529E-005	0.00000E+000	-6.92723E-005	-5.99601E-002	7.03846E-001	3.57790E+000	9	...........
	13	0.186667	6.92649E-001	-9.75330E-005	0.00000E+000	-6.75561E-005	-5.99601E-002	6.92895E-001	3.57790E+000	9	...........
	14	0.2	6.81792E-001	-9.73652E-005	0.00000E+000	-6.63828E-005	-5.99601E-002	6.82007E-001	3.57790E+000	9	...........
	15	0.213333	6.70986E-001	-9.94136E-005	0.00000E+000	-6.67051E-005	-5.99601E-002	6.71190E-001	3.57790E+000	9	...........
	16	0.226667	6.60195E-001	-9.87582E-005	0.00000E+000	-6.51997E-005	-5.99601E-002	6.60447E-001	3.57790E+000	9	...........
	17	0.24	6.49464E-001	-9.92104E-005	0.00000E+000	-6.44336E-005	-5.99601E-002	6.49684E-001	3.57790E+000	9	...........
	18	0.253333	6.38681E-001	-9.83748E-005	0.00000E+000	-6.28301E-005	-5.99601E-002	6.38922E-001	3.57790E+000	9	...........
	19	0.266667	6.27821E-001	-9.88801E-005	0.00000E+000	-6.20790E-005	-5.99601E-002	6.28057E-001	3.57790E+000	9	...........
	20	0.28	6.16871E-001	-9.91104E-005	0.00000E+000	-6.11383E-005	-5.99601E-002	6.17079E-001	3.57790E+000	9	...........
	21	0.293333	6.05685E-001	-9.80206E-005	0.00000E+000	-5.93696E-005	-5.99601E-002	6.05931E-001	3.57790E+000	9	...........
	22	0.306667	5.94360E-001	-9.84561E-005	0.00000E+000	-5.85183E-005	-5.99601E-002	5.94572E-001	3.57790E+000	9	...........
	23	0.32	5.82794E-001	-9.73235E-005	0.00000E+000	-5.67196E-005	-5.99601E-002	5.82986E-001	3.57790E+000	9	...........
	24	0.333333	5.71012E-001	-9.95823E-005	0.00000E+000	-5.68628E-005	-5.99601E-002	5.71212E-001	3.57790E+000	9	...........
	25	0.346667	5.59012E-001	-9.93302E-005	0.00000E+000	-5.55268E-005	-5.99601E-002	5.59229E-001	3.57790E+000	9	...........
	26	0.36	5.46837E-001	-9.90416E-005	0.00000E+000	-5.41596E-005	-5.99601E-002	5.47056E-001	3.57790E+000	9	...........
	27	0.373333	5.34446E-001	-9.95146E-005	0.00000E+000	-5.31852E-005	-5.99601E-002	5.34666E-001	3.57740E+000	9	...........
	28	0.386667	5.21934E-001	-9.83644E-005	0.00000E+000	-5.13397E-005	-5.99601E-002	5.22152E-001	3.57690E+000	9	...........
	29	0.4	5.09213E-001	-9.86238E-005	0.00000E+000	-5.02206E-005	-5.99601E-002	5.09474E-001	3.57690E+000	9	...........
	30	0.413333	4.96407E-001	-9.79778E-005	0.00000E+000	-4.86369E-005	-5.99601E-002	4.96638E-001	3.57690E+000	9	...........
	31	0.426667	4.83619E-001	-9.91187E-005	0.00000E+000	-4.79357E-005	-5.99601E-002	4.83786E-001	3.57690E+000	9	...........
	32	0.44	4.70715E-001	-9.82206E-005	0.00000E+000	-4.62339E-005	-5.99601E-002	4.70820E-001	3.57690E+000	9	...........
	33	0.453333	4.57566E-001	-9.95459E-005	0.00000E+000	-4.55489E-005	-5.99601E-002	4.57661E-001	3.57690E+000	9	...........
	34	0.466667	4.44339E-001	-9.77538E-005	0.00000E+000	-4.34358E-005	-5.99601E-002	4.44436E-001	3.57690E+000	9	...........
	35	0.48	4.31045E-001	-9.76944E-005	0.00000E+000	-4.21107E-005	-5.99601E-002	4.31140E-001	3.57690E+000	9	...........
	36	0.493333	4.17693E-001	-9.97490E-005	0.00000E+000	-4.16645E-005	-5.99601E-002	4.17790E-001	3.57690E+000	9	...........
	37	0.506667	4.04313E-001	-9.82592E-005	0.00000E+000	-3.97275E-005	-5.99601E-002	4.04399E-001	3.57690E+000	9	...........
	38	0.52	3.90904E-001	-9.83550E-005	0.00000E+000	-3.84474E-005	-5.99601E-002	3.90980E-001	3.57690E+000	9	...........
	39	0.533333	3.77485E-001	-9.94500E-005	0.00000E+000	-3.75409E-005	-5.99601E-002	3.77558E-001	3.57690E+000	9	...........
	40	0.546667	3.64064E-001	-9.87311E-005	0.00000E+000	-3.59444E-005	-5.99601E-002	3.64142E-001	3.57690E+000	9	...........
	41	0.56	3.50645E-001	-9.89749E-005	0.00000E+000	-3.47051E-005	-5.99601E-002	3.50721E-001	3.57690E+000	9	...........
	42	0.573333	3.37248E-001	-9.92239E-005	0.00000E+000	-3.34631E-005	-5.99601E-002	3.37325E-001	3.57690E+000	9	...........
	43	0.586667	3.23892E-001	-9.96324E-005	0.00000E+000	-3.22701E-005	-5.99601E-002	3.23960E-001	3.57690E+000	9	...........
	44	0.6	3.10572E-001	-9.84998E-005	0.00000E+000	-3.05913E-005	-5.99601E-002	3.10634E-001	3.57690E+000	9	...........
	45	0.613333	2.97292E-001	-9.94594E-005	0.00000E+000	-2.95685E-005	-5.99601E-002	2.97351E-001	3.57690E+000	9	...........
	46	0.626667	2.84073E-001	-9.80997E-005	0.00000E+000	-2.78675E-005	-5.99601E-002	2.84136E-001	3.57690E+000	9	...........
	47	0.64	2.70918E-001	-9.77101E-005	0.00000E+000	-2.64714E-005	-5.99601E-002	2.70977E-001	3.57690E+000	9	...........
	48	0.653333	2.57819E-001	-9.78195E-005	0.00000E+000	-2.52197E-005	-5.99601E-002	2.57874E-001	3.57690E+000	9	...........
	49	0.666667	2.44796E-001	-9.92375E-005	0.00000E+000	-2.42929E-005	-5.99601E-002	2.44842E-001	3.57690E+000	9	...........
	50	0.68	2.31837E-001	-1.00387E-004	0.00000E+000	-2.32734E-005	-5.99601E-002	2.31878E-001	3.57690E+000	9	...........
	51	0.693333	2.18948E-001	-9.97595E-005	0.00000E+000	-2.18421E-005	-5.99601E-002	2.18989E-001	3.57690E+000	9	...........
	52	0.706667	2.06139E-001	-9.83144E-005	0.00000E+000	-2.02664E-005	-5.99601E-002	2.06176E-001	3.57690E+000	9	...........
	53	0.72	1.93399E-001	-9.85623E-005	0.00000E+000	-1.90619E-005	-5.99601E-002	1.93437E-001	3.57690E+000	9	...........
	54	0.733333	1.80743E-001	-9.89416E-005	0.00000E+000	-1.78830E-005	-5.99601E-002	1.80777E-001	3.57690E+000	9	...........
	55	0.746667	1.68146E-001	-9.96678E-005	0.00000E+000	-1.67588E-005	-5.99601E-002	1.68181E-001	3.57690E+000	9	...........
	56	0.76	1.55635E-001	-9.91114E-005	0.00000E+000	-1.54252E-005	-5.99601E-002	1.55662E-001	3.57690E+000	9	...........
	57	0.773333	1.43196E-001	-9.77267E-005	0.00000E+000	-1.39941E-005	-5.99601E-002	1.43223E-001	3.57690E+000	9	...........
	58	0.786667	1.30832E-001	-9.94156E-005	0.00000E+000	-1.30068E-005	-5.99601E-002	1.30857E-001	3.57690E+000	9	...........
	59	0.8	1.18556E-001	-9.84394E-005	0.00000E+000	-1.16706E-005	-5.99601E-002	1.18583E-001	3.57690E+000	9	...........
	60	0.813333	1.06363E-001	-9.98084E-005	0.00000E+000	-1.06159E-005	-5.99601E-002	1.06387E-001	3.57690E+000	9	...........
	61	0.826667	9.42702E-002	-9.99074E-005	0.00000E+000	-9.41829E-006	-5.99601E-002	9.42883E-002	3.57690E+000	9	...........
	62	0.84	8.22833E-002	-9.76132E-005	0.00000E+000	-8.03193E-006	-5.99601E-002	8.22943E-002	3.57690E+000	9	...........
	63	0.853333	7.03980E-002	-9.74579E-005	0.00000E+000	-6.86085E-006	-5.99601E-002	7.04095E-002	3.57690E+000	9	...........
	64	0.866667	5.86426E-002	-9.86030E-005	0.00000E+000	-5.78233E-006	-5.99601E-002	5.86526E-002	3.57690E+000	9	...........
	65	0.88	4.70345E-002	-9.93917E-005	0.00000E+000	-4.67483E-006	-5.99601E-002	4.70419E-002	3.57690E+000	9	...........
	66	0.893333	3.55695E-002	-9.84821E-005	0.00000E+000	-3.50296E-006	-5.99601E-002	3.55738E-002	3.57690E+000	9	...........
	67	0.906667	2.42489E-002	-9.90624E-005	0.00000E+000	-2.40216E-006	-5.99601E-002	2.42420E-002	3.57690E+000	9	...........
	68	0.92	1.30840E-002	-9.85019E-005	0.00000E+000	-1.28880E-006	-5.99601E-002	1.30707E-002	3.57690E+000	9	...........
	69	0.931667	2.77153E-003	-9.82114E-005	0.00000E+000	-2.72196E-007	-5.99601E-002	2.75372E-003	3.57690E+000	9	...........
STARTTIMEOFFSET	QUANT	1647.807	Start Time Offset (s)
