EXPLAIN
TAG	PWR800_DISCHARGE
TITLE	LABEL	PWR Cyclic Charge Discharge (Cell) - Discharge Step	Test &Identifier
DATE	LABEL	12-7-2017	Date
TIME	LABEL	16:36:13	Time
NOTES	NOTES	2	&Notes...
	supercap test cell
	6M KOH
PSTAT	PSTAT	IFC5000-01520	Potentiostat
CAPACITY	QUANT	1.00000E-003	Capacity (A-hr)
CELLTYPE	SELECTOR	1	&Cell Type
WORKINGCONNECTION	SELECTOR	0	&Working Lead
MAXDISCHARGETIME	VARIABLEANDUNITS	1.00000E+002	s	1.00000E+002	second(s)	Max &Discharge Time
DISCHARGEMODE	MULTIPARAM	0	1.00000E-004	&Discharge Mode	Constant Current	Amp(s)
SAMPLETIME	QUANT	1.00000E-002	Sa&mple Period (s)
DISCHARGESTOPAT1	MULTIPARAM	3	0.00000E+000	Discharge Stop At &1	Voltage < Limit	V
DISCHARGESTOPAT2	MULTIPARAM	0	0.00000E+000	Discharge Stop At &2	None	N/A
AESBHCSELECTOR	TOGGLE	F	Save Both Half Cells
IRCOMP	TOGGLE	F	IR &Measure
EOC	QUANT	0	Open Circuit (V)
SEQUENCER	TOGGLE	TRUE	Run as Sequence
PSTATMODEL	IQUANT	53	Pstat Model
PSTATSECTION	LABEL	IFC5000-01520	Pstat Section
PSTATSERIALNO	LABEL	01520	Pstat Serial Number
CTRLMODE	IQUANT	0	Control Mode
ELECTROMETER	IQUANT	1	RE=0 or CS=1
IESTAB	IQUANT	0	I/E Stability
CASPEED	IQUANT	4	Control Amp Speed
CONVENTION	IQUANT	1	Current Convention
ICHRANGE	IQUANT	2	Ich Range
ICHRANGEMODE	TOGGLE	T	Ich Auto Range
ICHOFFSETENABLE	TOGGLE	F	Ich Offset Enable
ICHOFFSET	QUANT	0	Ich Offset (V)
ICHFILTER	IQUANT	1	Ich Filter
VCHRANGE	IQUANT	2	Vch Range
VCHRANGEMODE	TOGGLE	T	Vch Auto Range
VCHOFFSETENABLE	TOGGLE	F	Vch Offset Enable
VCHOFFSET	QUANT	0	Vch Offset (V)
VCHFILTER	IQUANT	1	Vch Filter
IERANGELOWERLIMIT	IQUANT	9	I/E Range Lower Limit
IERANGEMODE	TOGGLE	F	I/E AutoRange
IERANGE	IQUANT	9	I/E Range
ACHSELECT	IQUANT	1	Ach Select
ACHRANGE	IQUANT	2	Ach Range
ACHOFFSETENABLE	TOGGLE	F	Ach Offset Enable
ACHOFFSET	QUANT	0	Ach Offset (V)
ACHFILTER	IQUANT	1	Ach Filter
CABLEID	IQUANT	14	Cable ID
DCCALDATE	LABEL	5-7-2017	DC Calibration Date
ACCALDATE	LABEL	12/3/2015	AC Calibration Date
FRAMEWORKVERSION	QUANT	7.01	Framework Version
INSTRUMENTVERSION	LABEL	4.00	Instrument Version
CURVE	TABLE	71
	Pt	T	Vf	Im	Vu	Pwr	Sig	Ach	Temp	IERange	Over
	#	s	V	A	V	W	V	V	deg C	#	bits
	0	0.013333	8.44255E-001	-9.82529E-005	0.00000E+000	-8.29505E-005	-5.99601E-002	8.44589E-001	3.57740E+000	9	...........
	1	0.026667	8.31200E-001	-9.86082E-005	0.00000E+000	-8.19631E-005	-5.99601E-002	8.31536E-001	3.57740E+000	9	...........
	2	0.04	8.18712E-001	-9.87697E-005	0.00000E+000	-8.08639E-005	-5.99601E-002	8.19027E-001	3.57740E+000	9	...........
	3	0.053333	8.06610E-001	-9.81602E-005	0.00000E+000	-7.91769E-005	-5.99601E-002	8.06930E-001	3.57740E+000	9	...........
	4	0.066667	7.94764E-001	-9.90406E-005	0.00000E+000	-7.87139E-005	-5.99601E-002	7.95066E-001	3.57740E+000	9	...........
	5	0.08	7.83131E-001	-9.86947E-005	0.00000E+000	-7.72908E-005	-5.99601E-002	7.83426E-001	3.57740E+000	9	...........
	6	0.093333	7.71657E-001	-9.98209E-005	0.00000E+000	-7.70275E-005	-5.99601E-002	7.71964E-001	3.57740E+000	9	...........
	7	0.106667	7.60316E-001	-9.86321E-005	0.00000E+000	-7.49916E-005	-5.99601E-002	7.60604E-001	3.57740E+000	9	...........
	8	0.12	7.49090E-001	-9.84154E-005	0.00000E+000	-7.37220E-005	-5.99601E-002	7.49381E-001	3.57740E+000	9	...........
	9	0.133333	7.37953E-001	-9.90812E-005	0.00000E+000	-7.31173E-005	-5.99601E-002	7.38238E-001	3.57740E+000	9	...........
	10	0.146667	7.26939E-001	-9.91718E-005	0.00000E+000	-7.20919E-005	-5.99601E-002	7.27226E-001	3.57740E+000	9	...........
	11	0.16	7.15992E-001	-9.85946E-005	0.00000E+000	-7.05930E-005	-5.99601E-002	7.16273E-001	3.57740E+000	9	...........
	12	0.173333	7.05155E-001	-9.88124E-005	0.00000E+000	-6.96780E-005	-5.99601E-002	7.05411E-001	3.57740E+000	9	...........
	13	0.186667	6.94372E-001	-9.92937E-005	0.00000E+000	-6.89468E-005	-5.99601E-002	6.94615E-001	3.57740E+000	9	...........
	14	0.2	6.83659E-001	-9.90895E-005	0.00000E+000	-6.77435E-005	-5.99601E-002	6.83914E-001	3.57740E+000	9	...........
	15	0.213333	6.73009E-001	-9.83769E-005	0.00000E+000	-6.62085E-005	-5.99601E-002	6.73247E-001	3.57740E+000	9	...........
	16	0.226667	6.62345E-001	-9.89937E-005	0.00000E+000	-6.55680E-005	-5.99601E-002	6.62557E-001	3.57740E+000	9	...........
	17	0.24	6.51667E-001	-9.92666E-005	0.00000E+000	-6.46888E-005	-5.99601E-002	6.51872E-001	3.57740E+000	9	...........
	18	0.253333	6.40913E-001	-9.95948E-005	0.00000E+000	-6.38317E-005	-5.99601E-002	6.41141E-001	3.57740E+000	9	...........
	19	0.266667	6.30061E-001	-9.77622E-005	0.00000E+000	-6.15961E-005	-5.99601E-002	6.30283E-001	3.57740E+000	9	...........
	20	0.28	6.19070E-001	-9.83873E-005	0.00000E+000	-6.09086E-005	-5.99601E-002	6.19268E-001	3.57740E+000	9	...........
	21	0.293333	6.07814E-001	-9.92104E-005	0.00000E+000	-6.03014E-005	-5.99601E-002	6.08060E-001	3.57740E+000	9	...........
	22	0.306667	5.96434E-001	-9.82539E-005	0.00000E+000	-5.86020E-005	-5.99601E-002	5.96655E-001	3.57740E+000	9	...........
	23	0.32	5.84823E-001	-9.85113E-005	0.00000E+000	-5.76116E-005	-5.99601E-002	5.85067E-001	3.57740E+000	9	...........
	24	0.333333	5.73051E-001	-9.87155E-005	0.00000E+000	-5.65690E-005	-5.99601E-002	5.73261E-001	3.57740E+000	9	...........
	25	0.346667	5.61043E-001	-9.79737E-005	0.00000E+000	-5.49674E-005	-5.99601E-002	5.61274E-001	3.57740E+000	9	...........
	26	0.36	5.48876E-001	-9.86384E-005	0.00000E+000	-5.41402E-005	-5.99601E-002	5.49121E-001	3.57740E+000	9	...........
	27	0.373333	5.36571E-001	-9.85873E-005	0.00000E+000	-5.28991E-005	-5.99601E-002	5.36789E-001	3.57740E+000	9	...........
	28	0.386667	5.24085E-001	-9.86061E-005	0.00000E+000	-5.16780E-005	-5.99601E-002	5.24334E-001	3.57740E+000	9	...........
	29	0.4	5.11480E-001	-9.86384E-005	0.00000E+000	-5.04516E-005	-5.99601E-002	5.11723E-001	3.57740E+000	9	...........
	30	0.413333	4.98712E-001	-9.88884E-005	0.00000E+000	-4.93169E-005	-5.99601E-002	4.99004E-001	3.57740E+000	9	...........
	31	0.426667	4.86021E-001	-9.94865E-005	0.00000E+000	-4.83525E-005	-5.99601E-002	4.86208E-001	3.57740E+000	9	...........
	32	0.44	4.73302E-001	-9.87030E-005	0.00000E+000	-4.67163E-005	-5.99601E-002	4.73409E-001	3.57740E+000	9	...........
	33	0.453333	4.60293E-001	-9.84727E-005	0.00000E+000	-4.53263E-005	-5.99601E-002	4.60397E-001	3.57740E+000	9	...........
	34	0.466667	4.47212E-001	-1.00067E-004	0.00000E+000	-4.47511E-005	-5.99601E-002	4.47318E-001	3.57740E+000	9	...........
	35	0.48	4.34088E-001	-9.79403E-005	0.00000E+000	-4.25147E-005	-5.99601E-002	4.34185E-001	3.57740E+000	9	...........
	36	0.493333	4.20909E-001	-9.87822E-005	0.00000E+000	-4.15783E-005	-5.99601E-002	4.21004E-001	3.57740E+000	9	...........
	37	0.506667	4.07699E-001	-9.88864E-005	0.00000E+000	-4.03159E-005	-5.99601E-002	4.07790E-001	3.57740E+000	9	...........
	38	0.52	3.94482E-001	-9.95011E-005	0.00000E+000	-3.92514E-005	-5.99601E-002	3.94560E-001	3.57740E+000	9	...........
	39	0.533333	3.81251E-001	-9.92427E-005	0.00000E+000	-3.78364E-005	-5.99601E-002	3.81326E-001	3.57740E+000	9	...........
	40	0.546667	3.68022E-001	-9.93719E-005	0.00000E+000	-3.65710E-005	-5.99601E-002	3.68103E-001	3.57740E+000	9	...........
	41	0.56	3.54808E-001	-9.88447E-005	0.00000E+000	-3.50709E-005	-5.99601E-002	3.54883E-001	3.57740E+000	9	...........
	42	0.573333	3.41610E-001	-9.77903E-005	0.00000E+000	-3.34062E-005	-5.99601E-002	3.41686E-001	3.57740E+000	9	...........
	43	0.586667	3.28455E-001	-9.88759E-005	0.00000E+000	-3.24763E-005	-5.99601E-002	3.28520E-001	3.57740E+000	9	...........
	44	0.6	3.15335E-001	-1.00145E-004	0.00000E+000	-3.15793E-005	-5.99601E-002	3.15404E-001	3.57740E+000	9	...........
	45	0.613333	3.02259E-001	-9.89812E-005	0.00000E+000	-2.99179E-005	-5.99601E-002	3.02329E-001	3.57740E+000	9	...........
	46	0.626667	2.89239E-001	-9.99668E-005	0.00000E+000	-2.89143E-005	-5.99601E-002	2.89295E-001	3.57740E+000	9	...........
	47	0.64	2.76277E-001	-9.94250E-005	0.00000E+000	-2.74688E-005	-5.99601E-002	2.76336E-001	3.57740E+000	9	...........
	48	0.653333	2.63375E-001	-9.90239E-005	0.00000E+000	-2.60804E-005	-5.99601E-002	2.63429E-001	3.57740E+000	9	...........
	49	0.666667	2.50535E-001	-9.76371E-005	0.00000E+000	-2.44615E-005	-5.99601E-002	2.50581E-001	3.57740E+000	9	...........
	50	0.68	2.37755E-001	-1.00492E-004	0.00000E+000	-2.38925E-005	-5.99601E-002	2.37798E-001	3.57740E+000	9	...........
	51	0.693333	2.25040E-001	-9.86978E-005	0.00000E+000	-2.22110E-005	-5.99601E-002	2.25081E-001	3.57740E+000	9	...........
	52	0.706667	2.12380E-001	-9.94563E-005	0.00000E+000	-2.11225E-005	-5.99601E-002	2.12417E-001	3.57740E+000	9	...........
	53	0.72	1.99788E-001	-9.95084E-005	0.00000E+000	-1.98806E-005	-5.99601E-002	1.99826E-001	3.57740E+000	9	...........
	54	0.733333	1.87263E-001	-9.86196E-005	0.00000E+000	-1.84678E-005	-5.99601E-002	1.87297E-001	3.57766E+000	9	...........
	55	0.746667	1.74795E-001	-9.88801E-005	0.00000E+000	-1.72838E-005	-5.99601E-002	1.74823E-001	3.57810E+000	9	...........
	56	0.76	1.62389E-001	-9.87405E-005	0.00000E+000	-1.60344E-005	-5.99601E-002	1.62414E-001	3.57810E+000	9	...........
	57	0.773333	1.50037E-001	-9.88499E-005	0.00000E+000	-1.48312E-005	-5.99601E-002	1.50062E-001	3.57810E+000	9	...........
	58	0.786667	1.37739E-001	-9.94521E-005	0.00000E+000	-1.36984E-005	-5.99601E-002	1.37768E-001	3.57810E+000	9	...........
	59	0.8	1.25524E-001	-9.95355E-005	0.00000E+000	-1.24940E-005	-5.99601E-002	1.25541E-001	3.57810E+000	9	...........
	60	0.813333	1.13372E-001	-9.86426E-005	0.00000E+000	-1.11833E-005	-5.99601E-002	1.13395E-001	3.57810E+000	9	...........
	61	0.826667	1.01303E-001	-9.77768E-005	0.00000E+000	-9.90509E-006	-5.99601E-002	1.01327E-001	3.57810E+000	9	...........
	62	0.84	8.93233E-002	-9.75569E-005	0.00000E+000	-8.71410E-006	-5.99601E-002	8.93410E-002	3.57810E+000	9	...........
	63	0.853333	7.74478E-002	-9.80914E-005	0.00000E+000	-7.59696E-006	-5.99601E-002	7.74573E-002	3.57810E+000	9	...........
	64	0.866667	6.56753E-002	-9.84811E-005	0.00000E+000	-6.46778E-006	-5.99601E-002	6.56843E-002	3.57810E+000	9	...........
	65	0.88	5.40241E-002	-9.87947E-005	0.00000E+000	-5.33729E-006	-5.99601E-002	5.40301E-002	3.57810E+000	9	...........
	66	0.893333	4.25335E-002	-9.92614E-005	0.00000E+000	-4.22193E-006	-5.99601E-002	4.25404E-002	3.57810E+000	9	...........
	67	0.906667	3.11509E-002	-9.87238E-005	0.00000E+000	-3.07533E-006	-5.99601E-002	3.11492E-002	3.57810E+000	9	...........
	68	0.92	1.99092E-002	-9.91802E-005	0.00000E+000	-1.97460E-006	-5.99601E-002	1.98998E-002	3.57810E+000	9	...........
	69	0.933333	8.83635E-003	-9.91427E-005	0.00000E+000	-8.76060E-007	-5.99601E-002	8.82309E-003	3.57810E+000	9	...........
	70	0.938333	1.30928E-003	-9.70988E-005	0.00000E+000	-1.27129E-007	-5.99601E-002	1.29089E-003	3.57810E+000	9	...........
STARTTIMEOFFSET	QUANT	1118.444	Start Time Offset (s)
