EXPLAIN
TAG	PWR800_DISCHARGE
TITLE	LABEL	PWR Cyclic Charge Discharge (Cell) - Discharge Step	Test &Identifier
DATE	LABEL	12-7-2017	Date
TIME	LABEL	16:11:11	Time
NOTES	NOTES	2	&Notes...
	supercap test cell
	6M KOH
PSTAT	PSTAT	IFC5000-01520	Potentiostat
CAPACITY	QUANT	1.00000E-003	Capacity (A-hr)
CELLTYPE	SELECTOR	1	&Cell Type
WORKINGCONNECTION	SELECTOR	0	&Working Lead
MAXDISCHARGETIME	VARIABLEANDUNITS	1.00000E+002	s	1.00000E+002	second(s)	Max &Discharge Time
DISCHARGEMODE	MULTIPARAM	0	1.00000E-004	&Discharge Mode	Constant Current	Amp(s)
SAMPLETIME	QUANT	1.00000E-002	Sa&mple Period (s)
DISCHARGESTOPAT1	MULTIPARAM	3	0.00000E+000	Discharge Stop At &1	Voltage < Limit	V
DISCHARGESTOPAT2	MULTIPARAM	0	0.00000E+000	Discharge Stop At &2	None	N/A
AESBHCSELECTOR	TOGGLE	F	Save Both Half Cells
IRCOMP	TOGGLE	F	IR &Measure
EOC	QUANT	0	Open Circuit (V)
SEQUENCER	TOGGLE	TRUE	Run as Sequence
PSTATMODEL	IQUANT	53	Pstat Model
PSTATSECTION	LABEL	IFC5000-01520	Pstat Section
PSTATSERIALNO	LABEL	01520	Pstat Serial Number
CTRLMODE	IQUANT	0	Control Mode
ELECTROMETER	IQUANT	1	RE=0 or CS=1
IESTAB	IQUANT	0	I/E Stability
CASPEED	IQUANT	4	Control Amp Speed
CONVENTION	IQUANT	1	Current Convention
ICHRANGE	IQUANT	2	Ich Range
ICHRANGEMODE	TOGGLE	T	Ich Auto Range
ICHOFFSETENABLE	TOGGLE	F	Ich Offset Enable
ICHOFFSET	QUANT	0	Ich Offset (V)
ICHFILTER	IQUANT	1	Ich Filter
VCHRANGE	IQUANT	2	Vch Range
VCHRANGEMODE	TOGGLE	T	Vch Auto Range
VCHOFFSETENABLE	TOGGLE	F	Vch Offset Enable
VCHOFFSET	QUANT	0	Vch Offset (V)
VCHFILTER	IQUANT	1	Vch Filter
IERANGELOWERLIMIT	IQUANT	9	I/E Range Lower Limit
IERANGEMODE	TOGGLE	F	I/E AutoRange
IERANGE	IQUANT	9	I/E Range
ACHSELECT	IQUANT	1	Ach Select
ACHRANGE	IQUANT	2	Ach Range
ACHOFFSETENABLE	TOGGLE	F	Ach Offset Enable
ACHOFFSET	QUANT	0	Ach Offset (V)
ACHFILTER	IQUANT	1	Ach Filter
CABLEID	IQUANT	14	Cable ID
DCCALDATE	LABEL	5-7-2017	DC Calibration Date
ACCALDATE	LABEL	12/3/2015	AC Calibration Date
FRAMEWORKVERSION	QUANT	7.01	Framework Version
INSTRUMENTVERSION	LABEL	4.00	Instrument Version
CURVE	TABLE	74
	Pt	T	Vf	Im	Vu	Pwr	Sig	Ach	Temp	IERange	Over
	#	s	V	A	V	W	V	V	deg C	#	bits
	0	0.013333	8.31528E-001	-9.81289E-005	0.00000E+000	-8.15969E-005	-5.99601E-002	8.31832E-001	3.57720E+000	9	...........
	1	0.026667	8.18201E-001	-9.87301E-005	0.00000E+000	-8.07811E-005	-5.99601E-002	8.18487E-001	3.57720E+000	9	...........
	2	0.04	8.05423E-001	-9.87145E-005	0.00000E+000	-7.95069E-005	-5.99601E-002	8.05692E-001	3.57720E+000	9	...........
	3	0.053333	7.92983E-001	-9.89103E-005	0.00000E+000	-7.84342E-005	-5.99601E-002	7.93269E-001	3.57720E+000	9	...........
	4	0.066667	7.80745E-001	-9.84144E-005	0.00000E+000	-7.68365E-005	-5.99601E-002	7.81021E-001	3.57720E+000	9	...........
	5	0.08	7.68653E-001	-9.91698E-005	0.00000E+000	-7.62271E-005	-5.99601E-002	7.68936E-001	3.57720E+000	9	...........
	6	0.093333	7.56639E-001	-9.89062E-005	0.00000E+000	-7.48362E-005	-5.99601E-002	7.56925E-001	3.57720E+000	9	...........
	7	0.106667	7.44685E-001	-9.88103E-005	0.00000E+000	-7.35826E-005	-5.99601E-002	7.44965E-001	3.57720E+000	9	...........
	8	0.12	7.32758E-001	-9.91020E-005	0.00000E+000	-7.26179E-005	-5.99601E-002	7.33006E-001	3.57720E+000	9	...........
	9	0.133333	7.20845E-001	-9.93458E-005	0.00000E+000	-7.16130E-005	-5.99601E-002	7.21101E-001	3.57720E+000	9	...........
	10	0.146667	7.08933E-001	-9.81695E-005	0.00000E+000	-6.95957E-005	-5.99601E-002	7.09210E-001	3.57720E+000	9	...........
	11	0.16	6.97048E-001	-9.85488E-005	0.00000E+000	-6.86932E-005	-5.99601E-002	6.97320E-001	3.57720E+000	9	...........
	12	0.173333	6.85147E-001	-9.92166E-005	0.00000E+000	-6.79780E-005	-5.99601E-002	6.85439E-001	3.57720E+000	9	...........
	13	0.186667	6.73314E-001	-9.82071E-005	0.00000E+000	-6.61242E-005	-5.99601E-002	6.73587E-001	3.57720E+000	9	...........
	14	0.2	6.61472E-001	-9.87624E-005	0.00000E+000	-6.53286E-005	-5.99601E-002	6.61724E-001	3.57720E+000	9	...........
	15	0.213333	6.49617E-001	-9.88634E-005	0.00000E+000	-6.42233E-005	-5.99601E-002	6.49894E-001	3.57720E+000	9	...........
	16	0.226667	6.37813E-001	-9.94406E-005	0.00000E+000	-6.34246E-005	-5.99601E-002	6.38054E-001	3.57720E+000	9	...........
	17	0.24	6.26072E-001	-9.87290E-005	0.00000E+000	-6.18114E-005	-5.99601E-002	6.26281E-001	3.57720E+000	9	...........
	18	0.253333	6.14293E-001	-9.85988E-005	0.00000E+000	-6.05686E-005	-5.99601E-002	6.14546E-001	3.57720E+000	9	...........
	19	0.266667	6.02572E-001	-9.90291E-005	0.00000E+000	-5.96721E-005	-5.99601E-002	6.02828E-001	3.57720E+000	9	...........
	20	0.28	5.90929E-001	-9.88884E-005	0.00000E+000	-5.84360E-005	-5.99601E-002	5.91177E-001	3.57720E+000	9	...........
	21	0.293333	5.79314E-001	-9.89801E-005	0.00000E+000	-5.73406E-005	-5.99601E-002	5.79557E-001	3.57720E+000	9	...........
	22	0.306667	5.67740E-001	-9.86822E-005	0.00000E+000	-5.60258E-005	-5.99601E-002	5.67980E-001	3.57720E+000	9	...........
	23	0.32	5.56210E-001	-9.88197E-005	0.00000E+000	-5.49644E-005	-5.99601E-002	5.56434E-001	3.57720E+000	9	...........
	24	0.333333	5.44759E-001	-9.90406E-005	0.00000E+000	-5.39532E-005	-5.99601E-002	5.44974E-001	3.57720E+000	9	...........
	25	0.346667	5.33314E-001	-9.84373E-005	0.00000E+000	-5.24979E-005	-5.99601E-002	5.33537E-001	3.57720E+000	9	...........
	26	0.36	5.21927E-001	-9.84467E-005	0.00000E+000	-5.13820E-005	-5.99601E-002	5.22147E-001	3.57720E+000	9	...........
	27	0.373333	5.10586E-001	-9.84019E-005	0.00000E+000	-5.02427E-005	-5.99601E-002	5.10820E-001	3.57720E+000	9	...........
	28	0.386667	4.99295E-001	-9.81018E-005	0.00000E+000	-4.89817E-005	-5.99601E-002	4.99519E-001	3.57720E+000	9	...........
	29	0.4	4.88128E-001	-9.77945E-005	0.00000E+000	-4.77362E-005	-5.99601E-002	4.88306E-001	3.57720E+000	9	...........
	30	0.413333	4.77201E-001	-9.85217E-005	0.00000E+000	-4.70146E-005	-5.99601E-002	4.77302E-001	3.57720E+000	9	...........
	31	0.426667	4.66044E-001	-9.89062E-005	0.00000E+000	-4.60946E-005	-5.99601E-002	4.66141E-001	3.57720E+000	9	...........
	32	0.44	4.54922E-001	-9.85071E-005	0.00000E+000	-4.48131E-005	-5.99601E-002	4.55015E-001	3.57720E+000	9	...........
	33	0.453333	4.43815E-001	-9.81279E-005	0.00000E+000	-4.35507E-005	-5.99601E-002	4.43916E-001	3.57720E+000	9	...........
	34	0.466667	4.32738E-001	-9.76913E-005	0.00000E+000	-4.22748E-005	-5.99601E-002	4.32832E-001	3.57720E+000	9	...........
	35	0.48	4.21679E-001	-9.88228E-005	0.00000E+000	-4.16715E-005	-5.99601E-002	4.21772E-001	3.57720E+000	9	...........
	36	0.493333	4.10626E-001	-9.93354E-005	0.00000E+000	-4.07897E-005	-5.99601E-002	4.10715E-001	3.57720E+000	9	...........
	37	0.506667	3.99583E-001	-9.83185E-005	0.00000E+000	-3.92865E-005	-5.99601E-002	3.99663E-001	3.57720E+000	9	...........
	38	0.52	3.88525E-001	-9.89510E-005	0.00000E+000	-3.84450E-005	-5.99601E-002	3.88607E-001	3.57720E+000	9	...........
	39	0.533333	3.77454E-001	-9.84311E-005	0.00000E+000	-3.71532E-005	-5.99601E-002	3.77537E-001	3.57720E+000	9	...........
	40	0.546667	3.66377E-001	-9.84644E-005	0.00000E+000	-3.60751E-005	-5.99601E-002	3.66449E-001	3.57720E+000	9	...........
	41	0.56	3.55284E-001	-9.85582E-005	0.00000E+000	-3.50161E-005	-5.99601E-002	3.55355E-001	3.57720E+000	9	...........
	42	0.573333	3.44168E-001	-9.92458E-005	0.00000E+000	-3.41572E-005	-5.99601E-002	3.44231E-001	3.57720E+000	9	...........
	43	0.586667	3.33030E-001	-9.91979E-005	0.00000E+000	-3.30359E-005	-5.99601E-002	3.33087E-001	3.57720E+000	9	...........
	44	0.6	3.21883E-001	-9.87145E-005	0.00000E+000	-3.17745E-005	-5.99601E-002	3.21944E-001	3.57720E+000	9	...........
	45	0.613333	3.10705E-001	-9.89280E-005	0.00000E+000	-3.07374E-005	-5.99601E-002	3.10767E-001	3.57720E+000	9	...........
	46	0.626667	2.99508E-001	-9.84040E-005	0.00000E+000	-2.94728E-005	-5.99601E-002	2.99570E-001	3.57720E+000	9	...........
	47	0.64	2.88292E-001	-9.87061E-005	0.00000E+000	-2.84562E-005	-5.99601E-002	2.88352E-001	3.57720E+000	9	...........
	48	0.653333	2.77068E-001	-9.83665E-005	0.00000E+000	-2.72542E-005	-5.99601E-002	2.77126E-001	3.57720E+000	9	...........
	49	0.666667	2.65821E-001	-9.87936E-005	0.00000E+000	-2.62614E-005	-5.99601E-002	2.65877E-001	3.57720E+000	9	...........
	50	0.68	2.54551E-001	-9.78091E-005	0.00000E+000	-2.48974E-005	-5.99601E-002	2.54607E-001	3.57720E+000	9	...........
	51	0.693333	2.43272E-001	-9.83758E-005	0.00000E+000	-2.39321E-005	-5.99601E-002	2.43317E-001	3.57720E+000	9	...........
	52	0.706667	2.31970E-001	-9.83581E-005	0.00000E+000	-2.28161E-005	-5.99601E-002	2.32015E-001	3.57720E+000	9	...........
	53	0.72	2.20662E-001	-9.84884E-005	0.00000E+000	-2.17327E-005	-5.99601E-002	2.20710E-001	3.57720E+000	9	...........
	54	0.733333	2.09360E-001	-9.86665E-005	0.00000E+000	-2.06569E-005	-5.99601E-002	2.09404E-001	3.57720E+000	9	...........
	55	0.746667	1.98058E-001	-9.86613E-005	0.00000E+000	-1.95406E-005	-5.99601E-002	1.98097E-001	3.57720E+000	9	...........
	56	0.76	1.86757E-001	-9.85415E-005	0.00000E+000	-1.84033E-005	-5.99601E-002	1.86801E-001	3.57720E+000	9	...........
	57	0.773333	1.75468E-001	-9.91031E-005	0.00000E+000	-1.73894E-005	-5.99601E-002	1.75502E-001	3.57720E+000	9	...........
	58	0.786667	1.64203E-001	-9.86207E-005	0.00000E+000	-1.61939E-005	-5.99601E-002	1.64234E-001	3.57720E+000	9	...........
	59	0.8	1.52956E-001	-9.83425E-005	0.00000E+000	-1.50421E-005	-5.99601E-002	1.52984E-001	3.57720E+000	9	...........
	60	0.813333	1.41738E-001	-9.88082E-005	0.00000E+000	-1.40048E-005	-5.99601E-002	1.41764E-001	3.57720E+000	9	...........
	61	0.826667	1.30560E-001	-9.84217E-005	0.00000E+000	-1.28500E-005	-5.99601E-002	1.30587E-001	3.57720E+000	9	...........
	62	0.84	1.19433E-001	-9.92291E-005	0.00000E+000	-1.18512E-005	-5.99601E-002	1.19458E-001	3.57720E+000	9	...........
	63	0.853333	1.08361E-001	-9.89364E-005	0.00000E+000	-1.07208E-005	-5.99601E-002	1.08385E-001	3.57720E+000	9	...........
	64	0.866667	9.73598E-002	-9.80539E-005	0.00000E+000	-9.54651E-006	-5.99601E-002	9.73787E-002	3.57720E+000	9	...........
	65	0.88	8.64273E-002	-9.84988E-005	0.00000E+000	-8.51299E-006	-5.99601E-002	8.64430E-002	3.57720E+000	9	...........
	66	0.893333	7.55784E-002	-9.88072E-005	0.00000E+000	-7.46769E-006	-5.99601E-002	7.55856E-002	3.57720E+000	9	...........
	67	0.906667	6.48174E-002	-9.86373E-005	0.00000E+000	-6.39341E-006	-5.99601E-002	6.48282E-002	3.57720E+000	9	...........
	68	0.92	5.41645E-002	-9.94125E-005	0.00000E+000	-5.38462E-006	-5.99601E-002	5.41719E-002	3.57720E+000	9	...........
	69	0.933333	4.36591E-002	-9.90291E-005	0.00000E+000	-4.32352E-006	-5.99601E-002	4.36644E-002	3.57810E+000	9	...........
	70	0.946667	3.32545E-002	-9.88457E-005	0.00000E+000	-3.28707E-006	-5.99601E-002	3.32489E-002	3.57860E+000	9	...........
	71	0.96	2.29668E-002	-9.86842E-005	0.00000E+000	-2.26646E-006	-5.99601E-002	2.29562E-002	3.57860E+000	9	...........
	72	0.97333	1.28143E-002	-9.88030E-005	0.00000E+000	-1.26609E-006	-5.99601E-002	1.28021E-002	3.57860E+000	9	...........
	73	0.985	3.43760E-003	-9.91282E-005	0.00000E+000	-3.40763E-007	-5.99601E-002	3.41755E-003	3.57860E+000	9	...........
STARTTIMEOFFSET	QUANT	47.14833	Start Time Offset (s)
