EXPLAIN
TAG	PWR800_DISCHARGE
TITLE	LABEL	PWR Cyclic Charge Discharge (Cell) - Discharge Step	Test &Identifier
DATE	LABEL	12-7-2017	Date
TIME	LABEL	16:46:29	Time
NOTES	NOTES	2	&Notes...
	supercap test cell
	6M KOH
PSTAT	PSTAT	IFC5000-01520	Potentiostat
CAPACITY	QUANT	1.00000E-003	Capacity (A-hr)
CELLTYPE	SELECTOR	1	&Cell Type
WORKINGCONNECTION	SELECTOR	0	&Working Lead
MAXDISCHARGETIME	VARIABLEANDUNITS	1.00000E+002	s	1.00000E+002	second(s)	Max &Discharge Time
DISCHARGEMODE	MULTIPARAM	0	1.00000E-004	&Discharge Mode	Constant Current	Amp(s)
SAMPLETIME	QUANT	1.00000E-002	Sa&mple Period (s)
DISCHARGESTOPAT1	MULTIPARAM	3	0.00000E+000	Discharge Stop At &1	Voltage < Limit	V
DISCHARGESTOPAT2	MULTIPARAM	0	0.00000E+000	Discharge Stop At &2	None	N/A
AESBHCSELECTOR	TOGGLE	F	Save Both Half Cells
IRCOMP	TOGGLE	F	IR &Measure
EOC	QUANT	0	Open Circuit (V)
SEQUENCER	TOGGLE	TRUE	Run as Sequence
PSTATMODEL	IQUANT	53	Pstat Model
PSTATSECTION	LABEL	IFC5000-01520	Pstat Section
PSTATSERIALNO	LABEL	01520	Pstat Serial Number
CTRLMODE	IQUANT	0	Control Mode
ELECTROMETER	IQUANT	1	RE=0 or CS=1
IESTAB	IQUANT	0	I/E Stability
CASPEED	IQUANT	4	Control Amp Speed
CONVENTION	IQUANT	1	Current Convention
ICHRANGE	IQUANT	2	Ich Range
ICHRANGEMODE	TOGGLE	T	Ich Auto Range
ICHOFFSETENABLE	TOGGLE	F	Ich Offset Enable
ICHOFFSET	QUANT	0	Ich Offset (V)
ICHFILTER	IQUANT	1	Ich Filter
VCHRANGE	IQUANT	2	Vch Range
VCHRANGEMODE	TOGGLE	T	Vch Auto Range
VCHOFFSETENABLE	TOGGLE	F	Vch Offset Enable
VCHOFFSET	QUANT	0	Vch Offset (V)
VCHFILTER	IQUANT	1	Vch Filter
IERANGELOWERLIMIT	IQUANT	9	I/E Range Lower Limit
IERANGEMODE	TOGGLE	F	I/E AutoRange
IERANGE	IQUANT	9	I/E Range
ACHSELECT	IQUANT	1	Ach Select
ACHRANGE	IQUANT	2	Ach Range
ACHOFFSETENABLE	TOGGLE	F	Ach Offset Enable
ACHOFFSET	QUANT	0	Ach Offset (V)
ACHFILTER	IQUANT	1	Ach Filter
CABLEID	IQUANT	14	Cable ID
DCCALDATE	LABEL	5-7-2017	DC Calibration Date
ACCALDATE	LABEL	12/3/2015	AC Calibration Date
FRAMEWORKVERSION	QUANT	7.01	Framework Version
INSTRUMENTVERSION	LABEL	4.00	Instrument Version
CURVE	TABLE	70
	Pt	T	Vf	Im	Vu	Pwr	Sig	Ach	Temp	IERange	Over
	#	s	V	A	V	W	V	V	deg C	#	bits
	0	0.013333	8.44417E-001	-9.94948E-005	0.00000E+000	-8.40151E-005	-5.99601E-002	8.44722E-001	3.57860E+000	9	...........
	1	0.026667	8.31241E-001	-9.85613E-005	0.00000E+000	-8.19282E-005	-5.99601E-002	8.31567E-001	3.57860E+000	9	...........
	2	0.04	8.18679E-001	-1.00460E-004	0.00000E+000	-8.22442E-005	-5.99601E-002	8.18978E-001	3.57860E+000	9	...........
	3	0.053333	8.06464E-001	-9.80039E-005	0.00000E+000	-7.90367E-005	-5.99601E-002	8.06758E-001	3.57860E+000	9	...........
	4	0.066667	7.94531E-001	-9.99845E-005	0.00000E+000	-7.94408E-005	-5.99601E-002	7.94792E-001	3.57860E+000	9	...........
	5	0.08	7.82778E-001	-9.88791E-005	0.00000E+000	-7.74004E-005	-5.99601E-002	7.83031E-001	3.57860E+000	9	...........
	6	0.093333	7.71184E-001	-9.95261E-005	0.00000E+000	-7.67529E-005	-5.99601E-002	7.71454E-001	3.57860E+000	9	...........
	7	0.106667	7.59723E-001	-9.87551E-005	0.00000E+000	-7.50266E-005	-5.99601E-002	7.59967E-001	3.57860E+000	9	...........
	8	0.12	7.48353E-001	-9.90051E-005	0.00000E+000	-7.40908E-005	-5.99601E-002	7.48611E-001	3.57860E+000	9	...........
	9	0.133333	7.37063E-001	-9.84300E-005	0.00000E+000	-7.25491E-005	-5.99601E-002	7.37318E-001	3.57860E+000	9	...........
	10	0.146667	7.25942E-001	-9.83008E-005	0.00000E+000	-7.13607E-005	-5.99601E-002	7.26176E-001	3.57860E+000	9	...........
	11	0.16	7.14828E-001	-9.84352E-005	0.00000E+000	-7.03643E-005	-5.99601E-002	7.15059E-001	3.57860E+000	9	...........
	12	0.173333	7.03820E-001	-9.70224E-005	0.00000E+000	-6.82864E-005	-5.99601E-002	7.04064E-001	3.57860E+000	9	...........
	13	0.186667	6.92901E-001	-9.73631E-005	0.00000E+000	-6.74630E-005	-5.99601E-002	6.93143E-001	3.57860E+000	9	...........
	14	0.2	6.82065E-001	-9.91760E-005	0.00000E+000	-6.76445E-005	-5.99601E-002	6.82298E-001	3.57860E+000	9	...........
	15	0.213333	6.71286E-001	-9.98261E-005	0.00000E+000	-6.70119E-005	-5.99601E-002	6.71500E-001	3.57860E+000	9	...........
	16	0.226667	6.60513E-001	-9.85675E-005	0.00000E+000	-6.51051E-005	-5.99601E-002	6.60738E-001	3.57741E+000	9	...........
	17	0.24	6.49805E-001	-9.95365E-005	0.00000E+000	-6.46793E-005	-5.99601E-002	6.50028E-001	3.57670E+000	9	...........
	18	0.253333	6.39039E-001	-9.89030E-005	0.00000E+000	-6.32029E-005	-5.99601E-002	6.39261E-001	3.57670E+000	9	...........
	19	0.266667	6.28186E-001	-9.82612E-005	0.00000E+000	-6.17263E-005	-5.99601E-002	6.28412E-001	3.57670E+000	9	...........
	20	0.28	6.17247E-001	-9.77309E-005	0.00000E+000	-6.03241E-005	-5.99601E-002	6.17456E-001	3.57670E+000	9	...........
	21	0.293333	6.06065E-001	-9.80310E-005	0.00000E+000	-5.94132E-005	-5.99601E-002	6.06302E-001	3.57670E+000	9	...........
	22	0.306667	5.94744E-001	-9.73673E-005	0.00000E+000	-5.79086E-005	-5.99601E-002	5.94982E-001	3.57670E+000	9	...........
	23	0.32	5.83179E-001	-9.85082E-005	0.00000E+000	-5.74479E-005	-5.99601E-002	5.83420E-001	3.57670E+000	9	...........
	24	0.333333	5.71409E-001	-9.83769E-005	0.00000E+000	-5.62134E-005	-5.99601E-002	5.71652E-001	3.57670E+000	9	...........
	25	0.346667	5.59423E-001	-9.91927E-005	0.00000E+000	-5.54907E-005	-5.99601E-002	5.59646E-001	3.57670E+000	9	...........
	26	0.36	5.47252E-001	-9.90062E-005	0.00000E+000	-5.41814E-005	-5.99601E-002	5.47495E-001	3.57670E+000	9	...........
	27	0.373333	5.34917E-001	-9.86749E-005	0.00000E+000	-5.27828E-005	-5.99601E-002	5.35120E-001	3.57670E+000	9	...........
	28	0.386667	5.22388E-001	-9.86290E-005	0.00000E+000	-5.15226E-005	-5.99601E-002	5.22607E-001	3.57670E+000	9	...........
	29	0.4	5.09681E-001	-9.93927E-005	0.00000E+000	-5.06586E-005	-5.99601E-002	5.09924E-001	3.57670E+000	9	...........
	30	0.413333	4.96890E-001	-9.79778E-005	0.00000E+000	-4.86842E-005	-5.99601E-002	4.97130E-001	3.57670E+000	9	...........
	31	0.426667	4.84117E-001	-9.85321E-005	0.00000E+000	-4.77011E-005	-5.99601E-002	4.84286E-001	3.57670E+000	9	...........
	32	0.44	4.71235E-001	-9.82842E-005	0.00000E+000	-4.63150E-005	-5.99601E-002	4.71338E-001	3.57670E+000	9	...........
	33	0.453333	4.58106E-001	-9.92990E-005	0.00000E+000	-4.54894E-005	-5.99601E-002	4.58208E-001	3.57670E+000	9	...........
	34	0.466667	4.44907E-001	-9.76100E-005	0.00000E+000	-4.34274E-005	-5.99601E-002	4.45008E-001	3.57670E+000	9	...........
	35	0.48	4.31637E-001	-9.87092E-005	0.00000E+000	-4.26066E-005	-5.99601E-002	4.31732E-001	3.57670E+000	9	...........
	36	0.493333	4.18316E-001	-9.83258E-005	0.00000E+000	-4.11312E-005	-5.99601E-002	4.18411E-001	3.57670E+000	9	...........
	37	0.506667	4.04959E-001	-9.90499E-005	0.00000E+000	-4.01112E-005	-5.99601E-002	4.05046E-001	3.57670E+000	9	...........
	38	0.52	3.91575E-001	-9.86405E-005	0.00000E+000	-3.86252E-005	-5.99601E-002	3.91660E-001	3.57670E+000	9	...........
	39	0.533333	3.78182E-001	-9.99116E-005	0.00000E+000	-3.77848E-005	-5.99601E-002	3.78263E-001	3.57670E+000	9	...........
	40	0.546667	3.64787E-001	-9.86582E-005	0.00000E+000	-3.59892E-005	-5.99601E-002	3.64867E-001	3.57670E+000	9	...........
	41	0.56	3.51409E-001	-9.87707E-005	0.00000E+000	-3.47089E-005	-5.99601E-002	3.51483E-001	3.57670E+000	9	...........
	42	0.573333	3.38045E-001	-9.88489E-005	0.00000E+000	-3.34154E-005	-5.99601E-002	3.38119E-001	3.57670E+000	9	...........
	43	0.586667	3.24709E-001	-9.91812E-005	0.00000E+000	-3.22051E-005	-5.99601E-002	3.24782E-001	3.57670E+000	9	...........
	44	0.6	3.11419E-001	-9.66276E-005	0.00000E+000	-3.00917E-005	-5.99601E-002	3.11495E-001	3.57670E+000	9	...........
	45	0.613333	2.98174E-001	-9.85238E-005	0.00000E+000	-2.93772E-005	-5.99601E-002	2.98236E-001	3.57670E+000	9	...........
	46	0.626667	2.84974E-001	-1.00138E-004	0.00000E+000	-2.85367E-005	-5.99601E-002	2.85035E-001	3.57670E+000	9	...........
	47	0.64	2.71845E-001	-9.88041E-005	0.00000E+000	-2.68594E-005	-5.99601E-002	2.71903E-001	3.57670E+000	9	...........
	48	0.653333	2.58765E-001	-9.91083E-005	0.00000E+000	-2.56458E-005	-5.99601E-002	2.58826E-001	3.57670E+000	9	...........
	49	0.666667	2.45764E-001	-9.80997E-005	0.00000E+000	-2.41093E-005	-5.99601E-002	2.45814E-001	3.57670E+000	9	...........
	50	0.68	2.32829E-001	-9.80206E-005	0.00000E+000	-2.28221E-005	-5.99601E-002	2.32875E-001	3.57670E+000	9	...........
	51	0.693333	2.19969E-001	-9.77726E-005	0.00000E+000	-2.15069E-005	-5.99601E-002	2.20018E-001	3.57670E+000	9	...........
	52	0.706667	2.07194E-001	-9.85644E-005	0.00000E+000	-2.04220E-005	-5.99601E-002	2.07233E-001	3.57670E+000	9	...........
	53	0.72	1.94486E-001	-9.86238E-005	0.00000E+000	-1.91809E-005	-5.99601E-002	1.94525E-001	3.57670E+000	9	...........
	54	0.733333	1.81848E-001	-9.74100E-005	0.00000E+000	-1.77138E-005	-5.99601E-002	1.81881E-001	3.57670E+000	9	...........
	55	0.746667	1.69282E-001	-9.88978E-005	0.00000E+000	-1.67416E-005	-5.99601E-002	1.69313E-001	3.57670E+000	9	...........
	56	0.76	1.56794E-001	-9.79778E-005	0.00000E+000	-1.53624E-005	-5.99601E-002	1.56816E-001	3.57670E+000	9	...........
	57	0.773333	1.44374E-001	-9.89114E-005	0.00000E+000	-1.42802E-005	-5.99601E-002	1.44399E-001	3.57670E+000	9	...........
	58	0.786667	1.32013E-001	-9.80622E-005	0.00000E+000	-1.29455E-005	-5.99601E-002	1.32039E-001	3.57670E+000	9	...........
	59	0.8	1.19738E-001	-9.95688E-005	0.00000E+000	-1.19221E-005	-5.99601E-002	1.19763E-001	3.57670E+000	9	...........
	60	0.813333	1.07548E-001	-9.89395E-005	0.00000E+000	-1.06408E-005	-5.99601E-002	1.07574E-001	3.57670E+000	9	...........
	61	0.826667	9.54550E-002	-9.82602E-005	0.00000E+000	-9.37943E-006	-5.99601E-002	9.54735E-002	3.57670E+000	9	...........
	62	0.84	8.34650E-002	-9.87228E-005	0.00000E+000	-8.23989E-006	-5.99601E-002	8.34797E-002	3.57670E+000	9	...........
	63	0.853333	7.15789E-002	-9.85488E-005	0.00000E+000	-7.05402E-006	-5.99601E-002	7.15926E-002	3.57670E+000	9	...........
	64	0.866667	5.98124E-002	-9.90499E-005	0.00000E+000	-5.92441E-006	-5.99601E-002	5.98242E-002	3.57670E+000	9	...........
	65	0.88	4.81951E-002	-9.91656E-005	0.00000E+000	-4.77929E-006	-5.99601E-002	4.82062E-002	3.57670E+000	9	...........
	66	0.893333	3.67343E-002	-9.91916E-005	0.00000E+000	-3.64373E-006	-5.99601E-002	3.67391E-002	3.57670E+000	9	...........
	67	0.906667	2.53951E-002	-9.88718E-005	0.00000E+000	-2.51085E-006	-5.99601E-002	2.53904E-002	3.57670E+000	9	...........
	68	0.92	1.42292E-002	-9.82529E-005	0.00000E+000	-1.39806E-006	-5.99601E-002	1.42184E-002	3.57670E+000	9	...........
	69	0.931667	3.90284E-003	-9.78387E-005	0.00000E+000	-3.81849E-007	-5.99601E-002	3.88648E-003	3.57670E+000	9	...........
STARTTIMEOFFSET	QUANT	1553.582	Start Time Offset (s)
