EXPLAIN
TAG	PWR800_DISCHARGE
TITLE	LABEL	PWR Cyclic Charge Discharge (Cell) - Discharge Step	Test &Identifier
DATE	LABEL	12-7-2017	Date
TIME	LABEL	16:22:11	Time
NOTES	NOTES	2	&Notes...
	supercap test cell
	6M KOH
PSTAT	PSTAT	IFC5000-01520	Potentiostat
CAPACITY	QUANT	1.00000E-003	Capacity (A-hr)
CELLTYPE	SELECTOR	1	&Cell Type
WORKINGCONNECTION	SELECTOR	0	&Working Lead
MAXDISCHARGETIME	VARIABLEANDUNITS	1.00000E+002	s	1.00000E+002	second(s)	Max &Discharge Time
DISCHARGEMODE	MULTIPARAM	0	1.00000E-004	&Discharge Mode	Constant Current	Amp(s)
SAMPLETIME	QUANT	1.00000E-002	Sa&mple Period (s)
DISCHARGESTOPAT1	MULTIPARAM	3	0.00000E+000	Discharge Stop At &1	Voltage < Limit	V
DISCHARGESTOPAT2	MULTIPARAM	0	0.00000E+000	Discharge Stop At &2	None	N/A
AESBHCSELECTOR	TOGGLE	F	Save Both Half Cells
IRCOMP	TOGGLE	F	IR &Measure
EOC	QUANT	0	Open Circuit (V)
SEQUENCER	TOGGLE	TRUE	Run as Sequence
PSTATMODEL	IQUANT	53	Pstat Model
PSTATSECTION	LABEL	IFC5000-01520	Pstat Section
PSTATSERIALNO	LABEL	01520	Pstat Serial Number
CTRLMODE	IQUANT	0	Control Mode
ELECTROMETER	IQUANT	1	RE=0 or CS=1
IESTAB	IQUANT	0	I/E Stability
CASPEED	IQUANT	4	Control Amp Speed
CONVENTION	IQUANT	1	Current Convention
ICHRANGE	IQUANT	2	Ich Range
ICHRANGEMODE	TOGGLE	T	Ich Auto Range
ICHOFFSETENABLE	TOGGLE	F	Ich Offset Enable
ICHOFFSET	QUANT	0	Ich Offset (V)
ICHFILTER	IQUANT	1	Ich Filter
VCHRANGE	IQUANT	2	Vch Range
VCHRANGEMODE	TOGGLE	T	Vch Auto Range
VCHOFFSETENABLE	TOGGLE	F	Vch Offset Enable
VCHOFFSET	QUANT	0	Vch Offset (V)
VCHFILTER	IQUANT	1	Vch Filter
IERANGELOWERLIMIT	IQUANT	9	I/E Range Lower Limit
IERANGEMODE	TOGGLE	F	I/E AutoRange
IERANGE	IQUANT	9	I/E Range
ACHSELECT	IQUANT	1	Ach Select
ACHRANGE	IQUANT	2	Ach Range
ACHOFFSETENABLE	TOGGLE	F	Ach Offset Enable
ACHOFFSET	QUANT	0	Ach Offset (V)
ACHFILTER	IQUANT	1	Ach Filter
CABLEID	IQUANT	14	Cable ID
DCCALDATE	LABEL	5-7-2017	DC Calibration Date
ACCALDATE	LABEL	12/3/2015	AC Calibration Date
FRAMEWORKVERSION	QUANT	7.01	Framework Version
INSTRUMENTVERSION	LABEL	4.00	Instrument Version
CURVE	TABLE	72
	Pt	T	Vf	Im	Vu	Pwr	Sig	Ach	Temp	IERange	Over
	#	s	V	A	V	W	V	V	deg C	#	bits
	0	0.013333	8.46273E-001	-9.93167E-005	0.00000E+000	-8.40490E-005	-5.99601E-002	8.46574E-001	3.57690E+000	9	...........
	1	0.026667	8.33327E-001	-1.00016E-004	0.00000E+000	-8.33458E-005	-5.99601E-002	8.33628E-001	3.57690E+000	9	...........
	2	0.04	8.20994E-001	-9.83800E-005	0.00000E+000	-8.07694E-005	-5.99601E-002	8.21278E-001	3.57690E+000	9	...........
	3	0.053333	8.09000E-001	-9.86686E-005	0.00000E+000	-7.98229E-005	-5.99601E-002	8.09280E-001	3.57690E+000	9	...........
	4	0.066667	7.97302E-001	-9.89999E-005	0.00000E+000	-7.89329E-005	-5.99601E-002	7.97578E-001	3.57690E+000	9	...........
	5	0.08	7.85784E-001	-9.84509E-005	0.00000E+000	-7.73611E-005	-5.99601E-002	7.86090E-001	3.57690E+000	9	...........
	6	0.093333	7.74473E-001	-9.84821E-005	0.00000E+000	-7.62717E-005	-5.99601E-002	7.74769E-001	3.57690E+000	9	...........
	7	0.106667	7.63267E-001	-9.81643E-005	0.00000E+000	-7.49256E-005	-5.99601E-002	7.63582E-001	3.57690E+000	9	...........
	8	0.12	7.52197E-001	-9.84186E-005	0.00000E+000	-7.40301E-005	-5.99601E-002	7.52495E-001	3.57690E+000	9	...........
	9	0.133333	7.41239E-001	-9.96865E-005	0.00000E+000	-7.38916E-005	-5.99601E-002	7.41515E-001	3.57690E+000	9	...........
	10	0.146667	7.30376E-001	-9.83487E-005	0.00000E+000	-7.18316E-005	-5.99601E-002	7.30658E-001	3.57690E+000	9	...........
	11	0.16	7.19586E-001	-9.91864E-005	0.00000E+000	-7.13732E-005	-5.99601E-002	7.19881E-001	3.57690E+000	9	...........
	12	0.173333	7.08817E-001	-9.85467E-005	0.00000E+000	-6.98516E-005	-5.99601E-002	7.09129E-001	3.57690E+000	9	...........
	13	0.186667	6.98131E-001	-9.94875E-005	0.00000E+000	-6.94553E-005	-5.99601E-002	6.98373E-001	3.57690E+000	9	...........
	14	0.2	6.87382E-001	-9.93115E-005	0.00000E+000	-6.82649E-005	-5.99601E-002	6.87628E-001	3.57690E+000	9	...........
	15	0.213333	6.76569E-001	-9.88489E-005	0.00000E+000	-6.68781E-005	-5.99601E-002	6.76840E-001	3.57690E+000	9	...........
	16	0.226667	6.65670E-001	-9.93583E-005	0.00000E+000	-6.61399E-005	-5.99601E-002	6.65929E-001	3.57690E+000	9	...........
	17	0.24	6.54627E-001	-9.94521E-005	0.00000E+000	-6.51040E-005	-5.99601E-002	6.54894E-001	3.57690E+000	9	...........
	18	0.253333	6.43437E-001	-9.80591E-005	0.00000E+000	-6.30948E-005	-5.99601E-002	6.43677E-001	3.57690E+000	9	...........
	19	0.266667	6.32074E-001	-9.86874E-005	0.00000E+000	-6.23777E-005	-5.99601E-002	6.32316E-001	3.57690E+000	9	...........
	20	0.28	6.20570E-001	-9.95407E-005	0.00000E+000	-6.17719E-005	-5.99601E-002	6.20794E-001	3.57690E+000	9	...........
	21	0.293333	6.08821E-001	-9.88145E-005	0.00000E+000	-6.01604E-005	-5.99601E-002	6.09095E-001	3.57690E+000	9	...........
	22	0.306667	5.96993E-001	-9.83810E-005	0.00000E+000	-5.87328E-005	-5.99601E-002	5.97262E-001	3.57690E+000	9	...........
	23	0.32	5.85019E-001	-9.86853E-005	0.00000E+000	-5.77328E-005	-5.99601E-002	5.85271E-001	3.57690E+000	9	...........
	24	0.333333	5.72948E-001	-9.86717E-005	0.00000E+000	-5.65338E-005	-5.99601E-002	5.73156E-001	3.57690E+000	9	...........
	25	0.346667	5.60701E-001	-9.87468E-005	0.00000E+000	-5.53674E-005	-5.99601E-002	5.60925E-001	3.57690E+000	9	...........
	26	0.36	5.48378E-001	-9.91343E-005	0.00000E+000	-5.43631E-005	-5.99601E-002	5.48587E-001	3.57690E+000	9	...........
	27	0.373333	5.35976E-001	-9.84717E-005	0.00000E+000	-5.27784E-005	-5.99601E-002	5.36156E-001	3.57690E+000	9	...........
	28	0.386667	5.23479E-001	-9.78945E-005	0.00000E+000	-5.12457E-005	-5.99601E-002	5.23652E-001	3.57690E+000	9	...........
	29	0.4	5.10878E-001	-9.93469E-005	0.00000E+000	-5.07541E-005	-5.99601E-002	5.11095E-001	3.57690E+000	9	...........
	30	0.413333	4.98252E-001	-9.87634E-005	0.00000E+000	-4.92091E-005	-5.99601E-002	4.98463E-001	3.57690E+000	9	...........
	31	0.426667	4.85693E-001	-9.86707E-005	0.00000E+000	-4.79237E-005	-5.99601E-002	4.85861E-001	3.57690E+000	9	...........
	32	0.44	4.73168E-001	-9.89551E-005	0.00000E+000	-4.68224E-005	-5.99601E-002	4.73274E-001	3.57690E+000	9	...........
	33	0.453333	4.60416E-001	-9.97709E-005	0.00000E+000	-4.59362E-005	-5.99601E-002	4.60507E-001	3.57690E+000	9	...........
	34	0.466667	4.47629E-001	-9.83894E-005	0.00000E+000	-4.40419E-005	-5.99601E-002	4.47728E-001	3.57690E+000	9	...........
	35	0.48	4.34835E-001	-9.85175E-005	0.00000E+000	-4.28388E-005	-5.99601E-002	4.34920E-001	3.57690E+000	9	...........
	36	0.493333	4.22034E-001	-9.80841E-005	0.00000E+000	-4.13948E-005	-5.99601E-002	4.22121E-001	3.57690E+000	9	...........
	37	0.506667	4.09235E-001	-9.87270E-005	0.00000E+000	-4.04025E-005	-5.99601E-002	4.09317E-001	3.57690E+000	9	...........
	38	0.52	3.96451E-001	-9.80758E-005	0.00000E+000	-3.88823E-005	-5.99601E-002	3.96526E-001	3.57690E+000	9	...........
	39	0.533333	3.83665E-001	-9.78945E-005	0.00000E+000	-3.75586E-005	-5.99601E-002	3.83742E-001	3.57690E+000	9	...........
	40	0.546667	3.70901E-001	-9.90468E-005	0.00000E+000	-3.67365E-005	-5.99601E-002	3.70978E-001	3.57690E+000	9	...........
	41	0.56	3.58174E-001	-9.84071E-005	0.00000E+000	-3.52468E-005	-5.99601E-002	3.58243E-001	3.57690E+000	9	...........
	42	0.573333	3.45465E-001	-9.82279E-005	0.00000E+000	-3.39343E-005	-5.99601E-002	3.45535E-001	3.57690E+000	9	...........
	43	0.586667	3.32792E-001	-9.92354E-005	0.00000E+000	-3.30247E-005	-5.99601E-002	3.32862E-001	3.57690E+000	9	...........
	44	0.6	3.20158E-001	-9.90239E-005	0.00000E+000	-3.17033E-005	-5.99601E-002	3.20225E-001	3.57690E+000	9	...........
	45	0.613333	3.07552E-001	-9.89062E-005	0.00000E+000	-3.04188E-005	-5.99601E-002	3.07615E-001	3.57690E+000	9	...........
	46	0.626667	2.94989E-001	-9.90864E-005	0.00000E+000	-2.92294E-005	-5.99601E-002	2.95056E-001	3.57690E+000	9	...........
	47	0.64	2.82467E-001	-9.92260E-005	0.00000E+000	-2.80281E-005	-5.99601E-002	2.82524E-001	3.57690E+000	9	...........
	48	0.653333	2.69969E-001	-9.81841E-005	0.00000E+000	-2.65067E-005	-5.99601E-002	2.70027E-001	3.57690E+000	9	...........
	49	0.666667	2.57513E-001	-9.81091E-005	0.00000E+000	-2.52644E-005	-5.99601E-002	2.57567E-001	3.57690E+000	9	...........
	50	0.68	2.45088E-001	-9.70891E-005	0.00000E+000	-2.37954E-005	-5.99601E-002	2.45137E-001	3.57690E+000	9	...........
	51	0.693333	2.32693E-001	-9.82852E-005	0.00000E+000	-2.28702E-005	-5.99601E-002	2.32737E-001	3.57690E+000	9	...........
	52	0.706667	2.20323E-001	-9.79987E-005	0.00000E+000	-2.15913E-005	-5.99601E-002	2.20368E-001	3.57690E+000	9	...........
	53	0.72	2.07970E-001	-9.88061E-005	0.00000E+000	-2.05487E-005	-5.99601E-002	2.08016E-001	3.57690E+000	9	...........
	54	0.733333	1.95647E-001	-9.89457E-005	0.00000E+000	-1.93584E-005	-5.99601E-002	1.95688E-001	3.57690E+000	9	...........
	55	0.746667	1.83352E-001	-9.84279E-005	0.00000E+000	-1.80469E-005	-5.99601E-002	1.83395E-001	3.57690E+000	9	...........
	56	0.76	1.71079E-001	-9.75746E-005	0.00000E+000	-1.66929E-005	-5.99601E-002	1.71118E-001	3.57690E+000	9	...........
	57	0.773333	1.58837E-001	-9.92177E-005	0.00000E+000	-1.57595E-005	-5.99601E-002	1.58876E-001	3.57690E+000	9	...........
	58	0.786667	1.46636E-001	-9.80237E-005	0.00000E+000	-1.43738E-005	-5.99601E-002	1.46668E-001	3.57690E+000	9	...........
	59	0.8	1.34483E-001	-9.85488E-005	0.00000E+000	-1.32532E-005	-5.99601E-002	1.34514E-001	3.57690E+000	9	...........
	60	0.813333	1.22378E-001	-9.90979E-005	0.00000E+000	-1.21274E-005	-5.99601E-002	1.22406E-001	3.57690E+000	9	...........
	61	0.826667	1.10326E-001	-9.87322E-005	0.00000E+000	-1.08927E-005	-5.99601E-002	1.10350E-001	3.57690E+000	9	...........
	62	0.84	9.83412E-002	-9.74371E-005	0.00000E+000	-9.58208E-006	-5.99601E-002	9.83629E-002	3.57690E+000	9	...........
	63	0.853333	8.64283E-002	-9.87874E-005	0.00000E+000	-8.53803E-006	-5.99601E-002	8.64491E-002	3.57690E+000	9	...........
	64	0.866667	7.46090E-002	-9.98230E-005	0.00000E+000	-7.44769E-006	-5.99601E-002	7.46214E-002	3.57690E+000	9	...........
	65	0.88	6.28773E-002	-9.86457E-005	0.00000E+000	-6.20258E-006	-5.99601E-002	6.28923E-002	3.57778E+000	9	...........
	66	0.893333	5.12545E-002	-9.76007E-005	0.00000E+000	-5.00247E-006	-5.99601E-002	5.12659E-002	3.57830E+000	9	...........
	67	0.906667	3.97787E-002	-9.82852E-005	0.00000E+000	-3.90966E-006	-5.99601E-002	3.97818E-002	3.57830E+000	9	...........
	68	0.92	2.83967E-002	-9.90281E-005	0.00000E+000	-2.81207E-006	-5.99601E-002	2.83910E-002	3.57830E+000	9	...........
	69	0.933333	1.71414E-002	-9.87853E-005	0.00000E+000	-1.69332E-006	-5.99601E-002	1.71356E-002	3.57830E+000	9	...........
	70	0.946667	6.03399E-003	-9.93792E-005	0.00000E+000	-5.99653E-007	-5.99601E-002	6.02102E-003	3.57830E+000	9	...........
	71	0.948333	-1.46796E-004	-9.73767E-005	0.00000E+000	1.42945E-008	-5.99601E-002	-1.73785E-004	3.57830E+000	9	...........
STARTTIMEOFFSET	QUANT	518.7118	Start Time Offset (s)
