EXPLAIN
TAG	PWR800_DISCHARGE
TITLE	LABEL	PWR Cyclic Charge Discharge (Cell) - Discharge Step	Test &Identifier
DATE	LABEL	12-7-2017	Date
TIME	LABEL	16:29:02	Time
NOTES	NOTES	2	&Notes...
	supercap test cell
	6M KOH
PSTAT	PSTAT	IFC5000-01520	Potentiostat
CAPACITY	QUANT	1.00000E-003	Capacity (A-hr)
CELLTYPE	SELECTOR	1	&Cell Type
WORKINGCONNECTION	SELECTOR	0	&Working Lead
MAXDISCHARGETIME	VARIABLEANDUNITS	1.00000E+002	s	1.00000E+002	second(s)	Max &Discharge Time
DISCHARGEMODE	MULTIPARAM	0	1.00000E-004	&Discharge Mode	Constant Current	Amp(s)
SAMPLETIME	QUANT	1.00000E-002	Sa&mple Period (s)
DISCHARGESTOPAT1	MULTIPARAM	3	0.00000E+000	Discharge Stop At &1	Voltage < Limit	V
DISCHARGESTOPAT2	MULTIPARAM	0	0.00000E+000	Discharge Stop At &2	None	N/A
AESBHCSELECTOR	TOGGLE	F	Save Both Half Cells
IRCOMP	TOGGLE	F	IR &Measure
EOC	QUANT	0	Open Circuit (V)
SEQUENCER	TOGGLE	TRUE	Run as Sequence
PSTATMODEL	IQUANT	53	Pstat Model
PSTATSECTION	LABEL	IFC5000-01520	Pstat Section
PSTATSERIALNO	LABEL	01520	Pstat Serial Number
CTRLMODE	IQUANT	0	Control Mode
ELECTROMETER	IQUANT	1	RE=0 or CS=1
IESTAB	IQUANT	0	I/E Stability
CASPEED	IQUANT	4	Control Amp Speed
CONVENTION	IQUANT	1	Current Convention
ICHRANGE	IQUANT	2	Ich Range
ICHRANGEMODE	TOGGLE	T	Ich Auto Range
ICHOFFSETENABLE	TOGGLE	F	Ich Offset Enable
ICHOFFSET	QUANT	0	Ich Offset (V)
ICHFILTER	IQUANT	1	Ich Filter
VCHRANGE	IQUANT	2	Vch Range
VCHRANGEMODE	TOGGLE	T	Vch Auto Range
VCHOFFSETENABLE	TOGGLE	F	Vch Offset Enable
VCHOFFSET	QUANT	0	Vch Offset (V)
VCHFILTER	IQUANT	1	Vch Filter
IERANGELOWERLIMIT	IQUANT	9	I/E Range Lower Limit
IERANGEMODE	TOGGLE	F	I/E AutoRange
IERANGE	IQUANT	9	I/E Range
ACHSELECT	IQUANT	1	Ach Select
ACHRANGE	IQUANT	2	Ach Range
ACHOFFSETENABLE	TOGGLE	F	Ach Offset Enable
ACHOFFSET	QUANT	0	Ach Offset (V)
ACHFILTER	IQUANT	1	Ach Filter
CABLEID	IQUANT	14	Cable ID
DCCALDATE	LABEL	5-7-2017	DC Calibration Date
ACCALDATE	LABEL	12/3/2015	AC Calibration Date
FRAMEWORKVERSION	QUANT	7.01	Framework Version
INSTRUMENTVERSION	LABEL	4.00	Instrument Version
CURVE	TABLE	71
	Pt	T	Vf	Im	Vu	Pwr	Sig	Ach	Temp	IERange	Over
	#	s	V	A	V	W	V	V	deg C	#	bits
	0	0.013333	8.46113E-001	-9.83477E-005	0.00000E+000	-8.32133E-005	-5.99601E-002	8.46446E-001	3.57810E+000	9	...........
	1	0.026667	8.33106E-001	-9.87957E-005	0.00000E+000	-8.23073E-005	-5.99601E-002	8.33432E-001	3.57810E+000	9	...........
	2	0.04	8.20715E-001	-9.88614E-005	0.00000E+000	-8.11370E-005	-5.99601E-002	8.21030E-001	3.57810E+000	9	...........
	3	0.053333	8.08692E-001	-9.92281E-005	0.00000E+000	-8.02449E-005	-5.99601E-002	8.08978E-001	3.57810E+000	9	...........
	4	0.066667	7.96946E-001	-9.84446E-005	0.00000E+000	-7.84550E-005	-5.99601E-002	7.97225E-001	3.57810E+000	9	...........
	5	0.08	7.85384E-001	-9.88759E-005	0.00000E+000	-7.76556E-005	-5.99601E-002	7.85670E-001	3.57810E+000	9	...........
	6	0.093333	7.73995E-001	-9.94782E-005	0.00000E+000	-7.69956E-005	-5.99601E-002	7.74267E-001	3.57810E+000	9	...........
	7	0.106667	7.62731E-001	-9.91739E-005	0.00000E+000	-7.56430E-005	-5.99601E-002	7.62981E-001	3.57810E+000	9	...........
	8	0.12	7.51584E-001	-9.88645E-005	0.00000E+000	-7.43050E-005	-5.99601E-002	7.51841E-001	3.57810E+000	9	...........
	9	0.133333	7.40538E-001	-9.91072E-005	0.00000E+000	-7.33926E-005	-5.99601E-002	7.40801E-001	3.57810E+000	9	...........
	10	0.146667	7.29595E-001	-9.91156E-005	0.00000E+000	-7.23142E-005	-5.99601E-002	7.29856E-001	3.57810E+000	9	...........
	11	0.16	7.18752E-001	-9.93083E-005	0.00000E+000	-7.13781E-005	-5.99601E-002	7.19008E-001	3.57810E+000	9	...........
	12	0.173333	7.07957E-001	-9.87884E-005	0.00000E+000	-6.99379E-005	-5.99601E-002	7.08200E-001	3.57810E+000	9	...........
	13	0.186667	6.97247E-001	-9.88603E-005	0.00000E+000	-6.89300E-005	-5.99601E-002	6.97487E-001	3.57810E+000	9	...........
	14	0.2	6.86576E-001	-9.95948E-005	0.00000E+000	-6.83795E-005	-5.99601E-002	6.86825E-001	3.57810E+000	9	...........
	15	0.213333	6.75939E-001	-9.93833E-005	0.00000E+000	-6.71770E-005	-5.99601E-002	6.76163E-001	3.57810E+000	9	...........
	16	0.226667	6.65244E-001	-9.68380E-005	0.00000E+000	-6.44209E-005	-5.99601E-002	6.65488E-001	3.57810E+000	9	...........
	17	0.24	6.54482E-001	-9.85196E-005	0.00000E+000	-6.44793E-005	-5.99601E-002	6.54714E-001	3.57810E+000	9	...........
	18	0.253333	6.43619E-001	-9.90416E-005	0.00000E+000	-6.37451E-005	-5.99601E-002	6.43858E-001	3.57810E+000	9	...........
	19	0.266667	6.32594E-001	-9.81518E-005	0.00000E+000	-6.20903E-005	-5.99601E-002	6.32822E-001	3.57810E+000	9	...........
	20	0.28	6.21444E-001	-9.97459E-005	0.00000E+000	-6.19865E-005	-5.99601E-002	6.21644E-001	3.57810E+000	9	...........
	21	0.293333	6.10014E-001	-9.85686E-005	0.00000E+000	-6.01283E-005	-5.99601E-002	6.10277E-001	3.57810E+000	9	...........
	22	0.306667	5.98461E-001	-9.91448E-005	0.00000E+000	-5.93343E-005	-5.99601E-002	5.98720E-001	3.57810E+000	9	...........
	23	0.32	5.86694E-001	-9.92177E-005	0.00000E+000	-5.82105E-005	-5.99601E-002	5.86972E-001	3.57810E+000	9	...........
	24	0.333333	5.74789E-001	-9.94031E-005	0.00000E+000	-5.71358E-005	-5.99601E-002	5.75036E-001	3.57810E+000	9	...........
	25	0.346667	5.62698E-001	-9.85102E-005	0.00000E+000	-5.54315E-005	-5.99601E-002	5.62965E-001	3.57810E+000	9	...........
	26	0.36	5.50449E-001	-9.88374E-005	0.00000E+000	-5.44049E-005	-5.99601E-002	5.50684E-001	3.57810E+000	9	...........
	27	0.373333	5.38107E-001	-9.88562E-005	0.00000E+000	-5.31951E-005	-5.99601E-002	5.38314E-001	3.57810E+000	9	...........
	28	0.386667	5.25606E-001	-9.83331E-005	0.00000E+000	-5.16844E-005	-5.99601E-002	5.25809E-001	3.57810E+000	9	...........
	29	0.4	5.12990E-001	-9.90572E-005	0.00000E+000	-5.08153E-005	-5.99601E-002	5.13214E-001	3.57810E+000	9	...........
	30	0.413333	5.00285E-001	-1.00155E-004	0.00000E+000	-5.01062E-005	-5.99601E-002	5.00501E-001	3.57705E+000	9	...........
	31	0.426667	4.87597E-001	-9.81425E-005	0.00000E+000	-4.78539E-005	-5.99601E-002	4.87762E-001	3.57670E+000	9	...........
	32	0.44	4.74972E-001	-9.79664E-005	0.00000E+000	-4.65313E-005	-5.99601E-002	4.75076E-001	3.57670E+000	9	...........
	33	0.453333	4.62045E-001	-9.74757E-005	0.00000E+000	-4.50381E-005	-5.99601E-002	4.62142E-001	3.57670E+000	9	...........
	34	0.466667	4.49069E-001	-9.87582E-005	0.00000E+000	-4.43492E-005	-5.99601E-002	4.49162E-001	3.57670E+000	9	...........
	35	0.48	4.36041E-001	-9.87686E-005	0.00000E+000	-4.30672E-005	-5.99601E-002	4.36138E-001	3.57670E+000	9	...........
	36	0.493333	4.22998E-001	-9.90729E-005	0.00000E+000	-4.19077E-005	-5.99601E-002	4.23085E-001	3.57670E+000	9	...........
	37	0.506667	4.09928E-001	-9.85144E-005	0.00000E+000	-4.03838E-005	-5.99601E-002	4.10021E-001	3.57670E+000	9	...........
	38	0.52	3.96854E-001	-9.90802E-005	0.00000E+000	-3.93203E-005	-5.99601E-002	3.96934E-001	3.57670E+000	9	...........
	39	0.533333	3.83772E-001	-9.97709E-005	0.00000E+000	-3.82892E-005	-5.99601E-002	3.83848E-001	3.57670E+000	9	...........
	40	0.546667	3.70708E-001	-9.85967E-005	0.00000E+000	-3.65506E-005	-5.99601E-002	3.70786E-001	3.57670E+000	9	...........
	41	0.56	3.57668E-001	-9.81185E-005	0.00000E+000	-3.50938E-005	-5.99601E-002	3.57743E-001	3.57670E+000	9	...........
	42	0.573333	3.44645E-001	-9.82091E-005	0.00000E+000	-3.38472E-005	-5.99601E-002	3.44722E-001	3.57670E+000	9	...........
	43	0.586667	3.31667E-001	-9.82394E-005	0.00000E+000	-3.25828E-005	-5.99601E-002	3.31734E-001	3.57670E+000	9	...........
	44	0.6	3.18714E-001	-9.91260E-005	0.00000E+000	-3.15928E-005	-5.99601E-002	3.18790E-001	3.57670E+000	9	...........
	45	0.613333	3.05817E-001	-9.91218E-005	0.00000E+000	-3.03132E-005	-5.99601E-002	3.05885E-001	3.57670E+000	9	...........
	46	0.626667	2.92963E-001	-9.91104E-005	0.00000E+000	-2.90357E-005	-5.99601E-002	2.93025E-001	3.57670E+000	9	...........
	47	0.64	2.80155E-001	-9.78216E-005	0.00000E+000	-2.74052E-005	-5.99601E-002	2.80217E-001	3.57670E+000	9	...........
	48	0.653333	2.67391E-001	-9.81675E-005	0.00000E+000	-2.62491E-005	-5.99601E-002	2.67447E-001	3.57670E+000	9	...........
	49	0.666667	2.54689E-001	-9.79508E-005	0.00000E+000	-2.49470E-005	-5.99601E-002	2.54743E-001	3.57670E+000	9	...........
	50	0.68	2.42043E-001	-9.74163E-005	0.00000E+000	-2.35789E-005	-5.99601E-002	2.42094E-001	3.57670E+000	9	...........
	51	0.693333	2.29447E-001	-9.84946E-005	0.00000E+000	-2.25993E-005	-5.99601E-002	2.29494E-001	3.57670E+000	9	...........
	52	0.706667	2.16905E-001	-9.95646E-005	0.00000E+000	-2.15961E-005	-5.99601E-002	2.16946E-001	3.57670E+000	9	...........
	53	0.72	2.04406E-001	-9.84561E-005	0.00000E+000	-2.01251E-005	-5.99601E-002	2.04449E-001	3.57670E+000	9	...........
	54	0.733333	1.91950E-001	-9.87290E-005	0.00000E+000	-1.89511E-005	-5.99601E-002	1.91992E-001	3.57670E+000	9	...........
	55	0.746667	1.79544E-001	-9.88937E-005	0.00000E+000	-1.77558E-005	-5.99601E-002	1.79580E-001	3.57670E+000	9	...........
	56	0.76	1.67168E-001	-9.88853E-005	0.00000E+000	-1.65305E-005	-5.99601E-002	1.67201E-001	3.57670E+000	9	...........
	57	0.773333	1.54846E-001	-9.77632E-005	0.00000E+000	-1.51382E-005	-5.99601E-002	1.54879E-001	3.57670E+000	9	...........
	58	0.786667	1.42574E-001	-9.83613E-005	0.00000E+000	-1.40238E-005	-5.99601E-002	1.42605E-001	3.57670E+000	9	...........
	59	0.8	1.30354E-001	-9.90604E-005	0.00000E+000	-1.29129E-005	-5.99601E-002	1.30382E-001	3.57670E+000	9	...........
	60	0.813333	1.18212E-001	-9.87853E-005	0.00000E+000	-1.16776E-005	-5.99601E-002	1.18233E-001	3.57670E+000	9	...........
	61	0.826667	1.06127E-001	-9.83727E-005	0.00000E+000	-1.04400E-005	-5.99601E-002	1.06149E-001	3.57670E+000	9	...........
	62	0.84	9.41346E-002	-9.87707E-005	0.00000E+000	-9.29775E-006	-5.99601E-002	9.41538E-002	3.57670E+000	9	...........
	63	0.853333	8.22180E-002	-9.75111E-005	0.00000E+000	-8.01716E-006	-5.99601E-002	8.22354E-002	3.57670E+000	9	...........
	64	0.866667	7.04054E-002	-9.87738E-005	0.00000E+000	-6.95421E-006	-5.99601E-002	7.04121E-002	3.57670E+000	9	...........
	65	0.88	5.86976E-002	-9.89301E-005	0.00000E+000	-5.80696E-006	-5.99601E-002	5.87015E-002	3.57670E+000	9	...........
	66	0.893333	4.71201E-002	-9.87718E-005	0.00000E+000	-4.65413E-006	-5.99601E-002	4.71299E-002	3.57670E+000	9	...........
	67	0.906667	3.56646E-002	-9.96876E-005	0.00000E+000	-3.55532E-006	-5.99601E-002	3.56680E-002	3.57670E+000	9	...........
	68	0.92	2.43428E-002	-9.79841E-005	0.00000E+000	-2.38520E-006	-5.99601E-002	2.43352E-002	3.57670E+000	9	...........
	69	0.933333	1.31684E-002	-9.94959E-005	0.00000E+000	-1.31020E-006	-5.99601E-002	1.31535E-002	3.57670E+000	9	...........
	70	0.945	2.82707E-003	-9.73255E-005	0.00000E+000	-2.75146E-007	-5.99601E-002	2.81237E-003	3.57670E+000	9	...........
STARTTIMEOFFSET	QUANT	812.0068	Start Time Offset (s)
