EXPLAIN
TAG	PWR800_DISCHARGE
TITLE	LABEL	PWR Cyclic Charge Discharge (Cell) - Discharge Step	Test &Identifier
DATE	LABEL	12-7-2017	Date
TIME	LABEL	16:55:17	Time
NOTES	NOTES	2	&Notes...
	supercap test cell
	6M KOH
PSTAT	PSTAT	IFC5000-01520	Potentiostat
CAPACITY	QUANT	1.00000E-003	Capacity (A-hr)
CELLTYPE	SELECTOR	1	&Cell Type
WORKINGCONNECTION	SELECTOR	0	&Working Lead
MAXDISCHARGETIME	VARIABLEANDUNITS	1.00000E+002	s	1.00000E+002	second(s)	Max &Discharge Time
DISCHARGEMODE	MULTIPARAM	0	1.00000E-004	&Discharge Mode	Constant Current	Amp(s)
SAMPLETIME	QUANT	1.00000E-002	Sa&mple Period (s)
DISCHARGESTOPAT1	MULTIPARAM	3	0.00000E+000	Discharge Stop At &1	Voltage < Limit	V
DISCHARGESTOPAT2	MULTIPARAM	0	0.00000E+000	Discharge Stop At &2	None	N/A
AESBHCSELECTOR	TOGGLE	F	Save Both Half Cells
IRCOMP	TOGGLE	F	IR &Measure
EOC	QUANT	0	Open Circuit (V)
SEQUENCER	TOGGLE	TRUE	Run as Sequence
PSTATMODEL	IQUANT	53	Pstat Model
PSTATSECTION	LABEL	IFC5000-01520	Pstat Section
PSTATSERIALNO	LABEL	01520	Pstat Serial Number
CTRLMODE	IQUANT	0	Control Mode
ELECTROMETER	IQUANT	1	RE=0 or CS=1
IESTAB	IQUANT	0	I/E Stability
CASPEED	IQUANT	4	Control Amp Speed
CONVENTION	IQUANT	1	Current Convention
ICHRANGE	IQUANT	2	Ich Range
ICHRANGEMODE	TOGGLE	T	Ich Auto Range
ICHOFFSETENABLE	TOGGLE	F	Ich Offset Enable
ICHOFFSET	QUANT	0	Ich Offset (V)
ICHFILTER	IQUANT	1	Ich Filter
VCHRANGE	IQUANT	2	Vch Range
VCHRANGEMODE	TOGGLE	T	Vch Auto Range
VCHOFFSETENABLE	TOGGLE	F	Vch Offset Enable
VCHOFFSET	QUANT	0	Vch Offset (V)
VCHFILTER	IQUANT	1	Vch Filter
IERANGELOWERLIMIT	IQUANT	9	I/E Range Lower Limit
IERANGEMODE	TOGGLE	F	I/E AutoRange
IERANGE	IQUANT	9	I/E Range
ACHSELECT	IQUANT	1	Ach Select
ACHRANGE	IQUANT	2	Ach Range
ACHOFFSETENABLE	TOGGLE	F	Ach Offset Enable
ACHOFFSET	QUANT	0	Ach Offset (V)
ACHFILTER	IQUANT	1	Ach Filter
CABLEID	IQUANT	14	Cable ID
DCCALDATE	LABEL	5-7-2017	DC Calibration Date
ACCALDATE	LABEL	12/3/2015	AC Calibration Date
FRAMEWORKVERSION	QUANT	7.01	Framework Version
INSTRUMENTVERSION	LABEL	4.00	Instrument Version
CURVE	TABLE	70
	Pt	T	Vf	Im	Vu	Pwr	Sig	Ach	Temp	IERange	Over
	#	s	V	A	V	W	V	V	deg C	#	bits
	0	0.013333	8.46298E-001	-9.92604E-005	0.00000E+000	-8.40039E-005	-5.99601E-002	8.46567E-001	3.57770E+000	9	...........
	1	0.026667	8.33033E-001	-9.84821E-005	0.00000E+000	-8.20389E-005	-5.99601E-002	8.33286E-001	3.57770E+000	9	...........
	2	0.04	8.20368E-001	-9.95761E-005	0.00000E+000	-8.16891E-005	-5.99601E-002	8.20631E-001	3.57770E+000	9	...........
	3	0.053333	8.08073E-001	-9.83331E-005	0.00000E+000	-7.94603E-005	-5.99601E-002	8.08311E-001	3.57770E+000	9	...........
	4	0.066667	7.96064E-001	-9.86644E-005	0.00000E+000	-7.85432E-005	-5.99601E-002	7.96297E-001	3.57770E+000	9	...........
	5	0.08	7.84199E-001	-9.84331E-005	0.00000E+000	-7.71912E-005	-5.99601E-002	7.84426E-001	3.57770E+000	9	...........
	6	0.093333	7.72498E-001	-9.92510E-005	0.00000E+000	-7.66712E-005	-5.99601E-002	7.72747E-001	3.57770E+000	9	...........
	7	0.106667	7.60931E-001	-9.97053E-005	0.00000E+000	-7.58689E-005	-5.99601E-002	7.61172E-001	3.57770E+000	9	...........
	8	0.12	7.49483E-001	-9.75163E-005	0.00000E+000	-7.30868E-005	-5.99601E-002	7.49734E-001	3.57770E+000	9	...........
	9	0.133333	7.38097E-001	-9.81852E-005	0.00000E+000	-7.24702E-005	-5.99601E-002	7.38320E-001	3.57770E+000	9	...........
	10	0.146667	7.26831E-001	-9.86144E-005	0.00000E+000	-7.16761E-005	-5.99601E-002	7.27063E-001	3.57770E+000	9	...........
	11	0.16	7.15622E-001	-9.83039E-005	0.00000E+000	-7.03485E-005	-5.99601E-002	7.15849E-001	3.57770E+000	9	...........
	12	0.173333	7.04477E-001	-9.83373E-005	0.00000E+000	-6.92763E-005	-5.99601E-002	7.04746E-001	3.57770E+000	9	...........
	13	0.186667	6.93450E-001	-9.99053E-005	0.00000E+000	-6.92794E-005	-5.99601E-002	6.93712E-001	3.57770E+000	9	...........
	14	0.2	6.82496E-001	-9.83748E-005	0.00000E+000	-6.71404E-005	-5.99601E-002	6.82760E-001	3.57770E+000	9	...........
	15	0.213333	6.71615E-001	-9.96136E-005	0.00000E+000	-6.69020E-005	-5.99601E-002	6.71857E-001	3.57770E+000	9	...........
	16	0.226667	6.60736E-001	-9.89395E-005	0.00000E+000	-6.53728E-005	-5.99601E-002	6.61012E-001	3.57770E+000	9	...........
	17	0.24	6.49942E-001	-9.72912E-005	0.00000E+000	-6.32336E-005	-5.99601E-002	6.50208E-001	3.57770E+000	9	...........
	18	0.253333	6.39120E-001	-9.88822E-005	0.00000E+000	-6.31976E-005	-5.99601E-002	6.39379E-001	3.57770E+000	9	...........
	19	0.266667	6.28239E-001	-9.97553E-005	0.00000E+000	-6.26701E-005	-5.99601E-002	6.28496E-001	3.57770E+000	9	...........
	20	0.28	6.17243E-001	-9.91573E-005	0.00000E+000	-6.12041E-005	-5.99601E-002	6.17496E-001	3.57770E+000	9	...........
	21	0.293333	6.06057E-001	-9.87280E-005	0.00000E+000	-5.98348E-005	-5.99601E-002	6.06296E-001	3.57770E+000	9	...........
	22	0.306667	5.94712E-001	-9.89103E-005	0.00000E+000	-5.88232E-005	-5.99601E-002	5.94961E-001	3.57770E+000	9	...........
	23	0.32	5.83134E-001	-9.67422E-005	0.00000E+000	-5.64137E-005	-5.99601E-002	5.83355E-001	3.57770E+000	9	...........
	24	0.333333	5.71378E-001	-9.90020E-005	0.00000E+000	-5.65675E-005	-5.99601E-002	5.71557E-001	3.57770E+000	9	...........
	25	0.346667	5.59349E-001	-9.89947E-005	0.00000E+000	-5.53726E-005	-5.99601E-002	5.59564E-001	3.57770E+000	9	...........
	26	0.36	5.47157E-001	-9.96990E-005	0.00000E+000	-5.45511E-005	-5.99601E-002	5.47372E-001	3.57770E+000	9	...........
	27	0.373333	5.34750E-001	-9.86582E-005	0.00000E+000	-5.27575E-005	-5.99601E-002	5.34961E-001	3.57770E+000	9	...........
	28	0.386667	5.22182E-001	-9.86467E-005	0.00000E+000	-5.15115E-005	-5.99601E-002	5.22391E-001	3.57770E+000	9	...........
	29	0.4	5.09438E-001	-9.83529E-005	0.00000E+000	-5.01048E-005	-5.99601E-002	5.09638E-001	3.57770E+000	9	...........
	30	0.413333	4.96555E-001	-9.73777E-005	0.00000E+000	-4.83534E-005	-5.99601E-002	4.96768E-001	3.57710E+000	9	...........
	31	0.426667	4.83690E-001	-9.93104E-005	0.00000E+000	-4.80354E-005	-5.99601E-002	4.83853E-001	3.57650E+000	9	...........
	32	0.44	4.70717E-001	-9.85946E-005	0.00000E+000	-4.64101E-005	-5.99601E-002	4.70822E-001	3.57650E+000	9	...........
	33	0.453333	4.57501E-001	-9.93375E-005	0.00000E+000	-4.54470E-005	-5.99601E-002	4.57598E-001	3.57650E+000	9	...........
	34	0.466667	4.44197E-001	-9.88822E-005	0.00000E+000	-4.39232E-005	-5.99601E-002	4.44293E-001	3.57650E+000	9	...........
	35	0.48	4.30819E-001	-9.98095E-005	0.00000E+000	-4.29998E-005	-5.99601E-002	4.30913E-001	3.57650E+000	9	...........
	36	0.493333	4.17399E-001	-9.74965E-005	0.00000E+000	-4.06949E-005	-5.99601E-002	4.17492E-001	3.57650E+000	9	...........
	37	0.506667	4.03937E-001	-9.81748E-005	0.00000E+000	-3.96564E-005	-5.99601E-002	4.04013E-001	3.57650E+000	9	...........
	38	0.52	3.90448E-001	-9.80997E-005	0.00000E+000	-3.83028E-005	-5.99601E-002	3.90526E-001	3.57650E+000	9	...........
	39	0.533333	3.76938E-001	-9.82060E-005	0.00000E+000	-3.70176E-005	-5.99601E-002	3.77014E-001	3.57650E+000	9	...........
	40	0.546667	3.63423E-001	-9.78632E-005	0.00000E+000	-3.55658E-005	-5.99601E-002	3.63498E-001	3.57650E+000	9	...........
	41	0.56	3.49920E-001	-9.79497E-005	0.00000E+000	-3.42746E-005	-5.99601E-002	3.49992E-001	3.57650E+000	9	...........
	42	0.573333	3.36434E-001	-9.79976E-005	0.00000E+000	-3.29697E-005	-5.99601E-002	3.36499E-001	3.57650E+000	9	...........
	43	0.586667	3.22979E-001	-9.87718E-005	0.00000E+000	-3.19012E-005	-5.99601E-002	3.23048E-001	3.57650E+000	9	...........
	44	0.6	3.09561E-001	-9.82862E-005	0.00000E+000	-3.04256E-005	-5.99601E-002	3.09624E-001	3.57650E+000	9	...........
	45	0.613333	2.96198E-001	-9.85269E-005	0.00000E+000	-2.91835E-005	-5.99601E-002	2.96258E-001	3.57650E+000	9	...........
	46	0.626667	2.82881E-001	-1.00163E-004	0.00000E+000	-2.83341E-005	-5.99601E-002	2.82938E-001	3.57650E+000	9	...........
	47	0.64	2.69621E-001	-9.87072E-005	0.00000E+000	-2.66136E-005	-5.99601E-002	2.69680E-001	3.57650E+000	9	...........
	48	0.653333	2.56445E-001	-9.90145E-005	0.00000E+000	-2.53917E-005	-5.99601E-002	2.56493E-001	3.57650E+000	9	...........
	49	0.666667	2.43338E-001	-9.92427E-005	0.00000E+000	-2.41495E-005	-5.99601E-002	2.43383E-001	3.57650E+000	9	...........
	50	0.68	2.30297E-001	-9.84592E-005	0.00000E+000	-2.26749E-005	-5.99601E-002	2.30347E-001	3.57650E+000	9	...........
	51	0.693333	2.17328E-001	-9.90083E-005	0.00000E+000	-2.15173E-005	-5.99601E-002	2.17373E-001	3.57650E+000	9	...........
	52	0.706667	2.04438E-001	-9.86196E-005	0.00000E+000	-2.01616E-005	-5.99601E-002	2.04480E-001	3.57650E+000	9	...........
	53	0.72	1.91630E-001	-9.88562E-005	0.00000E+000	-1.89438E-005	-5.99601E-002	1.91669E-001	3.57650E+000	9	...........
	54	0.733333	1.78899E-001	-9.82769E-005	0.00000E+000	-1.75816E-005	-5.99601E-002	1.78938E-001	3.57650E+000	9	...........
	55	0.746667	1.66247E-001	-9.90968E-005	0.00000E+000	-1.64746E-005	-5.99601E-002	1.66280E-001	3.57650E+000	9	...........
	56	0.76	1.53682E-001	-9.87895E-005	0.00000E+000	-1.51821E-005	-5.99601E-002	1.53711E-001	3.57650E+000	9	...........
	57	0.773333	1.41192E-001	-9.83081E-005	0.00000E+000	-1.38803E-005	-5.99601E-002	1.41223E-001	3.57650E+000	9	...........
	58	0.786667	1.28785E-001	-9.92750E-005	0.00000E+000	-1.27851E-005	-5.99601E-002	1.28810E-001	3.57650E+000	9	...........
	59	0.8	1.16465E-001	-9.76757E-005	0.00000E+000	-1.13758E-005	-5.99601E-002	1.16484E-001	3.57650E+000	9	...........
	60	0.813333	1.04224E-001	-9.93865E-005	0.00000E+000	-1.03585E-005	-5.99601E-002	1.04245E-001	3.57650E+000	9	...........
	61	0.826667	9.20930E-002	-9.81945E-005	0.00000E+000	-9.04303E-006	-5.99601E-002	9.21147E-002	3.57650E+000	9	...........
	62	0.84	8.00655E-002	-9.99876E-005	0.00000E+000	-8.00556E-006	-5.99601E-002	8.00832E-002	3.57650E+000	9	...........
	63	0.853333	6.81665E-002	-9.94729E-005	0.00000E+000	-6.78072E-006	-5.99601E-002	6.81774E-002	3.57650E+000	9	...........
	64	0.866667	5.63918E-002	-1.00687E-004	0.00000E+000	-5.67791E-006	-5.99601E-002	5.63978E-002	3.57650E+000	9	...........
	65	0.88	4.47864E-002	-9.86415E-005	0.00000E+000	-4.41780E-006	-5.99601E-002	4.47936E-002	3.57650E+000	9	...........
	66	0.893333	3.33149E-002	-9.81425E-005	0.00000E+000	-3.26961E-006	-5.99601E-002	3.33174E-002	3.57650E+000	9	...........
	67	0.906667	2.19996E-002	-9.83039E-005	0.00000E+000	-2.16265E-006	-5.99601E-002	2.19933E-002	3.57650E+000	9	...........
	68	0.92	1.08460E-002	-9.82331E-005	0.00000E+000	-1.06544E-006	-5.99601E-002	1.08367E-002	3.57650E+000	9	...........
	69	0.928333	1.91103E-003	-1.00531E-004	0.00000E+000	-1.92117E-007	-5.99601E-002	1.89502E-003	3.57650E+000	9	...........
STARTTIMEOFFSET	QUANT	1927.284	Start Time Offset (s)
