EXPLAIN
TAG	PWR800_DISCHARGE
TITLE	LABEL	PWR Cyclic Charge Discharge (Cell) - Discharge Step	Test &Identifier
DATE	LABEL	12-7-2017	Date
TIME	LABEL	16:35:24	Time
NOTES	NOTES	2	&Notes...
	supercap test cell
	6M KOH
PSTAT	PSTAT	IFC5000-01520	Potentiostat
CAPACITY	QUANT	1.00000E-003	Capacity (A-hr)
CELLTYPE	SELECTOR	1	&Cell Type
WORKINGCONNECTION	SELECTOR	0	&Working Lead
MAXDISCHARGETIME	VARIABLEANDUNITS	1.00000E+002	s	1.00000E+002	second(s)	Max &Discharge Time
DISCHARGEMODE	MULTIPARAM	0	1.00000E-004	&Discharge Mode	Constant Current	Amp(s)
SAMPLETIME	QUANT	1.00000E-002	Sa&mple Period (s)
DISCHARGESTOPAT1	MULTIPARAM	3	0.00000E+000	Discharge Stop At &1	Voltage < Limit	V
DISCHARGESTOPAT2	MULTIPARAM	0	0.00000E+000	Discharge Stop At &2	None	N/A
AESBHCSELECTOR	TOGGLE	F	Save Both Half Cells
IRCOMP	TOGGLE	F	IR &Measure
EOC	QUANT	0	Open Circuit (V)
SEQUENCER	TOGGLE	TRUE	Run as Sequence
PSTATMODEL	IQUANT	53	Pstat Model
PSTATSECTION	LABEL	IFC5000-01520	Pstat Section
PSTATSERIALNO	LABEL	01520	Pstat Serial Number
CTRLMODE	IQUANT	0	Control Mode
ELECTROMETER	IQUANT	1	RE=0 or CS=1
IESTAB	IQUANT	0	I/E Stability
CASPEED	IQUANT	4	Control Amp Speed
CONVENTION	IQUANT	1	Current Convention
ICHRANGE	IQUANT	2	Ich Range
ICHRANGEMODE	TOGGLE	T	Ich Auto Range
ICHOFFSETENABLE	TOGGLE	F	Ich Offset Enable
ICHOFFSET	QUANT	0	Ich Offset (V)
ICHFILTER	IQUANT	1	Ich Filter
VCHRANGE	IQUANT	2	Vch Range
VCHRANGEMODE	TOGGLE	T	Vch Auto Range
VCHOFFSETENABLE	TOGGLE	F	Vch Offset Enable
VCHOFFSET	QUANT	0	Vch Offset (V)
VCHFILTER	IQUANT	1	Vch Filter
IERANGELOWERLIMIT	IQUANT	9	I/E Range Lower Limit
IERANGEMODE	TOGGLE	F	I/E AutoRange
IERANGE	IQUANT	9	I/E Range
ACHSELECT	IQUANT	1	Ach Select
ACHRANGE	IQUANT	2	Ach Range
ACHOFFSETENABLE	TOGGLE	F	Ach Offset Enable
ACHOFFSET	QUANT	0	Ach Offset (V)
ACHFILTER	IQUANT	1	Ach Filter
CABLEID	IQUANT	14	Cable ID
DCCALDATE	LABEL	5-7-2017	DC Calibration Date
ACCALDATE	LABEL	12/3/2015	AC Calibration Date
FRAMEWORKVERSION	QUANT	7.01	Framework Version
INSTRUMENTVERSION	LABEL	4.00	Instrument Version
CURVE	TABLE	71
	Pt	T	Vf	Im	Vu	Pwr	Sig	Ach	Temp	IERange	Over
	#	s	V	A	V	W	V	V	deg C	#	bits
	0	0.013333	8.44187E-001	-9.78809E-005	0.00000E+000	-8.26298E-005	-5.99601E-002	8.44509E-001	3.57700E+000	9	...........
	1	0.026667	8.31146E-001	-9.81977E-005	0.00000E+000	-8.16166E-005	-5.99601E-002	8.31451E-001	3.57700E+000	9	...........
	2	0.04	8.18683E-001	-9.78736E-005	0.00000E+000	-8.01275E-005	-5.99601E-002	8.18965E-001	3.57700E+000	9	...........
	3	0.053333	8.06591E-001	-9.92021E-005	0.00000E+000	-8.00155E-005	-5.99601E-002	8.06885E-001	3.57700E+000	9	...........
	4	0.066667	7.94785E-001	-9.93677E-005	0.00000E+000	-7.89760E-005	-5.99601E-002	7.95062E-001	3.57674E+000	9	...........
	5	0.08	7.83155E-001	-9.95678E-005	0.00000E+000	-7.79769E-005	-5.99601E-002	7.83434E-001	3.57670E+000	9	...........
	6	0.093333	7.71710E-001	-9.89697E-005	0.00000E+000	-7.63760E-005	-5.99601E-002	7.71981E-001	3.57670E+000	9	...........
	7	0.106667	7.60370E-001	-9.83258E-005	0.00000E+000	-7.47640E-005	-5.99601E-002	7.60606E-001	3.57670E+000	9	...........
	8	0.12	7.49170E-001	-9.84967E-005	0.00000E+000	-7.37907E-005	-5.99601E-002	7.49390E-001	3.57670E+000	9	...........
	9	0.133333	7.38035E-001	-1.00158E-004	0.00000E+000	-7.39205E-005	-5.99601E-002	7.38279E-001	3.57670E+000	9	...........
	10	0.146667	7.27063E-001	-9.87488E-005	0.00000E+000	-7.17966E-005	-5.99601E-002	7.27278E-001	3.57670E+000	9	...........
	11	0.16	7.16114E-001	-9.81331E-005	0.00000E+000	-7.02744E-005	-5.99601E-002	7.16351E-001	3.57670E+000	9	...........
	12	0.173333	7.05283E-001	-9.90854E-005	0.00000E+000	-6.98833E-005	-5.99601E-002	7.05504E-001	3.57670E+000	9	...........
	13	0.186667	6.94519E-001	-9.85728E-005	0.00000E+000	-6.84607E-005	-5.99601E-002	6.94729E-001	3.57670E+000	9	...........
	14	0.2	6.83809E-001	-9.90374E-005	0.00000E+000	-6.77227E-005	-5.99601E-002	6.84029E-001	3.57670E+000	9	...........
	15	0.213333	6.73181E-001	-9.83217E-005	0.00000E+000	-6.61883E-005	-5.99601E-002	6.73388E-001	3.57670E+000	9	...........
	16	0.226667	6.62518E-001	-9.84404E-005	0.00000E+000	-6.52185E-005	-5.99601E-002	6.62758E-001	3.57670E+000	9	...........
	17	0.24	6.51866E-001	-9.91281E-005	0.00000E+000	-6.46182E-005	-5.99601E-002	6.52096E-001	3.57670E+000	9	...........
	18	0.253333	6.41140E-001	-9.81154E-005	0.00000E+000	-6.29057E-005	-5.99601E-002	6.41377E-001	3.57670E+000	9	...........
	19	0.266667	6.30279E-001	-9.86186E-005	0.00000E+000	-6.21573E-005	-5.99601E-002	6.30509E-001	3.57670E+000	9	...........
	20	0.28	6.19302E-001	-9.87311E-005	0.00000E+000	-6.11443E-005	-5.99601E-002	6.19493E-001	3.57670E+000	9	...........
	21	0.293333	6.08044E-001	-9.99470E-005	0.00000E+000	-6.07721E-005	-5.99601E-002	6.08292E-001	3.57670E+000	9	...........
	22	0.306667	5.96676E-001	-9.97553E-005	0.00000E+000	-5.95216E-005	-5.99601E-002	5.96892E-001	3.57670E+000	9	...........
	23	0.32	5.85071E-001	-9.85853E-005	0.00000E+000	-5.76794E-005	-5.99601E-002	5.85315E-001	3.57670E+000	9	...........
	24	0.333333	5.73306E-001	-9.86780E-005	0.00000E+000	-5.65727E-005	-5.99601E-002	5.73516E-001	3.57670E+000	9	...........
	25	0.346667	5.61299E-001	-9.95052E-005	0.00000E+000	-5.58522E-005	-5.99601E-002	5.61541E-001	3.57670E+000	9	...........
	26	0.36	5.49187E-001	-9.81508E-005	0.00000E+000	-5.39031E-005	-5.99601E-002	5.49390E-001	3.57670E+000	9	...........
	27	0.373333	5.36854E-001	-9.87468E-005	0.00000E+000	-5.30126E-005	-5.99601E-002	5.37070E-001	3.57670E+000	9	...........
	28	0.386667	5.24408E-001	-9.80081E-005	0.00000E+000	-5.13962E-005	-5.99601E-002	5.24581E-001	3.57670E+000	9	...........
	29	0.4	5.11836E-001	-9.80018E-005	0.00000E+000	-5.01608E-005	-5.99601E-002	5.11998E-001	3.57670E+000	9	...........
	30	0.413333	4.99085E-001	-9.86801E-005	0.00000E+000	-4.92497E-005	-5.99601E-002	4.99295E-001	3.57670E+000	9	...........
	31	0.426667	4.86410E-001	-9.89978E-005	0.00000E+000	-4.81536E-005	-5.99601E-002	4.86538E-001	3.57670E+000	9	...........
	32	0.44	4.73684E-001	-9.94927E-005	0.00000E+000	-4.71281E-005	-5.99601E-002	4.73781E-001	3.57670E+000	9	...........
	33	0.453333	4.60699E-001	-9.81154E-005	0.00000E+000	-4.52016E-005	-5.99601E-002	4.60793E-001	3.57670E+000	9	...........
	34	0.466667	4.47647E-001	-9.85384E-005	0.00000E+000	-4.41104E-005	-5.99601E-002	4.47740E-001	3.57670E+000	9	...........
	35	0.48	4.34545E-001	-9.85040E-005	0.00000E+000	-4.28044E-005	-5.99601E-002	4.34636E-001	3.57670E+000	9	...........
	36	0.493333	4.21391E-001	-9.87801E-005	0.00000E+000	-4.16250E-005	-5.99601E-002	4.21481E-001	3.57670E+000	9	...........
	37	0.506667	4.08225E-001	-9.84321E-005	0.00000E+000	-4.01824E-005	-5.99601E-002	4.08308E-001	3.57670E+000	9	...........
	38	0.52	3.95031E-001	-9.91020E-005	0.00000E+000	-3.91483E-005	-5.99601E-002	3.95108E-001	3.57670E+000	9	...........
	39	0.533333	3.81826E-001	-9.83956E-005	0.00000E+000	-3.75700E-005	-5.99601E-002	3.81904E-001	3.57670E+000	9	...........
	40	0.546667	3.68629E-001	-9.91958E-005	0.00000E+000	-3.65664E-005	-5.99601E-002	3.68708E-001	3.57670E+000	9	...........
	41	0.56	3.55444E-001	-9.90989E-005	0.00000E+000	-3.52241E-005	-5.99601E-002	3.55518E-001	3.57670E+000	9	...........
	42	0.573333	3.42279E-001	-9.86426E-005	0.00000E+000	-3.37632E-005	-5.99601E-002	3.42350E-001	3.57670E+000	9	...........
	43	0.586667	3.29157E-001	-9.78195E-005	0.00000E+000	-3.21980E-005	-5.99601E-002	3.29226E-001	3.57670E+000	9	...........
	44	0.6	3.16072E-001	-9.96178E-005	0.00000E+000	-3.14864E-005	-5.99601E-002	3.16137E-001	3.57670E+000	9	...........
	45	0.613333	3.03030E-001	-9.80174E-005	0.00000E+000	-2.97022E-005	-5.99601E-002	3.03099E-001	3.57670E+000	9	...........
	46	0.626667	2.90041E-001	-9.80049E-005	0.00000E+000	-2.84254E-005	-5.99601E-002	2.90106E-001	3.57670E+000	9	...........
	47	0.64	2.77109E-001	-1.00329E-004	0.00000E+000	-2.78022E-005	-5.99601E-002	2.77172E-001	3.57670E+000	9	...........
	48	0.653333	2.64228E-001	-9.85603E-005	0.00000E+000	-2.60424E-005	-5.99601E-002	2.64286E-001	3.57670E+000	9	...........
	49	0.666667	2.51411E-001	-9.95240E-005	0.00000E+000	-2.50215E-005	-5.99601E-002	2.51460E-001	3.57670E+000	9	...........
	50	0.68	2.38652E-001	-9.82987E-005	0.00000E+000	-2.34592E-005	-5.99601E-002	2.38699E-001	3.57670E+000	9	...........
	51	0.693333	2.25961E-001	-9.80164E-005	0.00000E+000	-2.21479E-005	-5.99601E-002	2.26008E-001	3.57670E+000	9	...........
	52	0.706667	2.13336E-001	-9.83800E-005	0.00000E+000	-2.09880E-005	-5.99601E-002	2.13379E-001	3.57670E+000	9	...........
	53	0.72	2.00771E-001	-9.86196E-005	0.00000E+000	-1.98000E-005	-5.99601E-002	2.00817E-001	3.57670E+000	9	...........
	54	0.733333	1.88263E-001	-9.93750E-005	0.00000E+000	-1.87087E-005	-5.99601E-002	1.88296E-001	3.57670E+000	9	...........
	55	0.746667	1.75805E-001	-9.78966E-005	0.00000E+000	-1.72107E-005	-5.99601E-002	1.75844E-001	3.57670E+000	9	...........
	56	0.76	1.63418E-001	-9.82143E-005	0.00000E+000	-1.60500E-005	-5.99601E-002	1.63451E-001	3.57670E+000	9	...........
	57	0.773333	1.51088E-001	-9.86415E-005	0.00000E+000	-1.49035E-005	-5.99601E-002	1.51113E-001	3.57670E+000	9	...........
	58	0.786667	1.38818E-001	-9.95282E-005	0.00000E+000	-1.38163E-005	-5.99601E-002	1.38844E-001	3.57670E+000	9	...........
	59	0.8	1.26613E-001	-9.86290E-005	0.00000E+000	-1.24878E-005	-5.99601E-002	1.26634E-001	3.57670E+000	9	...........
	60	0.813333	1.14469E-001	-9.90666E-005	0.00000E+000	-1.13400E-005	-5.99601E-002	1.14495E-001	3.57670E+000	9	...........
	61	0.826667	1.02411E-001	-9.86874E-005	0.00000E+000	-1.01067E-005	-5.99601E-002	1.02427E-001	3.57670E+000	9	...........
	62	0.84	9.04530E-002	-9.91625E-005	0.00000E+000	-8.96955E-006	-5.99601E-002	9.04644E-002	3.57670E+000	9	...........
	63	0.853333	7.85938E-002	-9.83988E-005	0.00000E+000	-7.73353E-006	-5.99601E-002	7.86021E-002	3.57670E+000	9	...........
	64	0.866667	6.68341E-002	-9.81164E-005	0.00000E+000	-6.55752E-006	-5.99601E-002	6.68346E-002	3.57670E+000	9	...........
	65	0.88	5.51889E-002	-9.74590E-005	0.00000E+000	-5.37865E-006	-5.99601E-002	5.51894E-002	3.57670E+000	9	...........
	66	0.893333	4.36894E-002	-9.97240E-005	0.00000E+000	-4.35688E-006	-5.99601E-002	4.36914E-002	3.57670E+000	9	...........
	67	0.906667	3.23203E-002	-9.80987E-005	0.00000E+000	-3.17058E-006	-5.99601E-002	3.23177E-002	3.57670E+000	9	...........
	68	0.92	2.10811E-002	-9.93281E-005	0.00000E+000	-2.09395E-006	-5.99601E-002	2.10732E-002	3.57670E+000	9	...........
	69	0.933333	1.00024E-002	-9.88218E-005	0.00000E+000	-9.88455E-007	-5.99601E-002	9.98715E-003	3.57670E+000	9	...........
	70	0.94	1.79499E-003	-9.90083E-005	0.00000E+000	-1.77719E-007	-5.99601E-002	1.77350E-003	3.57670E+000	9	...........
STARTTIMEOFFSET	QUANT	1083.416	Start Time Offset (s)
