EXPLAIN
TAG	PWR800_DISCHARGE
TITLE	LABEL	PWR Cyclic Charge Discharge (Cell) - Discharge Step	Test &Identifier
DATE	LABEL	12-7-2017	Date
TIME	LABEL	16:24:27	Time
NOTES	NOTES	2	&Notes...
	supercap test cell
	6M KOH
PSTAT	PSTAT	IFC5000-01520	Potentiostat
CAPACITY	QUANT	1.00000E-003	Capacity (A-hr)
CELLTYPE	SELECTOR	1	&Cell Type
WORKINGCONNECTION	SELECTOR	0	&Working Lead
MAXDISCHARGETIME	VARIABLEANDUNITS	1.00000E+002	s	1.00000E+002	second(s)	Max &Discharge Time
DISCHARGEMODE	MULTIPARAM	0	1.00000E-004	&Discharge Mode	Constant Current	Amp(s)
SAMPLETIME	QUANT	1.00000E-002	Sa&mple Period (s)
DISCHARGESTOPAT1	MULTIPARAM	3	0.00000E+000	Discharge Stop At &1	Voltage < Limit	V
DISCHARGESTOPAT2	MULTIPARAM	0	0.00000E+000	Discharge Stop At &2	None	N/A
AESBHCSELECTOR	TOGGLE	F	Save Both Half Cells
IRCOMP	TOGGLE	F	IR &Measure
EOC	QUANT	0	Open Circuit (V)
SEQUENCER	TOGGLE	TRUE	Run as Sequence
PSTATMODEL	IQUANT	53	Pstat Model
PSTATSECTION	LABEL	IFC5000-01520	Pstat Section
PSTATSERIALNO	LABEL	01520	Pstat Serial Number
CTRLMODE	IQUANT	0	Control Mode
ELECTROMETER	IQUANT	1	RE=0 or CS=1
IESTAB	IQUANT	0	I/E Stability
CASPEED	IQUANT	4	Control Amp Speed
CONVENTION	IQUANT	1	Current Convention
ICHRANGE	IQUANT	2	Ich Range
ICHRANGEMODE	TOGGLE	T	Ich Auto Range
ICHOFFSETENABLE	TOGGLE	F	Ich Offset Enable
ICHOFFSET	QUANT	0	Ich Offset (V)
ICHFILTER	IQUANT	1	Ich Filter
VCHRANGE	IQUANT	2	Vch Range
VCHRANGEMODE	TOGGLE	T	Vch Auto Range
VCHOFFSETENABLE	TOGGLE	F	Vch Offset Enable
VCHOFFSET	QUANT	0	Vch Offset (V)
VCHFILTER	IQUANT	1	Vch Filter
IERANGELOWERLIMIT	IQUANT	9	I/E Range Lower Limit
IERANGEMODE	TOGGLE	F	I/E AutoRange
IERANGE	IQUANT	9	I/E Range
ACHSELECT	IQUANT	1	Ach Select
ACHRANGE	IQUANT	2	Ach Range
ACHOFFSETENABLE	TOGGLE	F	Ach Offset Enable
ACHOFFSET	QUANT	0	Ach Offset (V)
ACHFILTER	IQUANT	1	Ach Filter
CABLEID	IQUANT	14	Cable ID
DCCALDATE	LABEL	5-7-2017	DC Calibration Date
ACCALDATE	LABEL	12/3/2015	AC Calibration Date
FRAMEWORKVERSION	QUANT	7.01	Framework Version
INSTRUMENTVERSION	LABEL	4.00	Instrument Version
CURVE	TABLE	71
	Pt	T	Vf	Im	Vu	Pwr	Sig	Ach	Temp	IERange	Over
	#	s	V	A	V	W	V	V	deg C	#	bits
	0	0.013333	8.46230E-001	-9.86561E-005	0.00000E+000	-8.34858E-005	-5.99601E-002	8.46558E-001	3.57830E+000	9	...........
	1	0.026667	8.33301E-001	-9.87322E-005	0.00000E+000	-8.22736E-005	-5.99601E-002	8.33611E-001	3.57830E+000	9	...........
	2	0.04	8.20955E-001	-9.89187E-005	0.00000E+000	-8.12078E-005	-5.99601E-002	8.21256E-001	3.57830E+000	9	...........
	3	0.053333	8.08979E-001	-9.89166E-005	0.00000E+000	-8.00214E-005	-5.99601E-002	8.09266E-001	3.57830E+000	9	...........
	4	0.066667	7.97287E-001	-9.85259E-005	0.00000E+000	-7.85534E-005	-5.99601E-002	7.97575E-001	3.57830E+000	9	...........
	5	0.08	7.85763E-001	-9.89155E-005	0.00000E+000	-7.77242E-005	-5.99601E-002	7.86052E-001	3.57830E+000	9	...........
	6	0.093333	7.74424E-001	-9.83310E-005	0.00000E+000	-7.61499E-005	-5.99601E-002	7.74696E-001	3.57830E+000	9	...........
	7	0.106667	7.63181E-001	-9.81122E-005	0.00000E+000	-7.48774E-005	-5.99601E-002	7.63500E-001	3.57830E+000	9	...........
	8	0.12	7.52102E-001	-9.89249E-005	0.00000E+000	-7.44016E-005	-5.99601E-002	7.52401E-001	3.57830E+000	9	...........
	9	0.133333	7.41115E-001	-9.88020E-005	0.00000E+000	-7.32237E-005	-5.99601E-002	7.41419E-001	3.57830E+000	9	...........
	10	0.146667	7.30261E-001	-9.97376E-005	0.00000E+000	-7.28345E-005	-5.99601E-002	7.30524E-001	3.57830E+000	9	...........
	11	0.16	7.19469E-001	-9.87790E-005	0.00000E+000	-7.10684E-005	-5.99601E-002	7.19744E-001	3.57830E+000	9	...........
	12	0.173333	7.08727E-001	-9.91291E-005	0.00000E+000	-7.02555E-005	-5.99601E-002	7.09003E-001	3.57830E+000	9	...........
	13	0.186667	6.98041E-001	-9.96730E-005	0.00000E+000	-6.95758E-005	-5.99601E-002	6.98312E-001	3.57830E+000	9	...........
	14	0.2	6.87358E-001	-9.88801E-005	0.00000E+000	-6.79660E-005	-5.99601E-002	6.87619E-001	3.57830E+000	9	...........
	15	0.213333	6.76649E-001	-9.86801E-005	0.00000E+000	-6.67718E-005	-5.99601E-002	6.76914E-001	3.57830E+000	9	...........
	16	0.226667	6.65891E-001	-9.89270E-005	0.00000E+000	-6.58746E-005	-5.99601E-002	6.66117E-001	3.57830E+000	9	...........
	17	0.24	6.54966E-001	-9.94136E-005	0.00000E+000	-6.51125E-005	-5.99601E-002	6.55186E-001	3.57830E+000	9	...........
	18	0.253333	6.43902E-001	-9.86905E-005	0.00000E+000	-6.35470E-005	-5.99601E-002	6.44142E-001	3.57830E+000	9	...........
	19	0.266667	6.32663E-001	-9.96605E-005	0.00000E+000	-6.30515E-005	-5.99601E-002	6.32904E-001	3.57830E+000	9	...........
	20	0.28	6.21260E-001	-9.81560E-005	0.00000E+000	-6.09804E-005	-5.99601E-002	6.21524E-001	3.57830E+000	9	...........
	21	0.293333	6.09650E-001	-9.90239E-005	0.00000E+000	-6.03700E-005	-5.99601E-002	6.09952E-001	3.57830E+000	9	...........
	22	0.306667	5.97919E-001	-9.83592E-005	0.00000E+000	-5.88108E-005	-5.99601E-002	5.98202E-001	3.57830E+000	9	...........
	23	0.32	5.86032E-001	-9.78361E-005	0.00000E+000	-5.73351E-005	-5.99601E-002	5.86306E-001	3.57830E+000	9	...........
	24	0.333333	5.73997E-001	-9.88343E-005	0.00000E+000	-5.67306E-005	-5.99601E-002	5.74251E-001	3.57830E+000	9	...........
	25	0.346667	5.61827E-001	-9.79653E-005	0.00000E+000	-5.50395E-005	-5.99601E-002	5.62101E-001	3.57830E+000	9	...........
	26	0.36	5.49518E-001	-9.92427E-005	0.00000E+000	-5.45357E-005	-5.99601E-002	5.49770E-001	3.57830E+000	9	...........
	27	0.373333	5.37135E-001	-9.92250E-005	0.00000E+000	-5.32972E-005	-5.99601E-002	5.37389E-001	3.57830E+000	9	...........
	28	0.386667	5.24640E-001	-9.75955E-005	0.00000E+000	-5.12025E-005	-5.99601E-002	5.24880E-001	3.57830E+000	9	...........
	29	0.4	5.12023E-001	-9.79018E-005	0.00000E+000	-5.01280E-005	-5.99601E-002	5.12285E-001	3.57830E+000	9	...........
	30	0.413333	4.99360E-001	-9.81268E-005	0.00000E+000	-4.90006E-005	-5.99601E-002	4.99606E-001	3.57830E+000	9	...........
	31	0.426667	4.86706E-001	-9.82862E-005	0.00000E+000	-4.78365E-005	-5.99601E-002	4.86924E-001	3.57830E+000	9	...........
	32	0.44	4.74161E-001	-9.89134E-005	0.00000E+000	-4.69009E-005	-5.99601E-002	4.74263E-001	3.57830E+000	9	...........
	33	0.453333	4.61339E-001	-9.79862E-005	0.00000E+000	-4.52048E-005	-5.99601E-002	4.61434E-001	3.57830E+000	9	...........
	34	0.466667	4.48464E-001	-9.94375E-005	0.00000E+000	-4.45941E-005	-5.99601E-002	4.48566E-001	3.57830E+000	9	...........
	35	0.48	4.35576E-001	-9.81154E-005	0.00000E+000	-4.27367E-005	-5.99601E-002	4.35672E-001	3.57830E+000	9	...........
	36	0.493333	4.22670E-001	-9.85801E-005	0.00000E+000	-4.16669E-005	-5.99601E-002	4.22762E-001	3.57830E+000	9	...........
	37	0.506667	4.09753E-001	-9.78341E-005	0.00000E+000	-4.00878E-005	-5.99601E-002	4.09841E-001	3.57830E+000	9	...........
	38	0.52	3.96850E-001	-9.91093E-005	0.00000E+000	-3.93316E-005	-5.99601E-002	3.96935E-001	3.57755E+000	9	...........
	39	0.533333	3.83951E-001	-9.88749E-005	0.00000E+000	-3.79631E-005	-5.99601E-002	3.84026E-001	3.57680E+000	9	...........
	40	0.546667	3.71064E-001	-9.95844E-005	0.00000E+000	-3.69521E-005	-5.99601E-002	3.71144E-001	3.57680E+000	9	...........
	41	0.56	3.58216E-001	-9.78528E-005	0.00000E+000	-3.50524E-005	-5.99601E-002	3.58286E-001	3.57680E+000	9	...........
	42	0.573333	3.45388E-001	-9.92323E-005	0.00000E+000	-3.42737E-005	-5.99601E-002	3.45461E-001	3.57680E+000	9	...........
	43	0.586667	3.32589E-001	-9.91125E-005	0.00000E+000	-3.29637E-005	-5.99601E-002	3.32659E-001	3.57680E+000	9	...........
	44	0.6	3.19833E-001	-1.00047E-004	0.00000E+000	-3.19983E-005	-5.99601E-002	3.19900E-001	3.57680E+000	9	...........
	45	0.613333	3.07113E-001	-9.93833E-005	0.00000E+000	-3.05219E-005	-5.99601E-002	3.07176E-001	3.57680E+000	9	...........
	46	0.626667	2.94435E-001	-1.00011E-004	0.00000E+000	-2.94466E-005	-5.99601E-002	2.94496E-001	3.57680E+000	9	...........
	47	0.64	2.81808E-001	-9.82175E-005	0.00000E+000	-2.76785E-005	-5.99601E-002	2.81863E-001	3.57680E+000	9	...........
	48	0.653333	2.69206E-001	-9.85029E-005	0.00000E+000	-2.65176E-005	-5.99601E-002	2.69263E-001	3.57680E+000	9	...........
	49	0.666667	2.56651E-001	-9.83904E-005	0.00000E+000	-2.52520E-005	-5.99601E-002	2.56707E-001	3.57680E+000	9	...........
	50	0.68	2.44134E-001	-9.90895E-005	0.00000E+000	-2.41911E-005	-5.99601E-002	2.44184E-001	3.57680E+000	9	...........
	51	0.693333	2.31660E-001	-9.86696E-005	0.00000E+000	-2.28579E-005	-5.99601E-002	2.31704E-001	3.57680E+000	9	...........
	52	0.706667	2.19218E-001	-9.81789E-005	0.00000E+000	-2.15225E-005	-5.99601E-002	2.19263E-001	3.57680E+000	9	...........
	53	0.72	2.06806E-001	-9.91062E-005	0.00000E+000	-2.04957E-005	-5.99601E-002	2.06850E-001	3.57680E+000	9	...........
	54	0.733333	1.94424E-001	-9.86717E-005	0.00000E+000	-1.91842E-005	-5.99601E-002	1.94464E-001	3.57680E+000	9	...........
	55	0.746667	1.82080E-001	-9.80747E-005	0.00000E+000	-1.78575E-005	-5.99601E-002	1.82123E-001	3.57680E+000	9	...........
	56	0.76	1.69776E-001	-9.83060E-005	0.00000E+000	-1.66900E-005	-5.99601E-002	1.69808E-001	3.57680E+000	9	...........
	57	0.773333	1.57509E-001	-9.80414E-005	0.00000E+000	-1.54424E-005	-5.99601E-002	1.57541E-001	3.57680E+000	9	...........
	58	0.786667	1.45279E-001	-9.90406E-005	0.00000E+000	-1.43886E-005	-5.99601E-002	1.45307E-001	3.57680E+000	9	...........
	59	0.8	1.33101E-001	-9.93458E-005	0.00000E+000	-1.32230E-005	-5.99601E-002	1.33124E-001	3.57680E+000	9	...........
	60	0.813333	1.20976E-001	-9.90531E-005	0.00000E+000	-1.19830E-005	-5.99601E-002	1.20999E-001	3.57680E+000	9	...........
	61	0.826667	1.08909E-001	-9.94969E-005	0.00000E+000	-1.08361E-005	-5.99601E-002	1.08934E-001	3.57680E+000	9	...........
	62	0.84	9.69186E-002	-9.81883E-005	0.00000E+000	-9.51628E-006	-5.99601E-002	9.69368E-002	3.57680E+000	9	...........
	63	0.853333	8.50057E-002	-9.88291E-005	0.00000E+000	-8.40104E-006	-5.99601E-002	8.50156E-002	3.57680E+000	9	...........
	64	0.866667	7.31753E-002	-9.95209E-005	0.00000E+000	-7.28247E-006	-5.99601E-002	7.31859E-002	3.57680E+000	9	...........
	65	0.88	6.14465E-002	-9.83498E-005	0.00000E+000	-6.04325E-006	-5.99601E-002	6.14511E-002	3.57680E+000	9	...........
	66	0.893333	4.98260E-002	-9.89437E-005	0.00000E+000	-4.92997E-006	-5.99601E-002	4.98352E-002	3.57680E+000	9	...........
	67	0.906667	3.83521E-002	-9.87853E-005	0.00000E+000	-3.78862E-006	-5.99601E-002	3.83541E-002	3.57680E+000	9	...........
	68	0.92	2.69758E-002	-9.93698E-005	0.00000E+000	-2.68058E-006	-5.99601E-002	2.69724E-002	3.57680E+000	9	...........
	69	0.933333	1.57443E-002	-9.91124E-005	0.00000E+000	-1.56046E-006	-5.99601E-002	1.57330E-002	3.57680E+000	9	...........
	70	0.946667	4.66588E-003	-9.89103E-005	0.00000E+000	-4.61504E-007	-5.99601E-002	4.64607E-003	3.57680E+000	9	...........
STARTTIMEOFFSET	QUANT	615.4683	Start Time Offset (s)
