EXPLAIN
TAG	PWR800_DISCHARGE
TITLE	LABEL	PWR Cyclic Charge Discharge (Cell) - Discharge Step	Test &Identifier
DATE	LABEL	12-7-2017	Date
TIME	LABEL	16:46:02	Time
NOTES	NOTES	2	&Notes...
	supercap test cell
	6M KOH
PSTAT	PSTAT	IFC5000-01520	Potentiostat
CAPACITY	QUANT	1.00000E-003	Capacity (A-hr)
CELLTYPE	SELECTOR	1	&Cell Type
WORKINGCONNECTION	SELECTOR	0	&Working Lead
MAXDISCHARGETIME	VARIABLEANDUNITS	1.00000E+002	s	1.00000E+002	second(s)	Max &Discharge Time
DISCHARGEMODE	MULTIPARAM	0	1.00000E-004	&Discharge Mode	Constant Current	Amp(s)
SAMPLETIME	QUANT	1.00000E-002	Sa&mple Period (s)
DISCHARGESTOPAT1	MULTIPARAM	3	0.00000E+000	Discharge Stop At &1	Voltage < Limit	V
DISCHARGESTOPAT2	MULTIPARAM	0	0.00000E+000	Discharge Stop At &2	None	N/A
AESBHCSELECTOR	TOGGLE	F	Save Both Half Cells
IRCOMP	TOGGLE	F	IR &Measure
EOC	QUANT	0	Open Circuit (V)
SEQUENCER	TOGGLE	TRUE	Run as Sequence
PSTATMODEL	IQUANT	53	Pstat Model
PSTATSECTION	LABEL	IFC5000-01520	Pstat Section
PSTATSERIALNO	LABEL	01520	Pstat Serial Number
CTRLMODE	IQUANT	0	Control Mode
ELECTROMETER	IQUANT	1	RE=0 or CS=1
IESTAB	IQUANT	0	I/E Stability
CASPEED	IQUANT	4	Control Amp Speed
CONVENTION	IQUANT	1	Current Convention
ICHRANGE	IQUANT	2	Ich Range
ICHRANGEMODE	TOGGLE	T	Ich Auto Range
ICHOFFSETENABLE	TOGGLE	F	Ich Offset Enable
ICHOFFSET	QUANT	0	Ich Offset (V)
ICHFILTER	IQUANT	1	Ich Filter
VCHRANGE	IQUANT	2	Vch Range
VCHRANGEMODE	TOGGLE	T	Vch Auto Range
VCHOFFSETENABLE	TOGGLE	F	Vch Offset Enable
VCHOFFSET	QUANT	0	Vch Offset (V)
VCHFILTER	IQUANT	1	Vch Filter
IERANGELOWERLIMIT	IQUANT	9	I/E Range Lower Limit
IERANGEMODE	TOGGLE	F	I/E AutoRange
IERANGE	IQUANT	9	I/E Range
ACHSELECT	IQUANT	1	Ach Select
ACHRANGE	IQUANT	2	Ach Range
ACHOFFSETENABLE	TOGGLE	F	Ach Offset Enable
ACHOFFSET	QUANT	0	Ach Offset (V)
ACHFILTER	IQUANT	1	Ach Filter
CABLEID	IQUANT	14	Cable ID
DCCALDATE	LABEL	5-7-2017	DC Calibration Date
ACCALDATE	LABEL	12/3/2015	AC Calibration Date
FRAMEWORKVERSION	QUANT	7.01	Framework Version
INSTRUMENTVERSION	LABEL	4.00	Instrument Version
CURVE	TABLE	70
	Pt	T	Vf	Im	Vu	Pwr	Sig	Ach	Temp	IERange	Over
	#	s	V	A	V	W	V	V	deg C	#	bits
	0	0.013333	8.44160E-001	-1.00049E-004	0.00000E+000	-8.44574E-005	-5.99601E-002	8.44471E-001	3.57780E+000	9	...........
	1	0.026667	8.31000E-001	-9.86530E-005	0.00000E+000	-8.19806E-005	-5.99601E-002	8.31307E-001	3.57780E+000	9	...........
	2	0.04	8.18446E-001	-9.87895E-005	0.00000E+000	-8.08539E-005	-5.99601E-002	8.18728E-001	3.57780E+000	9	...........
	3	0.053333	8.06251E-001	-9.84227E-005	0.00000E+000	-7.93534E-005	-5.99601E-002	8.06533E-001	3.57780E+000	9	...........
	4	0.066667	7.94309E-001	-1.00161E-004	0.00000E+000	-7.95584E-005	-5.99601E-002	7.94599E-001	3.57780E+000	9	...........
	5	0.08	7.82579E-001	-9.97615E-005	0.00000E+000	-7.80713E-005	-5.99601E-002	7.82861E-001	3.57780E+000	9	...........
	6	0.093333	7.70991E-001	-9.86811E-005	0.00000E+000	-7.60823E-005	-5.99601E-002	7.71286E-001	3.57780E+000	9	...........
	7	0.106667	7.59553E-001	-9.82529E-005	0.00000E+000	-7.46283E-005	-5.99601E-002	7.59802E-001	3.57780E+000	9	...........
	8	0.12	7.48207E-001	-9.94667E-005	0.00000E+000	-7.44216E-005	-5.99601E-002	7.48469E-001	3.57780E+000	9	...........
	9	0.133333	7.36960E-001	-9.97428E-005	0.00000E+000	-7.35065E-005	-5.99601E-002	7.37229E-001	3.57780E+000	9	...........
	10	0.146667	7.25817E-001	-9.83644E-005	0.00000E+000	-7.13946E-005	-5.99601E-002	7.26070E-001	3.57780E+000	9	...........
	11	0.16	7.14718E-001	-9.87936E-005	0.00000E+000	-7.06096E-005	-5.99601E-002	7.15003E-001	3.57780E+000	9	...........
	12	0.173333	7.03748E-001	-9.87801E-005	0.00000E+000	-6.95163E-005	-5.99601E-002	7.04015E-001	3.57780E+000	9	...........
	13	0.186667	6.92820E-001	-9.88145E-005	0.00000E+000	-6.84606E-005	-5.99601E-002	6.93094E-001	3.57780E+000	9	...........
	14	0.2	6.82006E-001	-9.97678E-005	0.00000E+000	-6.80422E-005	-5.99601E-002	6.82279E-001	3.57780E+000	9	...........
	15	0.213333	6.71256E-001	-9.92166E-005	0.00000E+000	-6.65997E-005	-5.99601E-002	6.71514E-001	3.57780E+000	9	...........
	16	0.226667	6.60508E-001	-9.78101E-005	0.00000E+000	-6.46044E-005	-5.99601E-002	6.60773E-001	3.57780E+000	9	...........
	17	0.24	6.49824E-001	-9.79299E-005	0.00000E+000	-6.36372E-005	-5.99601E-002	6.50064E-001	3.57780E+000	9	...........
	18	0.253333	6.39075E-001	-9.92073E-005	0.00000E+000	-6.34009E-005	-5.99601E-002	6.39302E-001	3.57780E+000	9	...........
	19	0.266667	6.28247E-001	-9.79351E-005	0.00000E+000	-6.15275E-005	-5.99601E-002	6.28483E-001	3.57780E+000	9	...........
	20	0.28	6.17298E-001	-9.89947E-005	0.00000E+000	-6.11093E-005	-5.99601E-002	6.17536E-001	3.57780E+000	9	...........
	21	0.293333	6.06123E-001	-9.91979E-005	0.00000E+000	-6.01261E-005	-5.99601E-002	6.06363E-001	3.57780E+000	9	...........
	22	0.306667	5.94831E-001	-9.91968E-005	0.00000E+000	-5.90054E-005	-5.99601E-002	5.95060E-001	3.57780E+000	9	...........
	23	0.32	5.83279E-001	-9.75538E-005	0.00000E+000	-5.69011E-005	-5.99601E-002	5.83505E-001	3.57780E+000	9	...........
	24	0.333333	5.71544E-001	-9.82664E-005	0.00000E+000	-5.61636E-005	-5.99601E-002	5.71760E-001	3.57780E+000	9	...........
	25	0.346667	5.59557E-001	-9.90010E-005	0.00000E+000	-5.53967E-005	-5.99601E-002	5.59794E-001	3.57780E+000	9	...........
	26	0.36	5.47410E-001	-1.00373E-004	0.00000E+000	-5.49453E-005	-5.99601E-002	5.47647E-001	3.57763E+000	9	...........
	27	0.373333	5.35068E-001	-9.92323E-005	0.00000E+000	-5.30960E-005	-5.99601E-002	5.35299E-001	3.57640E+000	9	...........
	28	0.386667	5.22561E-001	-9.84748E-005	0.00000E+000	-5.14591E-005	-5.99601E-002	5.22790E-001	3.57640E+000	9	...........
	29	0.4	5.09887E-001	-9.91656E-005	0.00000E+000	-5.05633E-005	-5.99601E-002	5.10130E-001	3.57640E+000	9	...........
	30	0.413333	4.97093E-001	-9.94417E-005	0.00000E+000	-4.94317E-005	-5.99601E-002	4.97320E-001	3.57640E+000	9	...........
	31	0.426667	4.84349E-001	-9.87051E-005	0.00000E+000	-4.78077E-005	-5.99601E-002	4.84501E-001	3.57640E+000	9	...........
	32	0.44	4.71486E-001	-9.86269E-005	0.00000E+000	-4.65012E-005	-5.99601E-002	4.71583E-001	3.57640E+000	9	...........
	33	0.453333	4.58376E-001	-9.86519E-005	0.00000E+000	-4.52197E-005	-5.99601E-002	4.58475E-001	3.57640E+000	9	...........
	34	0.466667	4.45191E-001	-9.80768E-005	0.00000E+000	-4.36629E-005	-5.99601E-002	4.45287E-001	3.57640E+000	9	...........
	35	0.48	4.31937E-001	-9.90781E-005	0.00000E+000	-4.27955E-005	-5.99601E-002	4.32034E-001	3.57640E+000	9	...........
	36	0.493333	4.18638E-001	-9.88405E-005	0.00000E+000	-4.13784E-005	-5.99601E-002	4.18731E-001	3.57640E+000	9	...........
	37	0.506667	4.05306E-001	-9.85123E-005	0.00000E+000	-3.99276E-005	-5.99601E-002	4.05392E-001	3.57640E+000	9	...........
	38	0.52	3.91947E-001	-9.90885E-005	0.00000E+000	-3.88375E-005	-5.99601E-002	3.92024E-001	3.57640E+000	9	...........
	39	0.533333	3.78572E-001	-9.93260E-005	0.00000E+000	-3.76021E-005	-5.99601E-002	3.78645E-001	3.57640E+000	9	...........
	40	0.546667	3.65194E-001	-9.88520E-005	0.00000E+000	-3.61001E-005	-5.99601E-002	3.65273E-001	3.57640E+000	9	...........
	41	0.56	3.51824E-001	-9.87051E-005	0.00000E+000	-3.47269E-005	-5.99601E-002	3.51900E-001	3.57640E+000	9	...........
	42	0.573333	3.38481E-001	-9.91645E-005	0.00000E+000	-3.35653E-005	-5.99601E-002	3.38553E-001	3.57640E+000	9	...........
	43	0.586667	3.25170E-001	-1.00013E-004	0.00000E+000	-3.25211E-005	-5.99601E-002	3.25234E-001	3.57640E+000	9	...........
	44	0.6	3.11894E-001	-9.80476E-005	0.00000E+000	-3.05804E-005	-5.99601E-002	3.11961E-001	3.57640E+000	9	...........
	45	0.613333	2.98659E-001	-1.00368E-004	0.00000E+000	-2.99758E-005	-5.99601E-002	2.98719E-001	3.57640E+000	9	...........
	46	0.626667	2.85486E-001	-9.80247E-005	0.00000E+000	-2.79847E-005	-5.99601E-002	2.85538E-001	3.57640E+000	9	...........
	47	0.64	2.72365E-001	-9.84706E-005	0.00000E+000	-2.68200E-005	-5.99601E-002	2.72421E-001	3.57640E+000	9	...........
	48	0.653333	2.59309E-001	-9.82748E-005	0.00000E+000	-2.54835E-005	-5.99601E-002	2.59364E-001	3.57640E+000	9	...........
	49	0.666667	2.46322E-001	-9.86978E-005	0.00000E+000	-2.43114E-005	-5.99601E-002	2.46370E-001	3.57640E+000	9	...........
	50	0.68	2.33405E-001	-9.80435E-005	0.00000E+000	-2.28838E-005	-5.99601E-002	2.33451E-001	3.57640E+000	9	...........
	51	0.693333	2.20560E-001	-9.78486E-005	0.00000E+000	-2.15815E-005	-5.99601E-002	2.20603E-001	3.57640E+000	9	...........
	52	0.706667	2.07789E-001	-9.89530E-005	0.00000E+000	-2.05613E-005	-5.99601E-002	2.07833E-001	3.57640E+000	9	...........
	53	0.72	1.95087E-001	-9.80070E-005	0.00000E+000	-1.91199E-005	-5.99601E-002	1.95131E-001	3.57640E+000	9	...........
	54	0.733333	1.82463E-001	-9.74433E-005	0.00000E+000	-1.77798E-005	-5.99601E-002	1.82494E-001	3.57640E+000	9	...........
	55	0.746667	1.69908E-001	-9.78143E-005	0.00000E+000	-1.66194E-005	-5.99601E-002	1.69942E-001	3.57640E+000	9	...........
	56	0.76	1.57425E-001	-9.86176E-005	0.00000E+000	-1.55248E-005	-5.99601E-002	1.57456E-001	3.57640E+000	9	...........
	57	0.773333	1.45014E-001	-9.93635E-005	0.00000E+000	-1.44091E-005	-5.99601E-002	1.45039E-001	3.57640E+000	9	...........
	58	0.786667	1.32673E-001	-9.83529E-005	0.00000E+000	-1.30487E-005	-5.99601E-002	1.32699E-001	3.57640E+000	9	...........
	59	0.8	1.20411E-001	-9.81268E-005	0.00000E+000	-1.18156E-005	-5.99601E-002	1.20434E-001	3.57640E+000	9	...........
	60	0.813333	1.08236E-001	-9.77455E-005	0.00000E+000	-1.05795E-005	-5.99601E-002	1.08258E-001	3.57640E+000	9	...........
	61	0.826667	9.61504E-002	-9.71370E-005	0.00000E+000	-9.33976E-006	-5.99601E-002	9.61663E-002	3.57640E+000	9	...........
	62	0.84	8.41590E-002	-9.94448E-005	0.00000E+000	-8.36918E-006	-5.99601E-002	8.41784E-002	3.57640E+000	9	...........
	63	0.853333	7.22905E-002	-9.95469E-005	0.00000E+000	-7.19630E-006	-5.99601E-002	7.23002E-002	3.57640E+000	9	...........
	64	0.866667	6.05339E-002	-9.73621E-005	0.00000E+000	-5.89370E-006	-5.99601E-002	6.05430E-002	3.57640E+000	9	...........
	65	0.88	4.89299E-002	-9.92396E-005	0.00000E+000	-4.85578E-006	-5.99601E-002	4.89354E-002	3.57640E+000	9	...........
	66	0.893333	3.74661E-002	-9.95219E-005	0.00000E+000	-3.72870E-006	-5.99601E-002	3.74724E-002	3.57640E+000	9	...........
	67	0.906667	2.61404E-002	-9.98397E-005	0.00000E+000	-2.60985E-006	-5.99601E-002	2.61337E-002	3.57640E+000	9	...........
	68	0.92	1.49681E-002	-9.85530E-005	0.00000E+000	-1.47515E-006	-5.99601E-002	1.49570E-002	3.57640E+000	9	...........
	69	0.933333	3.96726E-003	-9.81456E-005	0.00000E+000	-3.89369E-007	-5.99601E-002	3.94843E-003	3.57640E+000	9	...........
STARTTIMEOFFSET	QUANT	1534.317	Start Time Offset (s)
