EXPLAIN
TAG	PWR800_DISCHARGE
TITLE	LABEL	PWR Cyclic Charge Discharge (Cell) - Discharge Step	Test &Identifier
DATE	LABEL	12-7-2017	Date
TIME	LABEL	16:26:34	Time
NOTES	NOTES	2	&Notes...
	supercap test cell
	6M KOH
PSTAT	PSTAT	IFC5000-01520	Potentiostat
CAPACITY	QUANT	1.00000E-003	Capacity (A-hr)
CELLTYPE	SELECTOR	1	&Cell Type
WORKINGCONNECTION	SELECTOR	0	&Working Lead
MAXDISCHARGETIME	VARIABLEANDUNITS	1.00000E+002	s	1.00000E+002	second(s)	Max &Discharge Time
DISCHARGEMODE	MULTIPARAM	0	1.00000E-004	&Discharge Mode	Constant Current	Amp(s)
SAMPLETIME	QUANT	1.00000E-002	Sa&mple Period (s)
DISCHARGESTOPAT1	MULTIPARAM	3	0.00000E+000	Discharge Stop At &1	Voltage < Limit	V
DISCHARGESTOPAT2	MULTIPARAM	0	0.00000E+000	Discharge Stop At &2	None	N/A
AESBHCSELECTOR	TOGGLE	F	Save Both Half Cells
IRCOMP	TOGGLE	F	IR &Measure
EOC	QUANT	0	Open Circuit (V)
SEQUENCER	TOGGLE	TRUE	Run as Sequence
PSTATMODEL	IQUANT	53	Pstat Model
PSTATSECTION	LABEL	IFC5000-01520	Pstat Section
PSTATSERIALNO	LABEL	01520	Pstat Serial Number
CTRLMODE	IQUANT	0	Control Mode
ELECTROMETER	IQUANT	1	RE=0 or CS=1
IESTAB	IQUANT	0	I/E Stability
CASPEED	IQUANT	4	Control Amp Speed
CONVENTION	IQUANT	1	Current Convention
ICHRANGE	IQUANT	2	Ich Range
ICHRANGEMODE	TOGGLE	T	Ich Auto Range
ICHOFFSETENABLE	TOGGLE	F	Ich Offset Enable
ICHOFFSET	QUANT	0	Ich Offset (V)
ICHFILTER	IQUANT	1	Ich Filter
VCHRANGE	IQUANT	2	Vch Range
VCHRANGEMODE	TOGGLE	T	Vch Auto Range
VCHOFFSETENABLE	TOGGLE	F	Vch Offset Enable
VCHOFFSET	QUANT	0	Vch Offset (V)
VCHFILTER	IQUANT	1	Vch Filter
IERANGELOWERLIMIT	IQUANT	9	I/E Range Lower Limit
IERANGEMODE	TOGGLE	F	I/E AutoRange
IERANGE	IQUANT	9	I/E Range
ACHSELECT	IQUANT	1	Ach Select
ACHRANGE	IQUANT	2	Ach Range
ACHOFFSETENABLE	TOGGLE	F	Ach Offset Enable
ACHOFFSET	QUANT	0	Ach Offset (V)
ACHFILTER	IQUANT	1	Ach Filter
CABLEID	IQUANT	14	Cable ID
DCCALDATE	LABEL	5-7-2017	DC Calibration Date
ACCALDATE	LABEL	12/3/2015	AC Calibration Date
FRAMEWORKVERSION	QUANT	7.01	Framework Version
INSTRUMENTVERSION	LABEL	4.00	Instrument Version
CURVE	TABLE	71
	Pt	T	Vf	Im	Vu	Pwr	Sig	Ach	Temp	IERange	Over
	#	s	V	A	V	W	V	V	deg C	#	bits
	0	0.013333	8.45952E-001	-9.84008E-005	0.00000E+000	-8.32423E-005	-5.99601E-002	8.46288E-001	3.57820E+000	9	...........
	1	0.026667	8.32976E-001	-9.92729E-005	0.00000E+000	-8.26919E-005	-5.99601E-002	8.33292E-001	3.57820E+000	9	...........
	2	0.04	8.20612E-001	-9.81612E-005	0.00000E+000	-8.05523E-005	-5.99601E-002	8.20907E-001	3.57820E+000	9	...........
	3	0.053333	8.08618E-001	-9.73162E-005	0.00000E+000	-7.86916E-005	-5.99601E-002	8.08903E-001	3.57820E+000	9	...........
	4	0.066667	7.96907E-001	-9.86624E-005	0.00000E+000	-7.86247E-005	-5.99601E-002	7.97153E-001	3.57820E+000	9	...........
	5	0.08	7.85357E-001	-9.80747E-005	0.00000E+000	-7.70236E-005	-5.99601E-002	7.85646E-001	3.57820E+000	9	...........
	6	0.093333	7.73996E-001	-9.98032E-005	0.00000E+000	-7.72473E-005	-5.99601E-002	7.74290E-001	3.57820E+000	9	...........
	7	0.106667	7.62768E-001	-9.71527E-005	0.00000E+000	-7.41050E-005	-5.99601E-002	7.63061E-001	3.57820E+000	9	...........
	8	0.12	7.51670E-001	-9.89009E-005	0.00000E+000	-7.43409E-005	-5.99601E-002	7.51945E-001	3.57820E+000	9	...........
	9	0.133333	7.40660E-001	-9.86936E-005	0.00000E+000	-7.30984E-005	-5.99601E-002	7.40938E-001	3.57820E+000	9	...........
	10	0.146667	7.29759E-001	-9.69724E-005	0.00000E+000	-7.07665E-005	-5.99601E-002	7.30035E-001	3.57820E+000	9	...........
	11	0.16	7.18952E-001	-1.00194E-004	0.00000E+000	-7.20346E-005	-5.99601E-002	7.19203E-001	3.57820E+000	9	...........
	12	0.173333	7.08193E-001	-9.95469E-005	0.00000E+000	-7.04984E-005	-5.99601E-002	7.08461E-001	3.57820E+000	9	...........
	13	0.186667	6.97518E-001	-9.87499E-005	0.00000E+000	-6.88798E-005	-5.99601E-002	6.97784E-001	3.57820E+000	9	...........
	14	0.2	6.86847E-001	-9.84561E-005	0.00000E+000	-6.76242E-005	-5.99601E-002	6.87080E-001	3.57820E+000	9	...........
	15	0.213333	6.76181E-001	-9.86811E-005	0.00000E+000	-6.67263E-005	-5.99601E-002	6.76418E-001	3.57820E+000	9	...........
	16	0.226667	6.65470E-001	-9.93542E-005	0.00000E+000	-6.61172E-005	-5.99601E-002	6.65705E-001	3.57820E+000	9	...........
	17	0.24	6.54663E-001	-9.95209E-005	0.00000E+000	-6.51527E-005	-5.99601E-002	6.54883E-001	3.57820E+000	9	...........
	18	0.253333	6.43721E-001	-9.86259E-005	0.00000E+000	-6.34875E-005	-5.99601E-002	6.43933E-001	3.57820E+000	9	...........
	19	0.266667	6.32619E-001	-9.94104E-005	0.00000E+000	-6.28889E-005	-5.99601E-002	6.32838E-001	3.57820E+000	9	...........
	20	0.28	6.21356E-001	-9.80320E-005	0.00000E+000	-6.09128E-005	-5.99601E-002	6.21587E-001	3.57820E+000	9	...........
	21	0.293333	6.09851E-001	-1.00129E-004	0.00000E+000	-6.10639E-005	-5.99601E-002	6.10110E-001	3.57820E+000	9	...........
	22	0.306667	5.98210E-001	-9.85144E-005	0.00000E+000	-5.89323E-005	-5.99601E-002	5.98481E-001	3.57820E+000	9	...........
	23	0.32	5.86399E-001	-9.83738E-005	0.00000E+000	-5.76863E-005	-5.99601E-002	5.86655E-001	3.57820E+000	9	...........
	24	0.333333	5.74426E-001	-9.95500E-005	0.00000E+000	-5.71842E-005	-5.99601E-002	5.74660E-001	3.57820E+000	9	...........
	25	0.346667	5.62314E-001	-9.90666E-005	0.00000E+000	-5.57066E-005	-5.99601E-002	5.62522E-001	3.57820E+000	9	...........
	26	0.36	5.50037E-001	-9.77976E-005	0.00000E+000	-5.37923E-005	-5.99601E-002	5.50272E-001	3.57820E+000	9	...........
	27	0.373333	5.37664E-001	-9.92031E-005	0.00000E+000	-5.33379E-005	-5.99601E-002	5.37886E-001	3.57820E+000	9	...........
	28	0.386667	5.25168E-001	-9.85978E-005	0.00000E+000	-5.17804E-005	-5.99601E-002	5.25402E-001	3.57820E+000	9	...........
	29	0.4	5.12578E-001	-9.82623E-005	0.00000E+000	-5.03671E-005	-5.99601E-002	5.12803E-001	3.57820E+000	9	...........
	30	0.413333	4.99871E-001	-9.77768E-005	0.00000E+000	-4.88758E-005	-5.99601E-002	5.00118E-001	3.57820E+000	9	...........
	31	0.426667	4.87212E-001	-9.90666E-005	0.00000E+000	-4.82664E-005	-5.99601E-002	4.87400E-001	3.57820E+000	9	...........
	32	0.44	4.74634E-001	-9.85332E-005	0.00000E+000	-4.67672E-005	-5.99601E-002	4.74734E-001	3.57820E+000	9	...........
	33	0.453333	4.61757E-001	-9.82466E-005	0.00000E+000	-4.53661E-005	-5.99601E-002	4.61855E-001	3.57820E+000	9	...........
	34	0.466667	4.48833E-001	-9.85717E-005	0.00000E+000	-4.42423E-005	-5.99601E-002	4.48938E-001	3.57820E+000	9	...........
	35	0.48	4.35892E-001	-9.80633E-005	0.00000E+000	-4.27450E-005	-5.99601E-002	4.35985E-001	3.57820E+000	9	...........
	36	0.493333	4.22912E-001	-9.92573E-005	0.00000E+000	-4.19771E-005	-5.99601E-002	4.23007E-001	3.57717E+000	9	...........
	37	0.506667	4.09919E-001	-9.91771E-005	0.00000E+000	-4.06546E-005	-5.99601E-002	4.10005E-001	3.57680E+000	9	...........
	38	0.52	3.96935E-001	-9.84477E-005	0.00000E+000	-3.90774E-005	-5.99601E-002	3.97020E-001	3.57680E+000	9	...........
	39	0.533333	3.83952E-001	-9.89697E-005	0.00000E+000	-3.79996E-005	-5.99601E-002	3.84034E-001	3.57680E+000	9	...........
	40	0.546667	3.70983E-001	-9.78924E-005	0.00000E+000	-3.63164E-005	-5.99601E-002	3.71063E-001	3.57680E+000	9	...........
	41	0.56	3.58035E-001	-9.69776E-005	0.00000E+000	-3.47214E-005	-5.99601E-002	3.58110E-001	3.57680E+000	9	...........
	42	0.573333	3.45112E-001	-9.82800E-005	0.00000E+000	-3.39176E-005	-5.99601E-002	3.45191E-001	3.57680E+000	9	...........
	43	0.586667	3.32234E-001	-9.83269E-005	0.00000E+000	-3.26675E-005	-5.99601E-002	3.32306E-001	3.57680E+000	9	...........
	44	0.6	3.19380E-001	-9.92052E-005	0.00000E+000	-3.16842E-005	-5.99601E-002	3.19455E-001	3.57680E+000	9	...........
	45	0.613333	3.06571E-001	-9.82831E-005	0.00000E+000	-3.01307E-005	-5.99601E-002	3.06642E-001	3.57680E+000	9	...........
	46	0.626667	2.93801E-001	-9.89906E-005	0.00000E+000	-2.90835E-005	-5.99601E-002	2.93871E-001	3.57680E+000	9	...........
	47	0.64	2.81088E-001	-9.85196E-005	0.00000E+000	-2.76927E-005	-5.99601E-002	2.81153E-001	3.57680E+000	9	...........
	48	0.653333	2.68416E-001	-9.78143E-005	0.00000E+000	-2.62549E-005	-5.99601E-002	2.68477E-001	3.57680E+000	9	...........
	49	0.666667	2.55799E-001	-9.84311E-005	0.00000E+000	-2.51785E-005	-5.99601E-002	2.55849E-001	3.57680E+000	9	...........
	50	0.68	2.43221E-001	-9.90593E-005	0.00000E+000	-2.40933E-005	-5.99601E-002	2.43264E-001	3.57680E+000	9	...........
	51	0.693333	2.30685E-001	-9.97584E-005	0.00000E+000	-2.30127E-005	-5.99601E-002	2.30731E-001	3.57680E+000	9	...........
	52	0.706667	2.18194E-001	-9.75507E-005	0.00000E+000	-2.12849E-005	-5.99601E-002	2.18238E-001	3.57680E+000	9	...........
	53	0.72	2.05746E-001	-9.77497E-005	0.00000E+000	-2.01116E-005	-5.99601E-002	2.05782E-001	3.57680E+000	9	...........
	54	0.733333	1.93340E-001	-9.90999E-005	0.00000E+000	-1.91600E-005	-5.99601E-002	1.93378E-001	3.57680E+000	9	...........
	55	0.746667	1.80974E-001	-9.76236E-005	0.00000E+000	-1.76673E-005	-5.99601E-002	1.81008E-001	3.57680E+000	9	...........
	56	0.76	1.68642E-001	-9.86874E-005	0.00000E+000	-1.66428E-005	-5.99601E-002	1.68677E-001	3.57680E+000	9	...........
	57	0.773333	1.56359E-001	-9.93427E-005	0.00000E+000	-1.55332E-005	-5.99601E-002	1.56389E-001	3.57680E+000	9	...........
	58	0.786667	1.44119E-001	-9.78372E-005	0.00000E+000	-1.41002E-005	-5.99601E-002	1.44143E-001	3.57680E+000	9	...........
	59	0.8	1.31932E-001	-9.83592E-005	0.00000E+000	-1.29767E-005	-5.99601E-002	1.31956E-001	3.57680E+000	9	...........
	60	0.813333	1.19802E-001	-9.86749E-005	0.00000E+000	-1.18215E-005	-5.99601E-002	1.19825E-001	3.57680E+000	9	...........
	61	0.826667	1.07738E-001	-9.96636E-005	0.00000E+000	-1.07375E-005	-5.99601E-002	1.07756E-001	3.57680E+000	9	...........
	62	0.84	9.57424E-002	-9.90343E-005	0.00000E+000	-9.48178E-006	-5.99601E-002	9.57627E-002	3.57680E+000	9	...........
	63	0.853333	8.38428E-002	-9.90437E-005	0.00000E+000	-8.30410E-006	-5.99601E-002	8.38543E-002	3.57680E+000	9	...........
	64	0.866667	7.20307E-002	-9.82550E-005	0.00000E+000	-7.07738E-006	-5.99601E-002	7.20419E-002	3.57680E+000	9	...........
	65	0.88	6.03178E-002	-9.94938E-005	0.00000E+000	-6.00125E-006	-5.99601E-002	6.03238E-002	3.57680E+000	9	...........
	66	0.893333	4.87227E-002	-9.86040E-005	0.00000E+000	-4.80425E-006	-5.99601E-002	4.87301E-002	3.57680E+000	9	...........
	67	0.906667	3.72555E-002	-9.82310E-005	0.00000E+000	-3.65964E-006	-5.99601E-002	3.72569E-002	3.57680E+000	9	...........
	68	0.92	2.59011E-002	-9.91791E-005	0.00000E+000	-2.56885E-006	-5.99601E-002	2.58980E-002	3.57680E+000	9	...........
	69	0.933333	1.46945E-002	-9.97355E-005	0.00000E+000	-1.46556E-006	-5.99601E-002	1.46824E-002	3.57680E+000	9	...........
	70	0.946667	3.64946E-003	-9.96824E-005	0.00000E+000	-3.63787E-007	-5.99601E-002	3.62773E-003	3.57680E+000	9	...........
STARTTIMEOFFSET	QUANT	706.008	Start Time Offset (s)
