EXPLAIN
TAG	PWR800_DISCHARGE
TITLE	LABEL	PWR Cyclic Charge Discharge (Cell) - Discharge Step	Test &Identifier
DATE	LABEL	12-7-2017	Date
TIME	LABEL	16:19:55	Time
NOTES	NOTES	2	&Notes...
	supercap test cell
	6M KOH
PSTAT	PSTAT	IFC5000-01520	Potentiostat
CAPACITY	QUANT	1.00000E-003	Capacity (A-hr)
CELLTYPE	SELECTOR	1	&Cell Type
WORKINGCONNECTION	SELECTOR	0	&Working Lead
MAXDISCHARGETIME	VARIABLEANDUNITS	1.00000E+002	s	1.00000E+002	second(s)	Max &Discharge Time
DISCHARGEMODE	MULTIPARAM	0	1.00000E-004	&Discharge Mode	Constant Current	Amp(s)
SAMPLETIME	QUANT	1.00000E-002	Sa&mple Period (s)
DISCHARGESTOPAT1	MULTIPARAM	3	0.00000E+000	Discharge Stop At &1	Voltage < Limit	V
DISCHARGESTOPAT2	MULTIPARAM	0	0.00000E+000	Discharge Stop At &2	None	N/A
AESBHCSELECTOR	TOGGLE	F	Save Both Half Cells
IRCOMP	TOGGLE	F	IR &Measure
EOC	QUANT	0	Open Circuit (V)
SEQUENCER	TOGGLE	TRUE	Run as Sequence
PSTATMODEL	IQUANT	53	Pstat Model
PSTATSECTION	LABEL	IFC5000-01520	Pstat Section
PSTATSERIALNO	LABEL	01520	Pstat Serial Number
CTRLMODE	IQUANT	0	Control Mode
ELECTROMETER	IQUANT	1	RE=0 or CS=1
IESTAB	IQUANT	0	I/E Stability
CASPEED	IQUANT	4	Control Amp Speed
CONVENTION	IQUANT	1	Current Convention
ICHRANGE	IQUANT	2	Ich Range
ICHRANGEMODE	TOGGLE	T	Ich Auto Range
ICHOFFSETENABLE	TOGGLE	F	Ich Offset Enable
ICHOFFSET	QUANT	0	Ich Offset (V)
ICHFILTER	IQUANT	1	Ich Filter
VCHRANGE	IQUANT	2	Vch Range
VCHRANGEMODE	TOGGLE	T	Vch Auto Range
VCHOFFSETENABLE	TOGGLE	F	Vch Offset Enable
VCHOFFSET	QUANT	0	Vch Offset (V)
VCHFILTER	IQUANT	1	Vch Filter
IERANGELOWERLIMIT	IQUANT	9	I/E Range Lower Limit
IERANGEMODE	TOGGLE	F	I/E AutoRange
IERANGE	IQUANT	9	I/E Range
ACHSELECT	IQUANT	1	Ach Select
ACHRANGE	IQUANT	2	Ach Range
ACHOFFSETENABLE	TOGGLE	F	Ach Offset Enable
ACHOFFSET	QUANT	0	Ach Offset (V)
ACHFILTER	IQUANT	1	Ach Filter
CABLEID	IQUANT	14	Cable ID
DCCALDATE	LABEL	5-7-2017	DC Calibration Date
ACCALDATE	LABEL	12/3/2015	AC Calibration Date
FRAMEWORKVERSION	QUANT	7.01	Framework Version
INSTRUMENTVERSION	LABEL	4.00	Instrument Version
CURVE	TABLE	72
	Pt	T	Vf	Im	Vu	Pwr	Sig	Ach	Temp	IERange	Over
	#	s	V	A	V	W	V	V	deg C	#	bits
	0	0.013333	8.44455E-001	-9.90083E-005	0.00000E+000	-8.36080E-005	-5.99601E-002	8.44809E-001	3.57700E+000	9	...........
	1	0.026667	8.31534E-001	-9.91677E-005	0.00000E+000	-8.24613E-005	-5.99601E-002	8.31853E-001	3.57700E+000	9	...........
	2	0.04	8.19189E-001	-9.86894E-005	0.00000E+000	-8.08453E-005	-5.99601E-002	8.19510E-001	3.57700E+000	9	...........
	3	0.053333	8.07230E-001	-9.83977E-005	0.00000E+000	-7.94296E-005	-5.99601E-002	8.07526E-001	3.57700E+000	9	...........
	4	0.066667	7.95558E-001	-9.93448E-005	0.00000E+000	-7.90345E-005	-5.99601E-002	7.95857E-001	3.57700E+000	9	...........
	5	0.08	7.84069E-001	-9.82498E-005	0.00000E+000	-7.70346E-005	-5.99601E-002	7.84366E-001	3.57700E+000	9	...........
	6	0.093333	7.72761E-001	-9.89155E-005	0.00000E+000	-7.64380E-005	-5.99601E-002	7.73052E-001	3.57700E+000	9	...........
	7	0.106667	7.61584E-001	-9.91666E-005	0.00000E+000	-7.55237E-005	-5.99601E-002	7.61867E-001	3.57700E+000	9	...........
	8	0.12	7.50528E-001	-9.87030E-005	0.00000E+000	-7.40793E-005	-5.99601E-002	7.50827E-001	3.57700E+000	9	...........
	9	0.133333	7.39569E-001	-9.93844E-005	0.00000E+000	-7.35016E-005	-5.99601E-002	7.39850E-001	3.57700E+000	9	...........
	10	0.146667	7.28707E-001	-9.89280E-005	0.00000E+000	-7.20896E-005	-5.99601E-002	7.28990E-001	3.57700E+000	9	...........
	11	0.16	7.17877E-001	-9.93354E-005	0.00000E+000	-7.13106E-005	-5.99601E-002	7.18166E-001	3.57700E+000	9	...........
	12	0.173333	7.07069E-001	-9.91177E-005	0.00000E+000	-7.00830E-005	-5.99601E-002	7.07363E-001	3.57700E+000	9	...........
	13	0.186667	6.96270E-001	-9.81247E-005	0.00000E+000	-6.83213E-005	-5.99601E-002	6.96545E-001	3.57700E+000	9	...........
	14	0.2	6.85394E-001	-9.94011E-005	0.00000E+000	-6.81288E-005	-5.99601E-002	6.85687E-001	3.57700E+000	9	...........
	15	0.213333	6.74446E-001	-9.81925E-005	0.00000E+000	-6.62255E-005	-5.99601E-002	6.74714E-001	3.57700E+000	9	...........
	16	0.226667	6.63308E-001	-9.97991E-005	0.00000E+000	-6.61975E-005	-5.99601E-002	6.63590E-001	3.57700E+000	9	...........
	17	0.24	6.52064E-001	-9.79112E-005	0.00000E+000	-6.38443E-005	-5.99601E-002	6.52319E-001	3.57700E+000	9	...........
	18	0.253333	6.40647E-001	-9.82529E-005	0.00000E+000	-6.29454E-005	-5.99601E-002	6.40904E-001	3.57700E+000	9	...........
	19	0.266667	6.29076E-001	-9.84363E-005	0.00000E+000	-6.19239E-005	-5.99601E-002	6.29318E-001	3.57700E+000	9	...........
	20	0.28	6.17363E-001	-9.84696E-005	0.00000E+000	-6.07915E-005	-5.99601E-002	6.17626E-001	3.57700E+000	9	...........
	21	0.293333	6.05474E-001	-9.76246E-005	0.00000E+000	-5.91092E-005	-5.99601E-002	6.05753E-001	3.57700E+000	9	...........
	22	0.306667	5.93535E-001	-9.86082E-005	0.00000E+000	-5.85274E-005	-5.99601E-002	5.93796E-001	3.57700E+000	9	...........
	23	0.32	5.81431E-001	-9.85811E-005	0.00000E+000	-5.73181E-005	-5.99601E-002	5.81686E-001	3.57700E+000	9	...........
	24	0.333333	5.69263E-001	-9.78966E-005	0.00000E+000	-5.57289E-005	-5.99601E-002	5.69511E-001	3.57700E+000	9	...........
	25	0.346667	5.56942E-001	-9.95021E-005	0.00000E+000	-5.54169E-005	-5.99601E-002	5.57196E-001	3.57700E+000	9	...........
	26	0.36	5.44618E-001	-9.82477E-005	0.00000E+000	-5.35074E-005	-5.99601E-002	5.44835E-001	3.57700E+000	9	...........
	27	0.373333	5.32178E-001	-9.86717E-005	0.00000E+000	-5.25109E-005	-5.99601E-002	5.32401E-001	3.57700E+000	9	...........
	28	0.386667	5.19678E-001	-9.82362E-005	0.00000E+000	-5.10513E-005	-5.99601E-002	5.19902E-001	3.57700E+000	9	...........
	29	0.4	5.07143E-001	-9.84571E-005	0.00000E+000	-4.99318E-005	-5.99601E-002	5.07365E-001	3.57700E+000	9	...........
	30	0.413333	4.94608E-001	-9.78570E-005	0.00000E+000	-4.84008E-005	-5.99601E-002	4.94809E-001	3.57700E+000	9	...........
	31	0.426667	4.82197E-001	-9.90958E-005	0.00000E+000	-4.77837E-005	-5.99601E-002	4.82343E-001	3.57700E+000	9	...........
	32	0.44	4.69683E-001	-9.92427E-005	0.00000E+000	-4.66127E-005	-5.99601E-002	4.69785E-001	3.57700E+000	9	...........
	33	0.453333	4.57040E-001	-9.95000E-005	0.00000E+000	-4.54755E-005	-5.99601E-002	4.57138E-001	3.57700E+000	9	...........
	34	0.466667	4.44385E-001	-9.94636E-005	0.00000E+000	-4.42001E-005	-5.99601E-002	4.44480E-001	3.57700E+000	9	...........
	35	0.48	4.31725E-001	-9.84092E-005	0.00000E+000	-4.24857E-005	-5.99601E-002	4.31816E-001	3.57700E+000	9	...........
	36	0.493333	4.19072E-001	-9.83988E-005	0.00000E+000	-4.12361E-005	-5.99601E-002	4.19160E-001	3.57700E+000	9	...........
	37	0.506667	4.06434E-001	-9.86363E-005	0.00000E+000	-4.00891E-005	-5.99601E-002	4.06511E-001	3.57700E+000	9	...........
	38	0.52	3.93800E-001	-9.91114E-005	0.00000E+000	-3.90301E-005	-5.99601E-002	3.93880E-001	3.57700E+000	9	...........
	39	0.533333	3.81191E-001	-9.84425E-005	0.00000E+000	-3.75254E-005	-5.99601E-002	3.81266E-001	3.57700E+000	9	...........
	40	0.546667	3.68602E-001	-9.77413E-005	0.00000E+000	-3.60276E-005	-5.99601E-002	3.68675E-001	3.57700E+000	9	...........
	41	0.56	3.56046E-001	-9.84592E-005	0.00000E+000	-3.50560E-005	-5.99601E-002	3.56119E-001	3.57700E+000	9	...........
	42	0.573333	3.43514E-001	-9.92073E-005	0.00000E+000	-3.40791E-005	-5.99601E-002	3.43582E-001	3.57693E+000	9	...........
	43	0.586667	3.31010E-001	-9.91802E-005	0.00000E+000	-3.28296E-005	-5.99601E-002	3.31074E-001	3.57690E+000	9	...........
	44	0.6	3.18542E-001	-9.83217E-005	0.00000E+000	-3.13196E-005	-5.99601E-002	3.18609E-001	3.57690E+000	9	...........
	45	0.613333	3.06099E-001	-9.95823E-005	0.00000E+000	-3.04821E-005	-5.99601E-002	3.06166E-001	3.57690E+000	9	...........
	46	0.626667	2.93685E-001	-9.80935E-005	0.00000E+000	-2.88086E-005	-5.99601E-002	2.93745E-001	3.57690E+000	9	...........
	47	0.64	2.81298E-001	-9.93365E-005	0.00000E+000	-2.79431E-005	-5.99601E-002	2.81361E-001	3.57690E+000	9	...........
	48	0.653333	2.68936E-001	-9.95980E-005	0.00000E+000	-2.67855E-005	-5.99601E-002	2.68997E-001	3.57690E+000	9	...........
	49	0.666667	2.56598E-001	-9.80914E-005	0.00000E+000	-2.51700E-005	-5.99601E-002	2.56659E-001	3.57690E+000	9	...........
	50	0.68	2.44272E-001	-9.88770E-005	0.00000E+000	-2.41529E-005	-5.99601E-002	2.44324E-001	3.57690E+000	9	...........
	51	0.693333	2.31965E-001	-9.90708E-005	0.00000E+000	-2.29810E-005	-5.99601E-002	2.32015E-001	3.57690E+000	9	...........
	52	0.706667	2.19671E-001	-9.82592E-005	0.00000E+000	-2.15847E-005	-5.99601E-002	2.19717E-001	3.57690E+000	9	...........
	53	0.72	2.07395E-001	-9.86582E-005	0.00000E+000	-2.04612E-005	-5.99601E-002	2.07442E-001	3.57690E+000	9	...........
	54	0.733333	1.95130E-001	-9.86426E-005	0.00000E+000	-1.92481E-005	-5.99601E-002	1.95175E-001	3.57690E+000	9	...........
	55	0.746667	1.82891E-001	-9.85550E-005	0.00000E+000	-1.80248E-005	-5.99601E-002	1.82929E-001	3.57690E+000	9	...........
	56	0.76	1.70680E-001	-9.80977E-005	0.00000E+000	-1.67433E-005	-5.99601E-002	1.70711E-001	3.57690E+000	9	...........
	57	0.773333	1.58499E-001	-9.72423E-005	0.00000E+000	-1.54128E-005	-5.99601E-002	1.58526E-001	3.57690E+000	9	...........
	58	0.786667	1.46349E-001	-9.87530E-005	0.00000E+000	-1.44524E-005	-5.99601E-002	1.46375E-001	3.57690E+000	9	...........
	59	0.8	1.34238E-001	-9.76121E-005	0.00000E+000	-1.31033E-005	-5.99601E-002	1.34263E-001	3.57690E+000	9	...........
	60	0.813333	1.22173E-001	-9.90687E-005	0.00000E+000	-1.21035E-005	-5.99601E-002	1.22196E-001	3.57690E+000	9	...........
	61	0.826667	1.10165E-001	-9.86103E-005	0.00000E+000	-1.08634E-005	-5.99601E-002	1.10181E-001	3.57690E+000	9	...........
	62	0.84	9.82036E-002	-9.96917E-005	0.00000E+000	-9.79009E-006	-5.99601E-002	9.82176E-002	3.57690E+000	9	...........
	63	0.853333	8.63181E-002	-9.86884E-005	0.00000E+000	-8.51860E-006	-5.99601E-002	8.63312E-002	3.57690E+000	9	...........
	64	0.866667	7.45139E-002	-9.75528E-005	0.00000E+000	-7.26904E-006	-5.99601E-002	7.45164E-002	3.57690E+000	9	...........
	65	0.88	6.27924E-002	-9.90072E-005	0.00000E+000	-6.21690E-006	-5.99601E-002	6.27913E-002	3.57690E+000	9	...........
	66	0.893333	5.11745E-002	-9.94365E-005	0.00000E+000	-5.08862E-006	-5.99601E-002	5.11762E-002	3.57690E+000	9	...........
	67	0.906667	3.96943E-002	-9.80789E-005	0.00000E+000	-3.89317E-006	-5.99601E-002	3.96962E-002	3.57690E+000	9	...........
	68	0.92	2.83036E-002	-9.87863E-005	0.00000E+000	-2.79601E-006	-5.99601E-002	2.82983E-002	3.57690E+000	9	...........
	69	0.933333	1.70490E-002	-9.85675E-005	0.00000E+000	-1.68048E-006	-5.99601E-002	1.70378E-002	3.57690E+000	9	...........
	70	0.946667	5.94179E-003	-9.79164E-005	0.00000E+000	-5.81798E-007	-5.99601E-002	5.92589E-003	3.57690E+000	9	...........
	71	0.948333	-2.43102E-004	-9.98188E-005	0.00000E+000	2.42662E-008	-5.99601E-002	-2.75196E-004	3.57690E+000	9	...........
STARTTIMEOFFSET	QUANT	421.5968	Start Time Offset (s)
