EXPLAIN
TAG	PWR800_DISCHARGE
TITLE	LABEL	PWR Cyclic Charge Discharge (Cell) - Discharge Step	Test &Identifier
DATE	LABEL	12-7-2017	Date
TIME	LABEL	16:12:30	Time
NOTES	NOTES	2	&Notes...
	supercap test cell
	6M KOH
PSTAT	PSTAT	IFC5000-01520	Potentiostat
CAPACITY	QUANT	1.00000E-003	Capacity (A-hr)
CELLTYPE	SELECTOR	1	&Cell Type
WORKINGCONNECTION	SELECTOR	0	&Working Lead
MAXDISCHARGETIME	VARIABLEANDUNITS	1.00000E+002	s	1.00000E+002	second(s)	Max &Discharge Time
DISCHARGEMODE	MULTIPARAM	0	1.00000E-004	&Discharge Mode	Constant Current	Amp(s)
SAMPLETIME	QUANT	1.00000E-002	Sa&mple Period (s)
DISCHARGESTOPAT1	MULTIPARAM	3	0.00000E+000	Discharge Stop At &1	Voltage < Limit	V
DISCHARGESTOPAT2	MULTIPARAM	0	0.00000E+000	Discharge Stop At &2	None	N/A
AESBHCSELECTOR	TOGGLE	F	Save Both Half Cells
IRCOMP	TOGGLE	F	IR &Measure
EOC	QUANT	0	Open Circuit (V)
SEQUENCER	TOGGLE	TRUE	Run as Sequence
PSTATMODEL	IQUANT	53	Pstat Model
PSTATSECTION	LABEL	IFC5000-01520	Pstat Section
PSTATSERIALNO	LABEL	01520	Pstat Serial Number
CTRLMODE	IQUANT	0	Control Mode
ELECTROMETER	IQUANT	1	RE=0 or CS=1
IESTAB	IQUANT	0	I/E Stability
CASPEED	IQUANT	4	Control Amp Speed
CONVENTION	IQUANT	1	Current Convention
ICHRANGE	IQUANT	2	Ich Range
ICHRANGEMODE	TOGGLE	T	Ich Auto Range
ICHOFFSETENABLE	TOGGLE	F	Ich Offset Enable
ICHOFFSET	QUANT	0	Ich Offset (V)
ICHFILTER	IQUANT	1	Ich Filter
VCHRANGE	IQUANT	2	Vch Range
VCHRANGEMODE	TOGGLE	T	Vch Auto Range
VCHOFFSETENABLE	TOGGLE	F	Vch Offset Enable
VCHOFFSET	QUANT	0	Vch Offset (V)
VCHFILTER	IQUANT	1	Vch Filter
IERANGELOWERLIMIT	IQUANT	9	I/E Range Lower Limit
IERANGEMODE	TOGGLE	F	I/E AutoRange
IERANGE	IQUANT	9	I/E Range
ACHSELECT	IQUANT	1	Ach Select
ACHRANGE	IQUANT	2	Ach Range
ACHOFFSETENABLE	TOGGLE	F	Ach Offset Enable
ACHOFFSET	QUANT	0	Ach Offset (V)
ACHFILTER	IQUANT	1	Ach Filter
CABLEID	IQUANT	14	Cable ID
DCCALDATE	LABEL	5-7-2017	DC Calibration Date
ACCALDATE	LABEL	12/3/2015	AC Calibration Date
FRAMEWORKVERSION	QUANT	7.01	Framework Version
INSTRUMENTVERSION	LABEL	4.00	Instrument Version
CURVE	TABLE	73
	Pt	T	Vf	Im	Vu	Pwr	Sig	Ach	Temp	IERange	Over
	#	s	V	A	V	W	V	V	deg C	#	bits
	0	0.013333	8.39288E-001	-9.92229E-005	0.00000E+000	-8.32766E-005	-5.99601E-002	8.39599E-001	3.57860E+000	9	...........
	1	0.026667	8.26232E-001	-9.84602E-005	0.00000E+000	-8.13510E-005	-5.99601E-002	8.26526E-001	3.57860E+000	9	...........
	2	0.04	8.13673E-001	-9.85957E-005	0.00000E+000	-8.02247E-005	-5.99601E-002	8.13955E-001	3.57860E+000	9	...........
	3	0.053333	8.01479E-001	-9.94917E-005	0.00000E+000	-7.97405E-005	-5.99601E-002	8.01756E-001	3.57860E+000	9	...........
	4	0.066667	7.89497E-001	-9.82706E-005	0.00000E+000	-7.75844E-005	-5.99601E-002	7.89804E-001	3.57860E+000	9	...........
	5	0.08	7.77719E-001	-9.98470E-005	0.00000E+000	-7.76529E-005	-5.99601E-002	7.77996E-001	3.57860E+000	9	...........
	6	0.093333	7.66030E-001	-9.93240E-005	0.00000E+000	-7.60851E-005	-5.99601E-002	7.66297E-001	3.57815E+000	9	...........
	7	0.106667	7.54403E-001	-9.85936E-005	0.00000E+000	-7.43793E-005	-5.99601E-002	7.54653E-001	3.57720E+000	9	...........
	8	0.12	7.42761E-001	-9.81664E-005	0.00000E+000	-7.29142E-005	-5.99601E-002	7.43025E-001	3.57720E+000	9	...........
	9	0.133333	7.31093E-001	-9.84384E-005	0.00000E+000	-7.19676E-005	-5.99601E-002	7.31350E-001	3.57720E+000	9	...........
	10	0.146667	7.19381E-001	-9.91187E-005	0.00000E+000	-7.13041E-005	-5.99601E-002	7.19653E-001	3.57720E+000	9	...........
	11	0.16	7.07607E-001	-9.92896E-005	0.00000E+000	-7.02580E-005	-5.99601E-002	7.07869E-001	3.57720E+000	9	...........
	12	0.173333	6.95817E-001	-9.89760E-005	0.00000E+000	-6.88692E-005	-5.99601E-002	6.96080E-001	3.57720E+000	9	...........
	13	0.186667	6.83973E-001	-9.91989E-005	0.00000E+000	-6.78494E-005	-5.99601E-002	6.84224E-001	3.57720E+000	9	...........
	14	0.2	6.72082E-001	-9.80518E-005	0.00000E+000	-6.58989E-005	-5.99601E-002	6.72335E-001	3.57720E+000	9	...........
	15	0.213333	6.60142E-001	-9.89332E-005	0.00000E+000	-6.53100E-005	-5.99601E-002	6.60393E-001	3.57720E+000	9	...........
	16	0.226667	6.48196E-001	-9.86540E-005	0.00000E+000	-6.39471E-005	-5.99601E-002	6.48434E-001	3.57720E+000	9	...........
	17	0.24	6.36203E-001	-9.88655E-005	0.00000E+000	-6.28985E-005	-5.99601E-002	6.36437E-001	3.57720E+000	9	...........
	18	0.253333	6.24223E-001	-9.89916E-005	0.00000E+000	-6.17929E-005	-5.99601E-002	6.24457E-001	3.57720E+000	9	...........
	19	0.266667	6.12210E-001	-9.93625E-005	0.00000E+000	-6.08307E-005	-5.99601E-002	6.12473E-001	3.57720E+000	9	...........
	20	0.28	6.00211E-001	-9.87374E-005	0.00000E+000	-5.92632E-005	-5.99601E-002	6.00495E-001	3.57720E+000	9	...........
	21	0.293333	5.88230E-001	-9.86488E-005	0.00000E+000	-5.80282E-005	-5.99601E-002	5.88517E-001	3.57720E+000	9	...........
	22	0.306667	5.76289E-001	-9.85853E-005	0.00000E+000	-5.68136E-005	-5.99601E-002	5.76546E-001	3.57720E+000	9	...........
	23	0.32	5.64332E-001	-9.88499E-005	0.00000E+000	-5.57842E-005	-5.99601E-002	5.64606E-001	3.57720E+000	9	...........
	24	0.333333	5.52417E-001	-9.86353E-005	0.00000E+000	-5.44878E-005	-5.99601E-002	5.52677E-001	3.57720E+000	9	...........
	25	0.346667	5.40539E-001	-9.91541E-005	0.00000E+000	-5.35966E-005	-5.99601E-002	5.40781E-001	3.57720E+000	9	...........
	26	0.36	5.28697E-001	-9.82425E-005	0.00000E+000	-5.19405E-005	-5.99601E-002	5.28927E-001	3.57720E+000	9	...........
	27	0.373333	5.16872E-001	-9.90051E-005	0.00000E+000	-5.11730E-005	-5.99601E-002	5.17116E-001	3.57720E+000	9	...........
	28	0.386667	5.05048E-001	-9.85707E-005	0.00000E+000	-4.97829E-005	-5.99601E-002	5.05311E-001	3.57720E+000	9	...........
	29	0.4	4.93335E-001	-9.87468E-005	0.00000E+000	-4.87152E-005	-5.99601E-002	4.93605E-001	3.57720E+000	9	...........
	30	0.413333	4.81894E-001	-9.80779E-005	0.00000E+000	-4.72631E-005	-5.99601E-002	4.82015E-001	3.57720E+000	9	...........
	31	0.426667	4.70317E-001	-9.89885E-005	0.00000E+000	-4.65559E-005	-5.99601E-002	4.70422E-001	3.57720E+000	9	...........
	32	0.44	4.58694E-001	-9.90541E-005	0.00000E+000	-4.54355E-005	-5.99601E-002	4.58791E-001	3.57720E+000	9	...........
	33	0.453333	4.47101E-001	-9.91687E-005	0.00000E+000	-4.43384E-005	-5.99601E-002	4.47199E-001	3.57720E+000	9	...........
	34	0.466667	4.35543E-001	-9.88489E-005	0.00000E+000	-4.30529E-005	-5.99601E-002	4.35633E-001	3.57720E+000	9	...........
	35	0.48	4.24004E-001	-9.87405E-005	0.00000E+000	-4.18663E-005	-5.99601E-002	4.24092E-001	3.57720E+000	9	...........
	36	0.493333	4.12483E-001	-9.91760E-005	0.00000E+000	-4.09084E-005	-5.99601E-002	4.12577E-001	3.57720E+000	9	...........
	37	0.506667	4.00997E-001	-9.88291E-005	0.00000E+000	-3.96301E-005	-5.99601E-002	4.01078E-001	3.57720E+000	9	...........
	38	0.52	3.89515E-001	-9.92375E-005	0.00000E+000	-3.86545E-005	-5.99601E-002	3.89588E-001	3.57720E+000	9	...........
	39	0.533333	3.78037E-001	-9.90291E-005	0.00000E+000	-3.74367E-005	-5.99601E-002	3.78115E-001	3.57720E+000	9	...........
	40	0.546667	3.66556E-001	-9.87197E-005	0.00000E+000	-3.61863E-005	-5.99601E-002	3.66635E-001	3.57720E+000	9	...........
	41	0.56	3.55071E-001	-9.90708E-005	0.00000E+000	-3.51772E-005	-5.99601E-002	3.55141E-001	3.57720E+000	9	...........
	42	0.573333	3.43572E-001	-9.80299E-005	0.00000E+000	-3.36803E-005	-5.99601E-002	3.43640E-001	3.57720E+000	9	...........
	43	0.586667	3.32054E-001	-9.89426E-005	0.00000E+000	-3.28543E-005	-5.99601E-002	3.32118E-001	3.57720E+000	9	...........
	44	0.6	3.20520E-001	-9.82394E-005	0.00000E+000	-3.14877E-005	-5.99601E-002	3.20584E-001	3.57720E+000	9	...........
	45	0.613333	3.08954E-001	-9.91229E-005	0.00000E+000	-3.06244E-005	-5.99601E-002	3.09017E-001	3.57720E+000	9	...........
	46	0.626667	2.97370E-001	-9.87811E-005	0.00000E+000	-2.93746E-005	-5.99601E-002	2.97434E-001	3.57720E+000	9	...........
	47	0.64	2.85772E-001	-9.82769E-005	0.00000E+000	-2.80847E-005	-5.99601E-002	2.85831E-001	3.57720E+000	9	...........
	48	0.653333	2.74154E-001	-9.74298E-005	0.00000E+000	-2.67108E-005	-5.99601E-002	2.74215E-001	3.57720E+000	9	...........
	49	0.666667	2.62516E-001	-9.85498E-005	0.00000E+000	-2.58709E-005	-5.99601E-002	2.62573E-001	3.57720E+000	9	...........
	50	0.68	2.50864E-001	-9.93969E-005	0.00000E+000	-2.49351E-005	-5.99601E-002	2.50918E-001	3.57720E+000	9	...........
	51	0.693333	2.39200E-001	-9.90645E-005	0.00000E+000	-2.36962E-005	-5.99601E-002	2.39247E-001	3.57720E+000	9	...........
	52	0.706667	2.27517E-001	-9.83123E-005	0.00000E+000	-2.23677E-005	-5.99601E-002	2.27558E-001	3.57720E+000	9	...........
	53	0.72	2.15821E-001	-9.94979E-005	0.00000E+000	-2.14738E-005	-5.99601E-002	2.15861E-001	3.57720E+000	9	...........
	54	0.733333	2.04117E-001	-9.76851E-005	0.00000E+000	-1.99392E-005	-5.99601E-002	2.04161E-001	3.57720E+000	9	...........
	55	0.746667	1.92412E-001	-9.86436E-005	0.00000E+000	-1.89802E-005	-5.99601E-002	1.92446E-001	3.57720E+000	9	...........
	56	0.76	1.80700E-001	-9.80018E-005	0.00000E+000	-1.77090E-005	-5.99601E-002	1.80744E-001	3.57720E+000	9	...........
	57	0.773333	1.68996E-001	-9.89280E-005	0.00000E+000	-1.67184E-005	-5.99601E-002	1.69034E-001	3.57720E+000	9	...........
	58	0.786667	1.57308E-001	-9.83581E-005	0.00000E+000	-1.54725E-005	-5.99601E-002	1.57341E-001	3.57720E+000	9	...........
	59	0.8	1.45636E-001	-9.88061E-005	0.00000E+000	-1.43897E-005	-5.99601E-002	1.45662E-001	3.57720E+000	9	...........
	60	0.813333	1.33977E-001	-9.91302E-005	0.00000E+000	-1.32812E-005	-5.99601E-002	1.33997E-001	3.57720E+000	9	...........
	61	0.826667	1.22361E-001	-9.86571E-005	0.00000E+000	-1.20718E-005	-5.99601E-002	1.22387E-001	3.57720E+000	9	...........
	62	0.84	1.10801E-001	-9.85717E-005	0.00000E+000	-1.09219E-005	-5.99601E-002	1.10825E-001	3.57720E+000	9	...........
	63	0.853333	9.92799E-002	-9.83237E-005	0.00000E+000	-9.76157E-006	-5.99601E-002	9.92959E-002	3.57720E+000	9	...........
	64	0.866667	8.78288E-002	-9.95625E-005	0.00000E+000	-8.74446E-006	-5.99601E-002	8.78455E-002	3.57720E+000	9	...........
	65	0.88	7.64637E-002	-9.82060E-005	0.00000E+000	-7.50920E-006	-5.99601E-002	7.64733E-002	3.57720E+000	9	...........
	66	0.893333	6.51830E-002	-9.80028E-005	0.00000E+000	-6.38812E-006	-5.99601E-002	6.51899E-002	3.57720E+000	9	...........
	67	0.906667	5.39972E-002	-9.89864E-005	0.00000E+000	-5.34499E-006	-5.99601E-002	5.39963E-002	3.57720E+000	9	...........
	68	0.92	4.29472E-002	-9.88759E-005	0.00000E+000	-4.24644E-006	-5.99601E-002	4.29485E-002	3.57720E+000	9	...........
	69	0.933333	3.19992E-002	-9.93729E-005	0.00000E+000	-3.17986E-006	-5.99601E-002	3.19944E-002	3.57720E+000	9	...........
	70	0.946667	2.11798E-002	-9.85707E-005	0.00000E+000	-2.08771E-006	-5.99601E-002	2.11727E-002	3.57720E+000	9	...........
	71	0.96	1.05041E-002	-9.85113E-005	0.00000E+000	-1.03477E-006	-5.99601E-002	1.04867E-002	3.57720E+000	9	...........
	72	0.96833	1.93171E-003	-9.89587E-005	0.00000E+000	-1.91160E-007	-5.99601E-002	1.91060E-003	3.57720E+000	9	...........
STARTTIMEOFFSET	QUANT	103.4917	Start Time Offset (s)
