EXPLAIN
TAG	PWR800_DISCHARGE
TITLE	LABEL	PWR Cyclic Charge Discharge (Cell) - Discharge Step	Test &Identifier
DATE	LABEL	12-7-2017	Date
TIME	LABEL	16:53:37	Time
NOTES	NOTES	2	&Notes...
	supercap test cell
	6M KOH
PSTAT	PSTAT	IFC5000-01520	Potentiostat
CAPACITY	QUANT	1.00000E-003	Capacity (A-hr)
CELLTYPE	SELECTOR	1	&Cell Type
WORKINGCONNECTION	SELECTOR	0	&Working Lead
MAXDISCHARGETIME	VARIABLEANDUNITS	1.00000E+002	s	1.00000E+002	second(s)	Max &Discharge Time
DISCHARGEMODE	MULTIPARAM	0	1.00000E-004	&Discharge Mode	Constant Current	Amp(s)
SAMPLETIME	QUANT	1.00000E-002	Sa&mple Period (s)
DISCHARGESTOPAT1	MULTIPARAM	3	0.00000E+000	Discharge Stop At &1	Voltage < Limit	V
DISCHARGESTOPAT2	MULTIPARAM	0	0.00000E+000	Discharge Stop At &2	None	N/A
AESBHCSELECTOR	TOGGLE	F	Save Both Half Cells
IRCOMP	TOGGLE	F	IR &Measure
EOC	QUANT	0	Open Circuit (V)
SEQUENCER	TOGGLE	TRUE	Run as Sequence
PSTATMODEL	IQUANT	53	Pstat Model
PSTATSECTION	LABEL	IFC5000-01520	Pstat Section
PSTATSERIALNO	LABEL	01520	Pstat Serial Number
CTRLMODE	IQUANT	0	Control Mode
ELECTROMETER	IQUANT	1	RE=0 or CS=1
IESTAB	IQUANT	0	I/E Stability
CASPEED	IQUANT	4	Control Amp Speed
CONVENTION	IQUANT	1	Current Convention
ICHRANGE	IQUANT	2	Ich Range
ICHRANGEMODE	TOGGLE	T	Ich Auto Range
ICHOFFSETENABLE	TOGGLE	F	Ich Offset Enable
ICHOFFSET	QUANT	0	Ich Offset (V)
ICHFILTER	IQUANT	1	Ich Filter
VCHRANGE	IQUANT	2	Vch Range
VCHRANGEMODE	TOGGLE	T	Vch Auto Range
VCHOFFSETENABLE	TOGGLE	F	Vch Offset Enable
VCHOFFSET	QUANT	0	Vch Offset (V)
VCHFILTER	IQUANT	1	Vch Filter
IERANGELOWERLIMIT	IQUANT	9	I/E Range Lower Limit
IERANGEMODE	TOGGLE	F	I/E AutoRange
IERANGE	IQUANT	9	I/E Range
ACHSELECT	IQUANT	1	Ach Select
ACHRANGE	IQUANT	2	Ach Range
ACHOFFSETENABLE	TOGGLE	F	Ach Offset Enable
ACHOFFSET	QUANT	0	Ach Offset (V)
ACHFILTER	IQUANT	1	Ach Filter
CABLEID	IQUANT	14	Cable ID
DCCALDATE	LABEL	5-7-2017	DC Calibration Date
ACCALDATE	LABEL	12/3/2015	AC Calibration Date
FRAMEWORKVERSION	QUANT	7.01	Framework Version
INSTRUMENTVERSION	LABEL	4.00	Instrument Version
CURVE	TABLE	70
	Pt	T	Vf	Im	Vu	Pwr	Sig	Ach	Temp	IERange	Over
	#	s	V	A	V	W	V	V	deg C	#	bits
	0	0.013333	8.45115E-001	-9.74892E-005	0.00000E+000	-8.23896E-005	-5.99601E-002	8.45402E-001	3.57840E+000	9	...........
	1	0.026667	8.31874E-001	-9.85978E-005	0.00000E+000	-8.20209E-005	-5.99601E-002	8.32143E-001	3.57840E+000	9	...........
	2	0.04	8.19248E-001	-9.84061E-005	0.00000E+000	-8.06190E-005	-5.99601E-002	8.19512E-001	3.57840E+000	9	...........
	3	0.053333	8.06988E-001	-9.91427E-005	0.00000E+000	-8.00070E-005	-5.99601E-002	8.07226E-001	3.57840E+000	9	...........
	4	0.066667	7.94980E-001	-9.81247E-005	0.00000E+000	-7.80072E-005	-5.99601E-002	7.95216E-001	3.57840E+000	9	...........
	5	0.08	7.83165E-001	-9.81362E-005	0.00000E+000	-7.68568E-005	-5.99601E-002	7.83406E-001	3.57840E+000	9	...........
	6	0.093333	7.71503E-001	-9.91541E-005	0.00000E+000	-7.64977E-005	-5.99601E-002	7.71732E-001	3.57840E+000	9	...........
	7	0.106667	7.59940E-001	-9.92031E-005	0.00000E+000	-7.53884E-005	-5.99601E-002	7.60196E-001	3.57840E+000	9	...........
	8	0.12	7.48513E-001	-9.98491E-005	0.00000E+000	-7.47383E-005	-5.99601E-002	7.48743E-001	3.57840E+000	9	...........
	9	0.133333	7.37140E-001	-9.77528E-005	0.00000E+000	-7.20575E-005	-5.99601E-002	7.37393E-001	3.57840E+000	9	...........
	10	0.146667	7.25921E-001	-9.90937E-005	0.00000E+000	-7.19342E-005	-5.99601E-002	7.26136E-001	3.57840E+000	9	...........
	11	0.16	7.14708E-001	-9.88561E-005	0.00000E+000	-7.06533E-005	-5.99601E-002	7.14954E-001	3.57840E+000	9	...........
	12	0.173333	7.03640E-001	-9.87895E-005	0.00000E+000	-6.95122E-005	-5.99601E-002	7.03852E-001	3.57840E+000	9	...........
	13	0.186667	6.92626E-001	-9.74163E-005	0.00000E+000	-6.74731E-005	-5.99601E-002	6.92843E-001	3.57840E+000	9	...........
	14	0.2	6.81687E-001	-9.86655E-005	0.00000E+000	-6.72590E-005	-5.99601E-002	6.81899E-001	3.57840E+000	9	...........
	15	0.213333	6.70821E-001	-9.89551E-005	0.00000E+000	-6.63811E-005	-5.99601E-002	6.71047E-001	3.57840E+000	9	...........
	16	0.226667	6.59998E-001	-9.84790E-005	0.00000E+000	-6.49959E-005	-5.99601E-002	6.60229E-001	3.57840E+000	9	...........
	17	0.24	6.49225E-001	-9.77299E-005	0.00000E+000	-6.34487E-005	-5.99601E-002	6.49463E-001	3.57761E+000	9	...........
	18	0.253333	6.38417E-001	-9.87436E-005	0.00000E+000	-6.30396E-005	-5.99601E-002	6.38666E-001	3.57630E+000	9	...........
	19	0.266667	6.27537E-001	-9.78091E-005	0.00000E+000	-6.13788E-005	-5.99601E-002	6.27781E-001	3.57630E+000	9	...........
	20	0.28	6.16523E-001	-9.92437E-005	0.00000E+000	-6.11860E-005	-5.99601E-002	6.16779E-001	3.57630E+000	9	...........
	21	0.293333	6.05345E-001	-9.93177E-005	0.00000E+000	-6.01215E-005	-5.99601E-002	6.05612E-001	3.57630E+000	9	...........
	22	0.306667	5.94017E-001	-9.86196E-005	0.00000E+000	-5.85818E-005	-5.99601E-002	5.94243E-001	3.57630E+000	9	...........
	23	0.32	5.82413E-001	-9.79716E-005	0.00000E+000	-5.70599E-005	-5.99601E-002	5.82678E-001	3.57630E+000	9	...........
	24	0.333333	5.70649E-001	-9.82612E-005	0.00000E+000	-5.60726E-005	-5.99601E-002	5.70886E-001	3.57630E+000	9	...........
	25	0.346667	5.58624E-001	-9.89874E-005	0.00000E+000	-5.52968E-005	-5.99601E-002	5.58860E-001	3.57630E+000	9	...........
	26	0.36	5.46426E-001	-9.90541E-005	0.00000E+000	-5.41257E-005	-5.99601E-002	5.46639E-001	3.57630E+000	9	...........
	27	0.373333	5.34014E-001	-9.84779E-005	0.00000E+000	-5.25886E-005	-5.99601E-002	5.34237E-001	3.57630E+000	9	...........
	28	0.386667	5.21465E-001	-9.99147E-005	0.00000E+000	-5.21021E-005	-5.99601E-002	5.21667E-001	3.57630E+000	9	...........
	29	0.4	5.08717E-001	-9.87624E-005	0.00000E+000	-5.02421E-005	-5.99601E-002	5.08950E-001	3.57630E+000	9	...........
	30	0.413333	4.95871E-001	-9.75350E-005	0.00000E+000	-4.83648E-005	-5.99601E-002	4.96064E-001	3.57630E+000	9	...........
	31	0.426667	4.83077E-001	-9.86467E-005	0.00000E+000	-4.76540E-005	-5.99601E-002	4.83180E-001	3.57630E+000	9	...........
	32	0.44	4.70069E-001	-9.94240E-005	0.00000E+000	-4.67362E-005	-5.99601E-002	4.70167E-001	3.57630E+000	9	...........
	33	0.453333	4.56875E-001	-9.75277E-005	0.00000E+000	-4.45579E-005	-5.99601E-002	4.56965E-001	3.57630E+000	9	...........
	34	0.466667	4.43598E-001	-9.87040E-005	0.00000E+000	-4.37849E-005	-5.99601E-002	4.43689E-001	3.57630E+000	9	...........
	35	0.48	4.30250E-001	-9.81445E-005	0.00000E+000	-4.22267E-005	-5.99601E-002	4.30339E-001	3.57630E+000	9	...........
	36	0.493333	4.16849E-001	-9.93573E-005	0.00000E+000	-4.14170E-005	-5.99601E-002	4.16933E-001	3.57630E+000	9	...........
	37	0.506667	4.03414E-001	-9.81998E-005	0.00000E+000	-3.96152E-005	-5.99601E-002	4.03490E-001	3.57630E+000	9	...........
	38	0.52	3.89952E-001	-9.93927E-005	0.00000E+000	-3.87583E-005	-5.99601E-002	3.90027E-001	3.57630E+000	9	...........
	39	0.533333	3.76473E-001	-9.84873E-005	0.00000E+000	-3.70778E-005	-5.99601E-002	3.76543E-001	3.57630E+000	9	...........
	40	0.546667	3.62992E-001	-9.86801E-005	0.00000E+000	-3.58201E-005	-5.99601E-002	3.63060E-001	3.57630E+000	9	...........
	41	0.56	3.49513E-001	-9.89583E-005	0.00000E+000	-3.45872E-005	-5.99601E-002	3.49577E-001	3.57630E+000	9	...........
	42	0.573333	3.36058E-001	-9.85509E-005	0.00000E+000	-3.31188E-005	-5.99601E-002	3.36126E-001	3.57630E+000	9	...........
	43	0.586667	3.22634E-001	-9.76819E-005	0.00000E+000	-3.15155E-005	-5.99601E-002	3.22700E-001	3.57630E+000	9	...........
	44	0.6	3.09248E-001	-9.92354E-005	0.00000E+000	-3.06883E-005	-5.99601E-002	3.09306E-001	3.57630E+000	9	...........
	45	0.613333	2.95905E-001	-9.89874E-005	0.00000E+000	-2.92909E-005	-5.99601E-002	2.95963E-001	3.57630E+000	9	...........
	46	0.626667	2.82621E-001	-9.88801E-005	0.00000E+000	-2.79456E-005	-5.99601E-002	2.82679E-001	3.57630E+000	9	...........
	47	0.64	2.69398E-001	-1.00074E-004	0.00000E+000	-2.69597E-005	-5.99601E-002	2.69454E-001	3.57630E+000	9	...........
	48	0.653333	2.56230E-001	-9.82477E-005	0.00000E+000	-2.51740E-005	-5.99601E-002	2.56288E-001	3.57630E+000	9	...........
	49	0.666667	2.43140E-001	-9.81591E-005	0.00000E+000	-2.38664E-005	-5.99601E-002	2.43186E-001	3.57630E+000	9	...........
	50	0.68	2.30120E-001	-9.91093E-005	0.00000E+000	-2.28070E-005	-5.99601E-002	2.30160E-001	3.57630E+000	9	...........
	51	0.693333	2.17184E-001	-9.76653E-005	0.00000E+000	-2.12113E-005	-5.99601E-002	2.17219E-001	3.57630E+000	9	...........
	52	0.706667	2.04315E-001	-9.95104E-005	0.00000E+000	-2.03315E-005	-5.99601E-002	2.04355E-001	3.57630E+000	9	...........
	53	0.72	1.91540E-001	-9.91354E-005	0.00000E+000	-1.89884E-005	-5.99601E-002	1.91578E-001	3.57630E+000	9	...........
	54	0.733333	1.78837E-001	-9.87332E-005	0.00000E+000	-1.76571E-005	-5.99601E-002	1.78863E-001	3.57630E+000	9	...........
	55	0.746667	1.66200E-001	-1.00235E-004	0.00000E+000	-1.66590E-005	-5.99601E-002	1.66230E-001	3.57630E+000	9	...........
	56	0.76	1.53649E-001	-9.92885E-005	0.00000E+000	-1.52556E-005	-5.99601E-002	1.53673E-001	3.57630E+000	9	...........
	57	0.773333	1.41178E-001	-9.72808E-005	0.00000E+000	-1.37339E-005	-5.99601E-002	1.41201E-001	3.57630E+000	9	...........
	58	0.786667	1.28788E-001	-9.93917E-005	0.00000E+000	-1.28005E-005	-5.99601E-002	1.28805E-001	3.57630E+000	9	...........
	59	0.8	1.16473E-001	-9.90312E-005	0.00000E+000	-1.15345E-005	-5.99601E-002	1.16500E-001	3.57630E+000	9	...........
	60	0.813333	1.04254E-001	-9.89291E-005	0.00000E+000	-1.03138E-005	-5.99601E-002	1.04282E-001	3.57630E+000	9	...........
	61	0.826667	9.21275E-002	-9.81789E-005	0.00000E+000	-9.04498E-006	-5.99601E-002	9.21508E-002	3.57630E+000	9	...........
	62	0.84	8.01111E-002	-9.96521E-005	0.00000E+000	-7.98324E-006	-5.99601E-002	8.01331E-002	3.57630E+000	9	...........
	63	0.853333	6.82197E-002	-9.98043E-005	0.00000E+000	-6.80861E-006	-5.99601E-002	6.82309E-002	3.57630E+000	9	...........
	64	0.866667	5.64570E-002	-9.90041E-005	0.00000E+000	-5.58947E-006	-5.99601E-002	5.64637E-002	3.57630E+000	9	...........
	65	0.88	4.48525E-002	-9.77278E-005	0.00000E+000	-4.38333E-006	-5.99601E-002	4.48594E-002	3.57630E+000	9	...........
	66	0.893333	3.33826E-002	-9.77017E-005	0.00000E+000	-3.26154E-006	-5.99601E-002	3.33870E-002	3.57630E+000	9	...........
	67	0.906667	2.20638E-002	-9.77382E-005	0.00000E+000	-2.15648E-006	-5.99601E-002	2.20560E-002	3.57630E+000	9	...........
	68	0.92	1.09172E-002	-9.96407E-005	0.00000E+000	-1.08780E-006	-5.99601E-002	1.09030E-002	3.57630E+000	9	...........
	69	0.928333	1.99524E-003	-9.72283E-005	0.00000E+000	-1.93994E-007	-5.99601E-002	1.97201E-003	3.57630E+000	9	...........
STARTTIMEOFFSET	QUANT	1856.585	Start Time Offset (s)
