EXPLAIN
TAG	PWR800_DISCHARGE
TITLE	LABEL	PWR Cyclic Charge Discharge (Cell) - Discharge Step	Test &Identifier
DATE	LABEL	12-7-2017	Date
TIME	LABEL	16:22:03	Time
NOTES	NOTES	2	&Notes...
	supercap test cell
	6M KOH
PSTAT	PSTAT	IFC5000-01520	Potentiostat
CAPACITY	QUANT	1.00000E-003	Capacity (A-hr)
CELLTYPE	SELECTOR	1	&Cell Type
WORKINGCONNECTION	SELECTOR	0	&Working Lead
MAXDISCHARGETIME	VARIABLEANDUNITS	1.00000E+002	s	1.00000E+002	second(s)	Max &Discharge Time
DISCHARGEMODE	MULTIPARAM	0	1.00000E-004	&Discharge Mode	Constant Current	Amp(s)
SAMPLETIME	QUANT	1.00000E-002	Sa&mple Period (s)
DISCHARGESTOPAT1	MULTIPARAM	3	0.00000E+000	Discharge Stop At &1	Voltage < Limit	V
DISCHARGESTOPAT2	MULTIPARAM	0	0.00000E+000	Discharge Stop At &2	None	N/A
AESBHCSELECTOR	TOGGLE	F	Save Both Half Cells
IRCOMP	TOGGLE	F	IR &Measure
EOC	QUANT	0	Open Circuit (V)
SEQUENCER	TOGGLE	TRUE	Run as Sequence
PSTATMODEL	IQUANT	53	Pstat Model
PSTATSECTION	LABEL	IFC5000-01520	Pstat Section
PSTATSERIALNO	LABEL	01520	Pstat Serial Number
CTRLMODE	IQUANT	0	Control Mode
ELECTROMETER	IQUANT	1	RE=0 or CS=1
IESTAB	IQUANT	0	I/E Stability
CASPEED	IQUANT	4	Control Amp Speed
CONVENTION	IQUANT	1	Current Convention
ICHRANGE	IQUANT	2	Ich Range
ICHRANGEMODE	TOGGLE	T	Ich Auto Range
ICHOFFSETENABLE	TOGGLE	F	Ich Offset Enable
ICHOFFSET	QUANT	0	Ich Offset (V)
ICHFILTER	IQUANT	1	Ich Filter
VCHRANGE	IQUANT	2	Vch Range
VCHRANGEMODE	TOGGLE	T	Vch Auto Range
VCHOFFSETENABLE	TOGGLE	F	Vch Offset Enable
VCHOFFSET	QUANT	0	Vch Offset (V)
VCHFILTER	IQUANT	1	Vch Filter
IERANGELOWERLIMIT	IQUANT	9	I/E Range Lower Limit
IERANGEMODE	TOGGLE	F	I/E AutoRange
IERANGE	IQUANT	9	I/E Range
ACHSELECT	IQUANT	1	Ach Select
ACHRANGE	IQUANT	2	Ach Range
ACHOFFSETENABLE	TOGGLE	F	Ach Offset Enable
ACHOFFSET	QUANT	0	Ach Offset (V)
ACHFILTER	IQUANT	1	Ach Filter
CABLEID	IQUANT	14	Cable ID
DCCALDATE	LABEL	5-7-2017	DC Calibration Date
ACCALDATE	LABEL	12/3/2015	AC Calibration Date
FRAMEWORKVERSION	QUANT	7.01	Framework Version
INSTRUMENTVERSION	LABEL	4.00	Instrument Version
CURVE	TABLE	72
	Pt	T	Vf	Im	Vu	Pwr	Sig	Ach	Temp	IERange	Over
	#	s	V	A	V	W	V	V	deg C	#	bits
	0	0.013333	8.45783E-001	-9.87801E-005	0.00000E+000	-8.35465E-005	-5.99601E-002	8.46064E-001	3.57750E+000	9	...........
	1	0.026667	8.32817E-001	-9.80435E-005	0.00000E+000	-8.16522E-005	-5.99601E-002	8.33113E-001	3.57750E+000	9	...........
	2	0.04	8.20482E-001	-9.87197E-005	0.00000E+000	-8.09977E-005	-5.99601E-002	8.20763E-001	3.57750E+000	9	...........
	3	0.053333	8.08519E-001	-1.00112E-004	0.00000E+000	-8.09421E-005	-5.99601E-002	8.08771E-001	3.57750E+000	9	...........
	4	0.066667	7.96838E-001	-9.87426E-005	0.00000E+000	-7.86819E-005	-5.99601E-002	7.97096E-001	3.57750E+000	9	...........
	5	0.08	7.85347E-001	-9.80966E-005	0.00000E+000	-7.70398E-005	-5.99601E-002	7.85606E-001	3.57750E+000	9	...........
	6	0.093333	7.74032E-001	-9.89447E-005	0.00000E+000	-7.65864E-005	-5.99601E-002	7.74286E-001	3.57750E+000	9	...........
	7	0.106667	7.62863E-001	-9.73433E-005	0.00000E+000	-7.42597E-005	-5.99601E-002	7.63104E-001	3.57750E+000	9	...........
	8	0.12	7.51799E-001	-9.85728E-005	0.00000E+000	-7.41069E-005	-5.99601E-002	7.52059E-001	3.57750E+000	9	...........
	9	0.133333	7.40855E-001	-9.88770E-005	0.00000E+000	-7.32535E-005	-5.99601E-002	7.41074E-001	3.57750E+000	9	...........
	10	0.146667	7.29988E-001	-9.92000E-005	0.00000E+000	-7.24147E-005	-5.99601E-002	7.30230E-001	3.57750E+000	9	...........
	11	0.16	7.19182E-001	-9.85998E-005	0.00000E+000	-7.09113E-005	-5.99601E-002	7.19463E-001	3.57750E+000	9	...........
	12	0.173333	7.08438E-001	-9.89843E-005	0.00000E+000	-7.01243E-005	-5.99601E-002	7.08695E-001	3.57750E+000	9	...........
	13	0.186667	6.97739E-001	-9.90906E-005	0.00000E+000	-6.91394E-005	-5.99601E-002	6.97999E-001	3.57720E+000	9	...........
	14	0.2	6.86988E-001	-9.92000E-005	0.00000E+000	-6.81492E-005	-5.99601E-002	6.87243E-001	3.57710E+000	9	...........
	15	0.213333	6.76203E-001	-9.92541E-005	0.00000E+000	-6.71159E-005	-5.99601E-002	6.76425E-001	3.57710E+000	9	...........
	16	0.226667	6.65289E-001	-9.91854E-005	0.00000E+000	-6.59869E-005	-5.99601E-002	6.65534E-001	3.57710E+000	9	...........
	17	0.24	6.54243E-001	-9.77653E-005	0.00000E+000	-6.39623E-005	-5.99601E-002	6.54477E-001	3.57710E+000	9	...........
	18	0.253333	6.43024E-001	-9.93375E-005	0.00000E+000	-6.38764E-005	-5.99601E-002	6.43274E-001	3.57710E+000	9	...........
	19	0.266667	6.31674E-001	-9.78611E-005	0.00000E+000	-6.18163E-005	-5.99601E-002	6.31882E-001	3.57710E+000	9	...........
	20	0.28	6.20139E-001	-9.82258E-005	0.00000E+000	-6.09137E-005	-5.99601E-002	6.20396E-001	3.57710E+000	9	...........
	21	0.293333	6.08399E-001	-9.90479E-005	0.00000E+000	-6.02606E-005	-5.99601E-002	6.08670E-001	3.57710E+000	9	...........
	22	0.306667	5.96572E-001	-9.89093E-005	0.00000E+000	-5.90065E-005	-5.99601E-002	5.96848E-001	3.57710E+000	9	...........
	23	0.32	5.84597E-001	-9.78955E-005	0.00000E+000	-5.72295E-005	-5.99601E-002	5.84883E-001	3.57710E+000	9	...........
	24	0.333333	5.72533E-001	-9.81383E-005	0.00000E+000	-5.61874E-005	-5.99601E-002	5.72793E-001	3.57710E+000	9	...........
	25	0.346667	5.60321E-001	-9.80539E-005	0.00000E+000	-5.49417E-005	-5.99601E-002	5.60577E-001	3.57710E+000	9	...........
	26	0.36	5.47990E-001	-9.88687E-005	0.00000E+000	-5.41791E-005	-5.99601E-002	5.48260E-001	3.57710E+000	9	...........
	27	0.373333	5.35596E-001	-9.77861E-005	0.00000E+000	-5.23738E-005	-5.99601E-002	5.35876E-001	3.57710E+000	9	...........
	28	0.386667	5.23129E-001	-9.85915E-005	0.00000E+000	-5.15760E-005	-5.99601E-002	5.23370E-001	3.57710E+000	9	...........
	29	0.4	5.10561E-001	-9.88343E-005	0.00000E+000	-5.04610E-005	-5.99601E-002	5.10809E-001	3.57710E+000	9	...........
	30	0.413333	4.97929E-001	-9.80727E-005	0.00000E+000	-4.88332E-005	-5.99601E-002	4.98173E-001	3.57710E+000	9	...........
	31	0.426667	4.85389E-001	-9.82894E-005	0.00000E+000	-4.77086E-005	-5.99601E-002	4.85575E-001	3.57710E+000	9	...........
	32	0.44	4.72897E-001	-9.87280E-005	0.00000E+000	-4.66882E-005	-5.99601E-002	4.72997E-001	3.57710E+000	9	...........
	33	0.453333	4.60153E-001	-9.90739E-005	0.00000E+000	-4.55891E-005	-5.99601E-002	4.60256E-001	3.57710E+000	9	...........
	34	0.466667	4.47389E-001	-9.92812E-005	0.00000E+000	-4.44173E-005	-5.99601E-002	4.47487E-001	3.57710E+000	9	...........
	35	0.48	4.34616E-001	-9.87447E-005	0.00000E+000	-4.29160E-005	-5.99601E-002	4.34707E-001	3.57710E+000	9	...........
	36	0.493333	4.21827E-001	-9.93813E-005	0.00000E+000	-4.19217E-005	-5.99601E-002	4.21914E-001	3.57710E+000	9	...........
	37	0.506667	4.09042E-001	-9.81289E-005	0.00000E+000	-4.01388E-005	-5.99601E-002	4.09134E-001	3.57710E+000	9	...........
	38	0.52	3.96275E-001	-9.88478E-005	0.00000E+000	-3.91709E-005	-5.99601E-002	3.96353E-001	3.57710E+000	9	...........
	39	0.533333	3.83514E-001	-9.90041E-005	0.00000E+000	-3.79695E-005	-5.99601E-002	3.83595E-001	3.57710E+000	9	...........
	40	0.546667	3.70783E-001	-9.99032E-005	0.00000E+000	-3.70424E-005	-5.99601E-002	3.70859E-001	3.57710E+000	9	...........
	41	0.56	3.58073E-001	-9.88968E-005	0.00000E+000	-3.54123E-005	-5.99601E-002	3.58146E-001	3.57710E+000	9	...........
	42	0.573333	3.45388E-001	-9.91010E-005	0.00000E+000	-3.42283E-005	-5.99601E-002	3.45465E-001	3.57710E+000	9	...........
	43	0.586667	3.32730E-001	-9.91291E-005	0.00000E+000	-3.29832E-005	-5.99601E-002	3.32801E-001	3.57710E+000	9	...........
	44	0.6	3.20119E-001	-9.80945E-005	0.00000E+000	-3.14020E-005	-5.99601E-002	3.20188E-001	3.57710E+000	9	...........
	45	0.613333	3.07538E-001	-9.91864E-005	0.00000E+000	-3.05036E-005	-5.99601E-002	3.07599E-001	3.57710E+000	9	...........
	46	0.626667	2.94991E-001	-9.83925E-005	0.00000E+000	-2.90250E-005	-5.99601E-002	2.95050E-001	3.57710E+000	9	...........
	47	0.64	2.82487E-001	-9.82852E-005	0.00000E+000	-2.77643E-005	-5.99601E-002	2.82551E-001	3.57710E+000	9	...........
	48	0.653333	2.70011E-001	-9.97220E-005	0.00000E+000	-2.69261E-005	-5.99601E-002	2.70073E-001	3.57710E+000	9	...........
	49	0.666667	2.57580E-001	-9.81102E-005	0.00000E+000	-2.52712E-005	-5.99601E-002	2.57637E-001	3.57710E+000	9	...........
	50	0.68	2.45173E-001	-9.86978E-005	0.00000E+000	-2.41980E-005	-5.99601E-002	2.45227E-001	3.57710E+000	9	...........
	51	0.693333	2.32794E-001	-9.90312E-005	0.00000E+000	-2.30539E-005	-5.99601E-002	2.32843E-001	3.57710E+000	9	...........
	52	0.706667	2.20441E-001	-9.88197E-005	0.00000E+000	-2.17839E-005	-5.99601E-002	2.20487E-001	3.57710E+000	9	...........
	53	0.72	2.08113E-001	-9.87811E-005	0.00000E+000	-2.05576E-005	-5.99601E-002	2.08159E-001	3.57710E+000	9	...........
	54	0.733333	1.95810E-001	-9.85332E-005	0.00000E+000	-1.92938E-005	-5.99601E-002	1.95856E-001	3.57710E+000	9	...........
	55	0.746667	1.83531E-001	-9.89666E-005	0.00000E+000	-1.81634E-005	-5.99601E-002	1.83572E-001	3.57710E+000	9	...........
	56	0.76	1.71281E-001	-9.77340E-005	0.00000E+000	-1.67399E-005	-5.99601E-002	1.71319E-001	3.57710E+000	9	...........
	57	0.773333	1.59068E-001	-9.87634E-005	0.00000E+000	-1.57101E-005	-5.99601E-002	1.59095E-001	3.57710E+000	9	...........
	58	0.786667	1.46896E-001	-9.83185E-005	0.00000E+000	-1.44426E-005	-5.99601E-002	1.46926E-001	3.57710E+000	9	...........
	59	0.8	1.34762E-001	-9.83894E-005	0.00000E+000	-1.32591E-005	-5.99601E-002	1.34788E-001	3.57710E+000	9	...........
	60	0.813333	1.22672E-001	-9.92594E-005	0.00000E+000	-1.21763E-005	-5.99601E-002	1.22694E-001	3.57710E+000	9	...........
	61	0.826667	1.10637E-001	-9.88551E-005	0.00000E+000	-1.09370E-005	-5.99601E-002	1.10658E-001	3.57710E+000	9	...........
	62	0.84	9.86656E-002	-9.87082E-005	0.00000E+000	-9.73910E-006	-5.99601E-002	9.86844E-002	3.57710E+000	9	...........
	63	0.853333	8.67668E-002	-9.94667E-005	0.00000E+000	-8.63041E-006	-5.99601E-002	8.67853E-002	3.57710E+000	9	...........
	64	0.866667	7.49705E-002	-9.80445E-005	0.00000E+000	-7.35044E-006	-5.99601E-002	7.49792E-002	3.57710E+000	9	...........
	65	0.88	6.32587E-002	-9.75882E-005	0.00000E+000	-6.17330E-006	-5.99601E-002	6.32617E-002	3.57710E+000	9	...........
	66	0.893333	5.16494E-002	-9.88332E-005	0.00000E+000	-5.10467E-006	-5.99601E-002	5.16514E-002	3.57710E+000	9	...........
	67	0.906667	4.01838E-002	-9.95313E-005	0.00000E+000	-3.99955E-006	-5.99601E-002	4.01862E-002	3.57710E+000	9	...........
	68	0.92	2.88125E-002	-9.81185E-005	0.00000E+000	-2.82704E-006	-5.99601E-002	2.88053E-002	3.57710E+000	9	...........
	69	0.933333	1.75768E-002	-9.77841E-005	0.00000E+000	-1.71873E-006	-5.99601E-002	1.75642E-002	3.57710E+000	9	...........
	70	0.946667	6.48061E-003	-9.93042E-005	0.00000E+000	-6.43551E-007	-5.99601E-002	6.46820E-003	3.57710E+000	9	...........
	71	0.95	-3.78351E-004	-1.00969E-004	0.00000E+000	3.82018E-008	-5.99601E-002	-4.03837E-004	3.57710E+000	9	...........
STARTTIMEOFFSET	QUANT	512.7684	Start Time Offset (s)
