EXPLAIN
TAG	PWR800_DISCHARGE
TITLE	LABEL	PWR Cyclic Charge Discharge (Cell) - Discharge Step	Test &Identifier
DATE	LABEL	12-7-2017	Date
TIME	LABEL	16:34:04	Time
NOTES	NOTES	2	&Notes...
	supercap test cell
	6M KOH
PSTAT	PSTAT	IFC5000-01520	Potentiostat
CAPACITY	QUANT	1.00000E-003	Capacity (A-hr)
CELLTYPE	SELECTOR	1	&Cell Type
WORKINGCONNECTION	SELECTOR	0	&Working Lead
MAXDISCHARGETIME	VARIABLEANDUNITS	1.00000E+002	s	1.00000E+002	second(s)	Max &Discharge Time
DISCHARGEMODE	MULTIPARAM	0	1.00000E-004	&Discharge Mode	Constant Current	Amp(s)
SAMPLETIME	QUANT	1.00000E-002	Sa&mple Period (s)
DISCHARGESTOPAT1	MULTIPARAM	3	0.00000E+000	Discharge Stop At &1	Voltage < Limit	V
DISCHARGESTOPAT2	MULTIPARAM	0	0.00000E+000	Discharge Stop At &2	None	N/A
AESBHCSELECTOR	TOGGLE	F	Save Both Half Cells
IRCOMP	TOGGLE	F	IR &Measure
EOC	QUANT	0	Open Circuit (V)
SEQUENCER	TOGGLE	TRUE	Run as Sequence
PSTATMODEL	IQUANT	53	Pstat Model
PSTATSECTION	LABEL	IFC5000-01520	Pstat Section
PSTATSERIALNO	LABEL	01520	Pstat Serial Number
CTRLMODE	IQUANT	0	Control Mode
ELECTROMETER	IQUANT	1	RE=0 or CS=1
IESTAB	IQUANT	0	I/E Stability
CASPEED	IQUANT	4	Control Amp Speed
CONVENTION	IQUANT	1	Current Convention
ICHRANGE	IQUANT	2	Ich Range
ICHRANGEMODE	TOGGLE	T	Ich Auto Range
ICHOFFSETENABLE	TOGGLE	F	Ich Offset Enable
ICHOFFSET	QUANT	0	Ich Offset (V)
ICHFILTER	IQUANT	1	Ich Filter
VCHRANGE	IQUANT	2	Vch Range
VCHRANGEMODE	TOGGLE	T	Vch Auto Range
VCHOFFSETENABLE	TOGGLE	F	Vch Offset Enable
VCHOFFSET	QUANT	0	Vch Offset (V)
VCHFILTER	IQUANT	1	Vch Filter
IERANGELOWERLIMIT	IQUANT	9	I/E Range Lower Limit
IERANGEMODE	TOGGLE	F	I/E AutoRange
IERANGE	IQUANT	9	I/E Range
ACHSELECT	IQUANT	1	Ach Select
ACHRANGE	IQUANT	2	Ach Range
ACHOFFSETENABLE	TOGGLE	F	Ach Offset Enable
ACHOFFSET	QUANT	0	Ach Offset (V)
ACHFILTER	IQUANT	1	Ach Filter
CABLEID	IQUANT	14	Cable ID
DCCALDATE	LABEL	5-7-2017	DC Calibration Date
ACCALDATE	LABEL	12/3/2015	AC Calibration Date
FRAMEWORKVERSION	QUANT	7.01	Framework Version
INSTRUMENTVERSION	LABEL	4.00	Instrument Version
CURVE	TABLE	71
	Pt	T	Vf	Im	Vu	Pwr	Sig	Ach	Temp	IERange	Over
	#	s	V	A	V	W	V	V	deg C	#	bits
	0	0.013333	8.46358E-001	-9.87884E-005	0.00000E+000	-8.36104E-005	-5.99601E-002	8.46654E-001	3.57800E+000	9	...........
	1	0.026667	8.33307E-001	-9.95615E-005	0.00000E+000	-8.29653E-005	-5.99601E-002	8.33607E-001	3.57800E+000	9	...........
	2	0.04	8.20882E-001	-9.97709E-005	0.00000E+000	-8.19002E-005	-5.99601E-002	8.21145E-001	3.57800E+000	9	...........
	3	0.053333	8.08797E-001	-9.75152E-005	0.00000E+000	-7.88700E-005	-5.99601E-002	8.09055E-001	3.57800E+000	9	...........
	4	0.066667	7.97018E-001	-9.87665E-005	0.00000E+000	-7.87188E-005	-5.99601E-002	7.97250E-001	3.57800E+000	9	...........
	5	0.08	7.85382E-001	-9.89624E-005	0.00000E+000	-7.77233E-005	-5.99601E-002	7.85612E-001	3.57800E+000	9	...........
	6	0.093333	7.73932E-001	-9.89312E-005	0.00000E+000	-7.65660E-005	-5.99601E-002	7.74175E-001	3.57800E+000	9	...........
	7	0.106667	7.62580E-001	-9.75965E-005	0.00000E+000	-7.44251E-005	-5.99601E-002	7.62834E-001	3.57750E+000	9	...........
	8	0.12	7.51399E-001	-9.84363E-005	0.00000E+000	-7.39649E-005	-5.99601E-002	7.51630E-001	3.57700E+000	9	...........
	9	0.133333	7.40259E-001	-9.86478E-005	0.00000E+000	-7.30249E-005	-5.99601E-002	7.40539E-001	3.57700E+000	9	...........
	10	0.146667	7.29275E-001	-9.80331E-005	0.00000E+000	-7.14930E-005	-5.99601E-002	7.29524E-001	3.57700E+000	9	...........
	11	0.16	7.18341E-001	-9.85186E-005	0.00000E+000	-7.07699E-005	-5.99601E-002	7.18601E-001	3.57700E+000	9	...........
	12	0.173333	7.07475E-001	-9.79799E-005	0.00000E+000	-6.93184E-005	-5.99601E-002	7.07734E-001	3.57700E+000	9	...........
	13	0.186667	6.96725E-001	-9.81820E-005	0.00000E+000	-6.84059E-005	-5.99601E-002	6.96988E-001	3.57700E+000	9	...........
	14	0.2	6.86018E-001	-9.94209E-005	0.00000E+000	-6.82044E-005	-5.99601E-002	6.86293E-001	3.57700E+000	9	...........
	15	0.213333	6.75371E-001	-9.81935E-005	0.00000E+000	-6.63171E-005	-5.99601E-002	6.75627E-001	3.57700E+000	9	...........
	16	0.226667	6.64696E-001	-9.75642E-005	0.00000E+000	-6.48505E-005	-5.99601E-002	6.64987E-001	3.57700E+000	9	...........
	17	0.24	6.54018E-001	-9.87301E-005	0.00000E+000	-6.45713E-005	-5.99601E-002	6.54279E-001	3.57700E+000	9	...........
	18	0.253333	6.43262E-001	-9.84686E-005	0.00000E+000	-6.33411E-005	-5.99601E-002	6.43531E-001	3.57700E+000	9	...........
	19	0.266667	6.32383E-001	-1.00189E-004	0.00000E+000	-6.33576E-005	-5.99601E-002	6.32629E-001	3.57700E+000	9	...........
	20	0.28	6.21371E-001	-9.79059E-005	0.00000E+000	-6.08359E-005	-5.99601E-002	6.21602E-001	3.57700E+000	9	...........
	21	0.293333	6.10099E-001	-9.87936E-005	0.00000E+000	-6.02739E-005	-5.99601E-002	6.10384E-001	3.57700E+000	9	...........
	22	0.306667	5.98701E-001	-9.82039E-005	0.00000E+000	-5.87948E-005	-5.99601E-002	5.98971E-001	3.57700E+000	9	...........
	23	0.32	5.87092E-001	-9.86561E-005	0.00000E+000	-5.79202E-005	-5.99601E-002	5.87352E-001	3.57700E+000	9	...........
	24	0.333333	5.75289E-001	-9.94667E-005	0.00000E+000	-5.72221E-005	-5.99601E-002	5.75535E-001	3.57700E+000	9	...........
	25	0.346667	5.63290E-001	-9.69787E-005	0.00000E+000	-5.46271E-005	-5.99601E-002	5.63563E-001	3.57700E+000	9	...........
	26	0.36	5.51130E-001	-9.78809E-005	0.00000E+000	-5.39451E-005	-5.99601E-002	5.51396E-001	3.57700E+000	9	...........
	27	0.373333	5.38816E-001	-9.83977E-005	0.00000E+000	-5.30182E-005	-5.99601E-002	5.39071E-001	3.57700E+000	9	...........
	28	0.386667	5.26342E-001	-9.75757E-005	0.00000E+000	-5.13582E-005	-5.99601E-002	5.26587E-001	3.57700E+000	9	...........
	29	0.4	5.13759E-001	-9.83050E-005	0.00000E+000	-5.05051E-005	-5.99601E-002	5.13985E-001	3.57700E+000	9	...........
	30	0.413333	5.01012E-001	-9.92093E-005	0.00000E+000	-4.97050E-005	-5.99601E-002	5.01250E-001	3.57700E+000	9	...........
	31	0.426667	4.88256E-001	-9.86603E-005	0.00000E+000	-4.81714E-005	-5.99601E-002	4.88449E-001	3.57700E+000	9	...........
	32	0.44	4.75606E-001	-9.77278E-005	0.00000E+000	-4.64800E-005	-5.99601E-002	4.75707E-001	3.57700E+000	9	...........
	33	0.453333	4.62615E-001	-9.81070E-005	0.00000E+000	-4.53858E-005	-5.99601E-002	4.62710E-001	3.57700E+000	9	...........
	34	0.466667	4.49574E-001	-9.76090E-005	0.00000E+000	-4.38825E-005	-5.99601E-002	4.49667E-001	3.57700E+000	9	...........
	35	0.48	4.36465E-001	-9.87728E-005	0.00000E+000	-4.31108E-005	-5.99601E-002	4.36555E-001	3.57700E+000	9	...........
	36	0.493333	4.23321E-001	-9.80435E-005	0.00000E+000	-4.15039E-005	-5.99601E-002	4.23408E-001	3.57700E+000	9	...........
	37	0.506667	4.10143E-001	-9.93708E-005	0.00000E+000	-4.07562E-005	-5.99601E-002	4.10231E-001	3.57700E+000	9	...........
	38	0.52	3.96954E-001	-9.87207E-005	0.00000E+000	-3.91876E-005	-5.99601E-002	3.97031E-001	3.57700E+000	9	...........
	39	0.533333	3.83761E-001	-9.93948E-005	0.00000E+000	-3.81439E-005	-5.99601E-002	3.83836E-001	3.57700E+000	9	...........
	40	0.546667	3.70567E-001	-9.79455E-005	0.00000E+000	-3.62954E-005	-5.99601E-002	3.70647E-001	3.57700E+000	9	...........
	41	0.56	3.57390E-001	-9.78684E-005	0.00000E+000	-3.49772E-005	-5.99601E-002	3.57467E-001	3.57700E+000	9	...........
	42	0.573333	3.44233E-001	-9.84331E-005	0.00000E+000	-3.38839E-005	-5.99601E-002	3.44305E-001	3.57700E+000	9	...........
	43	0.586667	3.31120E-001	-9.88968E-005	0.00000E+000	-3.27467E-005	-5.99601E-002	3.31187E-001	3.57700E+000	9	...........
	44	0.6	3.18048E-001	-9.97813E-005	0.00000E+000	-3.17353E-005	-5.99601E-002	3.18116E-001	3.57700E+000	9	...........
	45	0.613333	3.05002E-001	-9.91427E-005	0.00000E+000	-3.02387E-005	-5.99601E-002	3.05069E-001	3.57700E+000	9	...........
	46	0.626667	2.92005E-001	-9.92885E-005	0.00000E+000	-2.89927E-005	-5.99601E-002	2.92071E-001	3.57700E+000	9	...........
	47	0.64	2.79064E-001	-9.89353E-005	0.00000E+000	-2.76093E-005	-5.99601E-002	2.79132E-001	3.57700E+000	9	...........
	48	0.653333	2.66190E-001	-9.85821E-005	0.00000E+000	-2.62416E-005	-5.99601E-002	2.66249E-001	3.57700E+000	9	...........
	49	0.666667	2.53366E-001	-9.93417E-005	0.00000E+000	-2.51698E-005	-5.99601E-002	2.53423E-001	3.57700E+000	9	...........
	50	0.68	2.40611E-001	-9.85790E-005	0.00000E+000	-2.37192E-005	-5.99601E-002	2.40664E-001	3.57700E+000	9	...........
	51	0.693333	2.27916E-001	-9.89312E-005	0.00000E+000	-2.25480E-005	-5.99601E-002	2.27961E-001	3.57700E+000	9	...........
	52	0.706667	2.15281E-001	-9.82852E-005	0.00000E+000	-2.11589E-005	-5.99601E-002	2.15326E-001	3.57700E+000	9	...........
	53	0.72	2.02713E-001	-9.92792E-005	0.00000E+000	-2.01251E-005	-5.99601E-002	2.02753E-001	3.57700E+000	9	...........
	54	0.733333	1.90192E-001	-9.86478E-005	0.00000E+000	-1.87620E-005	-5.99601E-002	1.90234E-001	3.57700E+000	9	...........
	55	0.746667	1.77731E-001	-9.94011E-005	0.00000E+000	-1.76666E-005	-5.99601E-002	1.77765E-001	3.57700E+000	9	...........
	56	0.76	1.65321E-001	-9.88853E-005	0.00000E+000	-1.63478E-005	-5.99601E-002	1.65354E-001	3.57700E+000	9	...........
	57	0.773333	1.52968E-001	-9.93573E-005	0.00000E+000	-1.51985E-005	-5.99601E-002	1.52994E-001	3.57700E+000	9	...........
	58	0.786667	1.40674E-001	-9.91416E-005	0.00000E+000	-1.39466E-005	-5.99601E-002	1.40702E-001	3.57700E+000	9	...........
	59	0.8	1.28445E-001	-9.81539E-005	0.00000E+000	-1.26073E-005	-5.99601E-002	1.28469E-001	3.57700E+000	9	...........
	60	0.813333	1.16281E-001	-9.87707E-005	0.00000E+000	-1.14852E-005	-5.99601E-002	1.16305E-001	3.57700E+000	9	...........
	61	0.826667	1.04203E-001	-9.92010E-005	0.00000E+000	-1.03370E-005	-5.99601E-002	1.04220E-001	3.57700E+000	9	...........
	62	0.84	9.21985E-002	-9.86988E-005	0.00000E+000	-9.09988E-006	-5.99601E-002	9.22135E-002	3.57700E+000	9	...........
	63	0.853333	8.02984E-002	-9.77809E-005	0.00000E+000	-7.85166E-006	-5.99601E-002	8.03051E-002	3.57700E+000	9	...........
	64	0.866667	6.84927E-002	-9.94365E-005	0.00000E+000	-6.81068E-006	-5.99601E-002	6.84954E-002	3.57700E+000	9	...........
	65	0.88	5.67990E-002	-9.91114E-005	0.00000E+000	-5.62943E-006	-5.99601E-002	5.67985E-002	3.57700E+000	9	...........
	66	0.893333	4.52641E-002	-9.91645E-005	0.00000E+000	-4.48860E-006	-5.99601E-002	4.52642E-002	3.57700E+000	9	...........
	67	0.906667	3.38400E-002	-9.95063E-005	0.00000E+000	-3.36729E-006	-5.99601E-002	3.38401E-002	3.57700E+000	9	...........
	68	0.92	2.25578E-002	-9.93344E-005	0.00000E+000	-2.24076E-006	-5.99601E-002	2.25514E-002	3.57700E+000	9	...........
	69	0.933333	1.14191E-002	-9.83508E-005	0.00000E+000	-1.12308E-006	-5.99601E-002	1.14074E-002	3.57700E+000	9	...........
	70	0.941667	2.49193E-003	-9.87253E-005	0.00000E+000	-2.46017E-007	-5.99601E-002	2.47918E-003	3.57700E+000	9	...........
STARTTIMEOFFSET	QUANT	1026.954	Start Time Offset (s)
