EXPLAIN
TAG	PWR800_DISCHARGE
TITLE	LABEL	PWR Cyclic Charge Discharge (Cell) - Discharge Step	Test &Identifier
DATE	LABEL	12-7-2017	Date
TIME	LABEL	16:14:58	Time
NOTES	NOTES	2	&Notes...
	supercap test cell
	6M KOH
PSTAT	PSTAT	IFC5000-01520	Potentiostat
CAPACITY	QUANT	1.00000E-003	Capacity (A-hr)
CELLTYPE	SELECTOR	1	&Cell Type
WORKINGCONNECTION	SELECTOR	0	&Working Lead
MAXDISCHARGETIME	VARIABLEANDUNITS	1.00000E+002	s	1.00000E+002	second(s)	Max &Discharge Time
DISCHARGEMODE	MULTIPARAM	0	1.00000E-004	&Discharge Mode	Constant Current	Amp(s)
SAMPLETIME	QUANT	1.00000E-002	Sa&mple Period (s)
DISCHARGESTOPAT1	MULTIPARAM	3	0.00000E+000	Discharge Stop At &1	Voltage < Limit	V
DISCHARGESTOPAT2	MULTIPARAM	0	0.00000E+000	Discharge Stop At &2	None	N/A
AESBHCSELECTOR	TOGGLE	F	Save Both Half Cells
IRCOMP	TOGGLE	F	IR &Measure
EOC	QUANT	0	Open Circuit (V)
SEQUENCER	TOGGLE	TRUE	Run as Sequence
PSTATMODEL	IQUANT	53	Pstat Model
PSTATSECTION	LABEL	IFC5000-01520	Pstat Section
PSTATSERIALNO	LABEL	01520	Pstat Serial Number
CTRLMODE	IQUANT	0	Control Mode
ELECTROMETER	IQUANT	1	RE=0 or CS=1
IESTAB	IQUANT	0	I/E Stability
CASPEED	IQUANT	4	Control Amp Speed
CONVENTION	IQUANT	1	Current Convention
ICHRANGE	IQUANT	2	Ich Range
ICHRANGEMODE	TOGGLE	T	Ich Auto Range
ICHOFFSETENABLE	TOGGLE	F	Ich Offset Enable
ICHOFFSET	QUANT	0	Ich Offset (V)
ICHFILTER	IQUANT	1	Ich Filter
VCHRANGE	IQUANT	2	Vch Range
VCHRANGEMODE	TOGGLE	T	Vch Auto Range
VCHOFFSETENABLE	TOGGLE	F	Vch Offset Enable
VCHOFFSET	QUANT	0	Vch Offset (V)
VCHFILTER	IQUANT	1	Vch Filter
IERANGELOWERLIMIT	IQUANT	9	I/E Range Lower Limit
IERANGEMODE	TOGGLE	F	I/E AutoRange
IERANGE	IQUANT	9	I/E Range
ACHSELECT	IQUANT	1	Ach Select
ACHRANGE	IQUANT	2	Ach Range
ACHOFFSETENABLE	TOGGLE	F	Ach Offset Enable
ACHOFFSET	QUANT	0	Ach Offset (V)
ACHFILTER	IQUANT	1	Ach Filter
CABLEID	IQUANT	14	Cable ID
DCCALDATE	LABEL	5-7-2017	DC Calibration Date
ACCALDATE	LABEL	12/3/2015	AC Calibration Date
FRAMEWORKVERSION	QUANT	7.01	Framework Version
INSTRUMENTVERSION	LABEL	4.00	Instrument Version
CURVE	TABLE	72
	Pt	T	Vf	Im	Vu	Pwr	Sig	Ach	Temp	IERange	Over
	#	s	V	A	V	W	V	V	deg C	#	bits
	0	0.013333	8.35970E-001	-9.89197E-005	0.00000E+000	-8.26940E-005	-5.99601E-002	8.36296E-001	3.57870E+000	9	...........
	1	0.026667	8.22988E-001	-9.93302E-005	0.00000E+000	-8.17476E-005	-5.99601E-002	8.23303E-001	3.57870E+000	9	...........
	2	0.04	8.10550E-001	-9.89197E-005	0.00000E+000	-8.01793E-005	-5.99601E-002	8.10860E-001	3.57870E+000	9	...........
	3	0.053333	7.98543E-001	-9.81581E-005	0.00000E+000	-7.83834E-005	-5.99601E-002	7.98797E-001	3.57870E+000	9	...........
	4	0.066667	7.86783E-001	-9.87415E-005	0.00000E+000	-7.76882E-005	-5.99601E-002	7.87002E-001	3.57870E+000	9	...........
	5	0.08	7.75225E-001	-9.85040E-005	0.00000E+000	-7.63628E-005	-5.99601E-002	7.75449E-001	3.57870E+000	9	...........
	6	0.093333	7.63825E-001	-9.91729E-005	0.00000E+000	-7.57507E-005	-5.99601E-002	7.64057E-001	3.57870E+000	9	...........
	7	0.106667	7.52562E-001	-9.91979E-005	0.00000E+000	-7.46526E-005	-5.99601E-002	7.52802E-001	3.57870E+000	9	...........
	8	0.12	7.41347E-001	-9.88478E-005	0.00000E+000	-7.32805E-005	-5.99601E-002	7.41588E-001	3.57870E+000	9	...........
	9	0.133333	7.30180E-001	-9.89176E-005	0.00000E+000	-7.22277E-005	-5.99601E-002	7.30403E-001	3.57870E+000	9	...........
	10	0.146667	7.18963E-001	-9.83165E-005	0.00000E+000	-7.06859E-005	-5.99601E-002	7.19194E-001	3.57870E+000	9	...........
	11	0.16	7.07667E-001	-9.92052E-005	0.00000E+000	-7.02042E-005	-5.99601E-002	7.07935E-001	3.57870E+000	9	...........
	12	0.173333	6.96321E-001	-9.82331E-005	0.00000E+000	-6.84018E-005	-5.99601E-002	6.96582E-001	3.57870E+000	9	...........
	13	0.186667	6.84882E-001	-9.82977E-005	0.00000E+000	-6.73223E-005	-5.99601E-002	6.85142E-001	3.57870E+000	9	...........
	14	0.2	6.73315E-001	-9.90468E-005	0.00000E+000	-6.66897E-005	-5.99601E-002	6.73569E-001	3.57870E+000	9	...........
	15	0.213333	6.61625E-001	-9.92708E-005	0.00000E+000	-6.56800E-005	-5.99601E-002	6.61892E-001	3.57870E+000	9	...........
	16	0.226667	6.49877E-001	-9.87186E-005	0.00000E+000	-6.41549E-005	-5.99601E-002	6.50133E-001	3.57870E+000	9	...........
	17	0.24	6.38012E-001	-9.92031E-005	0.00000E+000	-6.32928E-005	-5.99601E-002	6.38292E-001	3.57870E+000	9	...........
	18	0.253333	6.26107E-001	-9.89457E-005	0.00000E+000	-6.19506E-005	-5.99601E-002	6.26347E-001	3.57870E+000	9	...........
	19	0.266667	6.14070E-001	-9.87707E-005	0.00000E+000	-6.06521E-005	-5.99601E-002	6.14356E-001	3.57870E+000	9	...........
	20	0.28	6.02026E-001	-9.82071E-005	0.00000E+000	-5.91232E-005	-5.99601E-002	6.02283E-001	3.57870E+000	9	...........
	21	0.293333	5.89959E-001	-9.94136E-005	0.00000E+000	-5.86500E-005	-5.99601E-002	5.90186E-001	3.57870E+000	9	...........
	22	0.306667	5.77826E-001	-9.94500E-005	0.00000E+000	-5.74648E-005	-5.99601E-002	5.78042E-001	3.57870E+000	9	...........
	23	0.32	5.65691E-001	-9.90239E-005	0.00000E+000	-5.60169E-005	-5.99601E-002	5.65901E-001	3.57870E+000	9	...........
	24	0.333333	5.53470E-001	-9.94146E-005	0.00000E+000	-5.50230E-005	-5.99601E-002	5.53712E-001	3.57870E+000	9	...........
	25	0.346667	5.41327E-001	-9.93167E-005	0.00000E+000	-5.37627E-005	-5.99601E-002	5.41522E-001	3.57870E+000	9	...........
	26	0.36	5.29093E-001	-9.88436E-005	0.00000E+000	-5.22975E-005	-5.99601E-002	5.29336E-001	3.57870E+000	9	...........
	27	0.373333	5.16943E-001	-9.85373E-005	0.00000E+000	-5.09381E-005	-5.99601E-002	5.17152E-001	3.57870E+000	9	...........
	28	0.386667	5.04708E-001	-9.88634E-005	0.00000E+000	-4.98972E-005	-5.99601E-002	5.04959E-001	3.57870E+000	9	...........
	29	0.4	4.92542E-001	-9.93083E-005	0.00000E+000	-4.89135E-005	-5.99601E-002	4.92813E-001	3.57870E+000	9	...........
	30	0.413333	4.80656E-001	-9.84081E-005	0.00000E+000	-4.73005E-005	-5.99601E-002	4.80806E-001	3.57870E+000	9	...........
	31	0.426667	4.68602E-001	-9.94406E-005	0.00000E+000	-4.65981E-005	-5.99601E-002	4.68703E-001	3.57870E+000	9	...........
	32	0.44	4.56484E-001	-9.85509E-005	0.00000E+000	-4.49869E-005	-5.99601E-002	4.56583E-001	3.57870E+000	9	...........
	33	0.453333	4.44397E-001	-9.81873E-005	0.00000E+000	-4.36341E-005	-5.99601E-002	4.44496E-001	3.57826E+000	9	...........
	34	0.466667	4.32316E-001	-9.82737E-005	0.00000E+000	-4.24853E-005	-5.99601E-002	4.32413E-001	3.57800E+000	9	...........
	35	0.48	4.20262E-001	-9.92792E-005	0.00000E+000	-4.17233E-005	-5.99601E-002	4.20354E-001	3.57800E+000	9	...........
	36	0.493333	4.08241E-001	-9.89770E-005	0.00000E+000	-4.04065E-005	-5.99601E-002	4.08328E-001	3.57800E+000	9	...........
	37	0.506667	3.96243E-001	-9.89603E-005	0.00000E+000	-3.92123E-005	-5.99601E-002	3.96320E-001	3.57800E+000	9	...........
	38	0.52	3.84265E-001	-1.00108E-004	0.00000E+000	-3.84682E-005	-5.99601E-002	3.84345E-001	3.57800E+000	9	...........
	39	0.533333	3.72308E-001	-9.92802E-005	0.00000E+000	-3.69628E-005	-5.99601E-002	3.72383E-001	3.57800E+000	9	...........
	40	0.546667	3.60369E-001	-9.77788E-005	0.00000E+000	-3.52364E-005	-5.99601E-002	3.60443E-001	3.57800E+000	9	...........
	41	0.56	3.48435E-001	-9.81143E-005	0.00000E+000	-3.41865E-005	-5.99601E-002	3.48507E-001	3.57800E+000	9	...........
	42	0.573333	3.36512E-001	-9.91395E-005	0.00000E+000	-3.33617E-005	-5.99601E-002	3.36582E-001	3.57800E+000	9	...........
	43	0.586667	3.24595E-001	-9.94000E-005	0.00000E+000	-3.22648E-005	-5.99601E-002	3.24663E-001	3.57800E+000	9	...........
	44	0.6	3.12676E-001	-9.89541E-005	0.00000E+000	-3.09405E-005	-5.99601E-002	3.12739E-001	3.57800E+000	9	...........
	45	0.613333	3.00745E-001	-9.88020E-005	0.00000E+000	-2.97142E-005	-5.99601E-002	3.00805E-001	3.57800E+000	9	...........
	46	0.626667	2.88815E-001	-9.88332E-005	0.00000E+000	-2.85445E-005	-5.99601E-002	2.88867E-001	3.57800E+000	9	...........
	47	0.64	2.76873E-001	-9.93740E-005	0.00000E+000	-2.75139E-005	-5.99601E-002	2.76925E-001	3.57800E+000	9	...........
	48	0.653333	2.64921E-001	-9.88561E-005	0.00000E+000	-2.61891E-005	-5.99601E-002	2.64977E-001	3.57800E+000	9	...........
	49	0.666667	2.52958E-001	-9.84779E-005	0.00000E+000	-2.49108E-005	-5.99601E-002	2.53016E-001	3.57800E+000	9	...........
	50	0.68	2.40992E-001	-9.88416E-005	0.00000E+000	-2.38200E-005	-5.99601E-002	2.41042E-001	3.57800E+000	9	...........
	51	0.693333	2.29022E-001	-9.87134E-005	0.00000E+000	-2.26075E-005	-5.99601E-002	2.29056E-001	3.57800E+000	9	...........
	52	0.706667	2.17044E-001	-9.81466E-005	0.00000E+000	-2.13021E-005	-5.99601E-002	2.17078E-001	3.57800E+000	9	...........
	53	0.72	2.05067E-001	-9.82508E-005	0.00000E+000	-2.01480E-005	-5.99601E-002	2.05103E-001	3.57800E+000	9	...........
	54	0.733333	1.93091E-001	-9.87874E-005	0.00000E+000	-1.90750E-005	-5.99601E-002	1.93128E-001	3.57800E+000	9	...........
	55	0.746667	1.81120E-001	-9.86811E-005	0.00000E+000	-1.78731E-005	-5.99601E-002	1.81153E-001	3.57800E+000	9	...........
	56	0.76	1.69159E-001	-9.84967E-005	0.00000E+000	-1.66616E-005	-5.99601E-002	1.69189E-001	3.57800E+000	9	...........
	57	0.773333	1.57228E-001	-9.91406E-005	0.00000E+000	-1.55877E-005	-5.99601E-002	1.57250E-001	3.57800E+000	9	...........
	58	0.786667	1.45308E-001	-9.87728E-005	0.00000E+000	-1.43525E-005	-5.99601E-002	1.45327E-001	3.57800E+000	9	...........
	59	0.8	1.33414E-001	-9.82748E-005	0.00000E+000	-1.31112E-005	-5.99601E-002	1.33443E-001	3.57800E+000	9	...........
	60	0.813333	1.21557E-001	-9.94021E-005	0.00000E+000	-1.20830E-005	-5.99601E-002	1.21578E-001	3.57800E+000	9	...........
	61	0.826667	1.09736E-001	-9.92114E-005	0.00000E+000	-1.08871E-005	-5.99601E-002	1.09758E-001	3.57800E+000	9	...........
	62	0.84	9.79700E-002	-9.84644E-005	0.00000E+000	-9.64656E-006	-5.99601E-002	9.79885E-002	3.57800E+000	9	...........
	63	0.853333	8.62593E-002	-9.85623E-005	0.00000E+000	-8.50192E-006	-5.99601E-002	8.62741E-002	3.57800E+000	9	...........
	64	0.866667	7.46299E-002	-9.92781E-005	0.00000E+000	-7.40911E-006	-5.99601E-002	7.46384E-002	3.57800E+000	9	...........
	65	0.88	6.30775E-002	-9.87395E-005	0.00000E+000	-6.22823E-006	-5.99601E-002	6.30821E-002	3.57800E+000	9	...........
	66	0.893333	5.16161E-002	-9.85644E-005	0.00000E+000	-5.08751E-006	-5.99601E-002	5.16280E-002	3.57800E+000	9	...........
	67	0.906667	4.03055E-002	-9.88697E-005	0.00000E+000	-3.98499E-006	-5.99601E-002	4.03038E-002	3.57800E+000	9	...........
	68	0.92	2.90786E-002	-9.88072E-005	0.00000E+000	-2.87317E-006	-5.99601E-002	2.90752E-002	3.57800E+000	9	...........
	69	0.933333	1.79791E-002	-9.87790E-005	0.00000E+000	-1.77596E-006	-5.99601E-002	1.79670E-002	3.57800E+000	9	...........
	70	0.946667	7.02319E-003	-9.88509E-005	0.00000E+000	-6.94249E-007	-5.99601E-002	7.00415E-003	3.57800E+000	9	...........
	71	0.95	2.49941E-004	-9.92646E-005	0.00000E+000	-2.48103E-008	-5.99601E-002	2.21749E-004	3.57800E+000	9	...........
STARTTIMEOFFSET	QUANT	209.4316	Start Time Offset (s)
