EXPLAIN
TAG	PWR800_DISCHARGE
TITLE	LABEL	PWR Cyclic Charge Discharge (Cell) - Discharge Step	Test &Identifier
DATE	LABEL	12-7-2017	Date
TIME	LABEL	16:17:04	Time
NOTES	NOTES	2	&Notes...
	supercap test cell
	6M KOH
PSTAT	PSTAT	IFC5000-01520	Potentiostat
CAPACITY	QUANT	1.00000E-003	Capacity (A-hr)
CELLTYPE	SELECTOR	1	&Cell Type
WORKINGCONNECTION	SELECTOR	0	&Working Lead
MAXDISCHARGETIME	VARIABLEANDUNITS	1.00000E+002	s	1.00000E+002	second(s)	Max &Discharge Time
DISCHARGEMODE	MULTIPARAM	0	1.00000E-004	&Discharge Mode	Constant Current	Amp(s)
SAMPLETIME	QUANT	1.00000E-002	Sa&mple Period (s)
DISCHARGESTOPAT1	MULTIPARAM	3	0.00000E+000	Discharge Stop At &1	Voltage < Limit	V
DISCHARGESTOPAT2	MULTIPARAM	0	0.00000E+000	Discharge Stop At &2	None	N/A
AESBHCSELECTOR	TOGGLE	F	Save Both Half Cells
IRCOMP	TOGGLE	F	IR &Measure
EOC	QUANT	0	Open Circuit (V)
SEQUENCER	TOGGLE	TRUE	Run as Sequence
PSTATMODEL	IQUANT	53	Pstat Model
PSTATSECTION	LABEL	IFC5000-01520	Pstat Section
PSTATSERIALNO	LABEL	01520	Pstat Serial Number
CTRLMODE	IQUANT	0	Control Mode
ELECTROMETER	IQUANT	1	RE=0 or CS=1
IESTAB	IQUANT	0	I/E Stability
CASPEED	IQUANT	4	Control Amp Speed
CONVENTION	IQUANT	1	Current Convention
ICHRANGE	IQUANT	2	Ich Range
ICHRANGEMODE	TOGGLE	T	Ich Auto Range
ICHOFFSETENABLE	TOGGLE	F	Ich Offset Enable
ICHOFFSET	QUANT	0	Ich Offset (V)
ICHFILTER	IQUANT	1	Ich Filter
VCHRANGE	IQUANT	2	Vch Range
VCHRANGEMODE	TOGGLE	T	Vch Auto Range
VCHOFFSETENABLE	TOGGLE	F	Vch Offset Enable
VCHOFFSET	QUANT	0	Vch Offset (V)
VCHFILTER	IQUANT	1	Vch Filter
IERANGELOWERLIMIT	IQUANT	9	I/E Range Lower Limit
IERANGEMODE	TOGGLE	F	I/E AutoRange
IERANGE	IQUANT	9	I/E Range
ACHSELECT	IQUANT	1	Ach Select
ACHRANGE	IQUANT	2	Ach Range
ACHOFFSETENABLE	TOGGLE	F	Ach Offset Enable
ACHOFFSET	QUANT	0	Ach Offset (V)
ACHFILTER	IQUANT	1	Ach Filter
CABLEID	IQUANT	14	Cable ID
DCCALDATE	LABEL	5-7-2017	DC Calibration Date
ACCALDATE	LABEL	12/3/2015	AC Calibration Date
FRAMEWORKVERSION	QUANT	7.01	Framework Version
INSTRUMENTVERSION	LABEL	4.00	Instrument Version
CURVE	TABLE	72
	Pt	T	Vf	Im	Vu	Pwr	Sig	Ach	Temp	IERange	Over
	#	s	V	A	V	W	V	V	deg C	#	bits
	0	0.013333	8.44043E-001	-9.94000E-005	0.00000E+000	-8.38979E-005	-5.99601E-002	8.44377E-001	3.57760E+000	9	...........
	1	0.026667	8.31114E-001	-9.86780E-005	0.00000E+000	-8.20126E-005	-5.99601E-002	8.31438E-001	3.57760E+000	9	...........
	2	0.04	8.18779E-001	-9.96251E-005	0.00000E+000	-8.15709E-005	-5.99601E-002	8.19103E-001	3.57760E+000	9	...........
	3	0.053333	8.06832E-001	-9.88895E-005	0.00000E+000	-7.97872E-005	-5.99601E-002	8.07138E-001	3.57760E+000	9	...........
	4	0.066667	7.95147E-001	-9.89457E-005	0.00000E+000	-7.86764E-005	-5.99601E-002	7.95430E-001	3.57760E+000	9	...........
	5	0.08	7.83645E-001	-9.80643E-005	0.00000E+000	-7.68476E-005	-5.99601E-002	7.83921E-001	3.57760E+000	9	...........
	6	0.093333	7.72338E-001	-9.88384E-005	0.00000E+000	-7.63367E-005	-5.99601E-002	7.72617E-001	3.57760E+000	9	...........
	7	0.106667	7.61162E-001	-9.88905E-005	0.00000E+000	-7.52717E-005	-5.99601E-002	7.61431E-001	3.57760E+000	9	...........
	8	0.12	7.50089E-001	-9.91343E-005	0.00000E+000	-7.43595E-005	-5.99601E-002	7.50345E-001	3.57760E+000	9	...........
	9	0.133333	7.39106E-001	-9.81570E-005	0.00000E+000	-7.25484E-005	-5.99601E-002	7.39345E-001	3.57760E+000	9	...........
	10	0.146667	7.28177E-001	-9.87718E-005	0.00000E+000	-7.19233E-005	-5.99601E-002	7.28428E-001	3.57760E+000	9	...........
	11	0.16	7.17239E-001	-9.89395E-005	0.00000E+000	-7.09633E-005	-5.99601E-002	7.17484E-001	3.57760E+000	9	...........
	12	0.173333	7.06281E-001	-9.97761E-005	0.00000E+000	-7.04700E-005	-5.99601E-002	7.06518E-001	3.57760E+000	9	...........
	13	0.186667	6.95223E-001	-9.92854E-005	0.00000E+000	-6.90255E-005	-5.99601E-002	6.95492E-001	3.57760E+000	9	...........
	14	0.2	6.84067E-001	-9.92125E-005	0.00000E+000	-6.78680E-005	-5.99601E-002	6.84355E-001	3.57760E+000	9	...........
	15	0.213333	6.72820E-001	-9.82946E-005	0.00000E+000	-6.61346E-005	-5.99601E-002	6.73068E-001	3.57760E+000	9	...........
	16	0.226667	6.61387E-001	-9.87561E-005	0.00000E+000	-6.53160E-005	-5.99601E-002	6.61638E-001	3.57760E+000	9	...........
	17	0.24	6.49822E-001	-9.92469E-005	0.00000E+000	-6.44927E-005	-5.99601E-002	6.50082E-001	3.57760E+000	9	...........
	18	0.253333	6.38122E-001	-9.78059E-005	0.00000E+000	-6.24121E-005	-5.99601E-002	6.38413E-001	3.57760E+000	9	...........
	19	0.266667	6.26353E-001	-9.91750E-005	0.00000E+000	-6.21185E-005	-5.99601E-002	6.26614E-001	3.57760E+000	9	...........
	20	0.28	6.14426E-001	-9.88426E-005	0.00000E+000	-6.07315E-005	-5.99601E-002	6.14696E-001	3.57760E+000	9	...........
	21	0.293333	6.02425E-001	-9.96376E-005	0.00000E+000	-6.00242E-005	-5.99601E-002	6.02718E-001	3.57760E+000	9	...........
	22	0.306667	5.90357E-001	-9.88614E-005	0.00000E+000	-5.83635E-005	-5.99601E-002	5.90638E-001	3.57760E+000	9	...........
	23	0.32	5.78186E-001	-9.84384E-005	0.00000E+000	-5.69157E-005	-5.99601E-002	5.78448E-001	3.57760E+000	9	...........
	24	0.333333	5.65976E-001	-9.90937E-005	0.00000E+000	-5.60846E-005	-5.99601E-002	5.66237E-001	3.57760E+000	9	...........
	25	0.346667	5.53705E-001	-9.92062E-005	0.00000E+000	-5.49310E-005	-5.99601E-002	5.53937E-001	3.57760E+000	9	...........
	26	0.36	5.41405E-001	-9.92302E-005	0.00000E+000	-5.37237E-005	-5.99601E-002	5.41632E-001	3.57760E+000	9	...........
	27	0.373333	5.29066E-001	-9.77028E-005	0.00000E+000	-5.16912E-005	-5.99601E-002	5.29271E-001	3.57760E+000	9	...........
	28	0.386667	5.16689E-001	-9.86467E-005	0.00000E+000	-5.09696E-005	-5.99601E-002	5.16900E-001	3.57760E+000	9	...........
	29	0.4	5.04254E-001	-9.95615E-005	0.00000E+000	-5.02043E-005	-5.99601E-002	5.04506E-001	3.57760E+000	9	...........
	30	0.413333	4.91866E-001	-9.84967E-005	0.00000E+000	-4.84471E-005	-5.99601E-002	4.92108E-001	3.57760E+000	9	...........
	31	0.426667	4.79737E-001	-9.83144E-005	0.00000E+000	-4.71650E-005	-5.99601E-002	4.79872E-001	3.57760E+000	9	...........
	32	0.44	4.67373E-001	-9.84206E-005	0.00000E+000	-4.59992E-005	-5.99601E-002	4.67476E-001	3.57760E+000	9	...........
	33	0.453333	4.54959E-001	-9.78195E-005	0.00000E+000	-4.45039E-005	-5.99601E-002	4.55064E-001	3.57760E+000	9	...........
	34	0.466667	4.42567E-001	-9.90447E-005	0.00000E+000	-4.38340E-005	-5.99601E-002	4.42663E-001	3.57760E+000	9	...........
	35	0.48	4.30185E-001	-9.85144E-005	0.00000E+000	-4.23794E-005	-5.99601E-002	4.30277E-001	3.57760E+000	9	...........
	36	0.493333	4.17803E-001	-9.90749E-005	0.00000E+000	-4.13938E-005	-5.99601E-002	4.17897E-001	3.57760E+000	9	...........
	37	0.506667	4.05449E-001	-9.89530E-005	0.00000E+000	-4.01204E-005	-5.99601E-002	4.05536E-001	3.57760E+000	9	...........
	38	0.52	3.93121E-001	-9.89416E-005	0.00000E+000	-3.88960E-005	-5.99601E-002	3.93198E-001	3.57760E+000	9	...........
	39	0.533333	3.80808E-001	-9.85832E-005	0.00000E+000	-3.75412E-005	-5.99601E-002	3.80888E-001	3.57760E+000	9	...........
	40	0.546667	3.68520E-001	-9.85332E-005	0.00000E+000	-3.63115E-005	-5.99601E-002	3.68593E-001	3.57760E+000	9	...........
	41	0.56	3.56259E-001	-9.82446E-005	0.00000E+000	-3.50005E-005	-5.99601E-002	3.56327E-001	3.57760E+000	9	...........
	42	0.573333	3.44008E-001	-9.87884E-005	0.00000E+000	-3.39841E-005	-5.99601E-002	3.44084E-001	3.57760E+000	9	...........
	43	0.586667	3.31787E-001	-9.83706E-005	0.00000E+000	-3.26381E-005	-5.99601E-002	3.31859E-001	3.57760E+000	9	...........
	44	0.6	3.19587E-001	-9.81279E-005	0.00000E+000	-3.13603E-005	-5.99601E-002	3.19651E-001	3.57760E+000	9	...........
	45	0.613333	3.07398E-001	-9.97147E-005	0.00000E+000	-3.06520E-005	-5.99601E-002	3.07465E-001	3.57760E+000	9	...........
	46	0.626667	2.95222E-001	-9.90031E-005	0.00000E+000	-2.92279E-005	-5.99601E-002	2.95287E-001	3.57760E+000	9	...........
	47	0.64	2.83058E-001	-9.87478E-005	0.00000E+000	-2.79514E-005	-5.99601E-002	2.83122E-001	3.57760E+000	9	...........
	48	0.653333	2.70904E-001	-9.80028E-005	0.00000E+000	-2.65494E-005	-5.99601E-002	2.70962E-001	3.57760E+000	9	...........
	49	0.666667	2.58748E-001	-9.91218E-005	0.00000E+000	-2.56476E-005	-5.99601E-002	2.58809E-001	3.57760E+000	9	...........
	50	0.68	2.46586E-001	-9.86353E-005	0.00000E+000	-2.43221E-005	-5.99601E-002	2.46641E-001	3.57760E+000	9	...........
	51	0.693333	2.34439E-001	-9.80081E-005	0.00000E+000	-2.29769E-005	-5.99601E-002	2.34486E-001	3.57805E+000	9	...........
	52	0.706667	2.22278E-001	-9.90114E-005	0.00000E+000	-2.20080E-005	-5.99601E-002	2.22329E-001	3.57850E+000	9	...........
	53	0.72	2.10139E-001	-9.88895E-005	0.00000E+000	-2.07806E-005	-5.99601E-002	2.10185E-001	3.57850E+000	9	...........
	54	0.733333	1.98002E-001	-9.88374E-005	0.00000E+000	-1.95700E-005	-5.99601E-002	1.98046E-001	3.57850E+000	9	...........
	55	0.746667	1.85877E-001	-9.81737E-005	0.00000E+000	-1.82483E-005	-5.99601E-002	1.85918E-001	3.57850E+000	9	...........
	56	0.76	1.73768E-001	-9.82102E-005	0.00000E+000	-1.70658E-005	-5.99601E-002	1.73807E-001	3.57850E+000	9	...........
	57	0.773333	1.61683E-001	-9.83290E-005	0.00000E+000	-1.58981E-005	-5.99601E-002	1.61714E-001	3.57850E+000	9	...........
	58	0.786667	1.49621E-001	-9.83967E-005	0.00000E+000	-1.47222E-005	-5.99601E-002	1.49650E-001	3.57850E+000	9	...........
	59	0.8	1.37591E-001	-9.89791E-005	0.00000E+000	-1.36187E-005	-5.99601E-002	1.37617E-001	3.57850E+000	9	...........
	60	0.813333	1.25598E-001	-9.86999E-005	0.00000E+000	-1.23965E-005	-5.99601E-002	1.25622E-001	3.57850E+000	9	...........
	61	0.826667	1.13644E-001	-9.89062E-005	0.00000E+000	-1.12401E-005	-5.99601E-002	1.13667E-001	3.57850E+000	9	...........
	62	0.84	1.01745E-001	-9.85842E-005	0.00000E+000	-1.00305E-005	-5.99601E-002	1.01765E-001	3.57850E+000	9	...........
	63	0.853333	8.99017E-002	-9.83883E-005	0.00000E+000	-8.84528E-006	-5.99601E-002	8.99253E-002	3.57850E+000	9	...........
	64	0.866667	7.81376E-002	-9.91312E-005	0.00000E+000	-7.74588E-006	-5.99601E-002	7.81522E-002	3.57850E+000	9	...........
	65	0.88	6.64487E-002	-9.86373E-005	0.00000E+000	-6.55433E-006	-5.99601E-002	6.64592E-002	3.57850E+000	9	...........
	66	0.893333	5.48460E-002	-9.82623E-005	0.00000E+000	-5.38930E-006	-5.99601E-002	5.48582E-002	3.57850E+000	9	...........
	67	0.906667	4.33938E-002	-9.87874E-005	0.00000E+000	-4.28676E-006	-5.99601E-002	4.33977E-002	3.57850E+000	9	...........
	68	0.92	3.20239E-002	-9.86780E-005	0.00000E+000	-3.16005E-006	-5.99601E-002	3.20217E-002	3.57850E+000	9	...........
	69	0.933333	2.07770E-002	-9.87228E-005	0.00000E+000	-2.05116E-006	-5.99601E-002	2.07688E-002	3.57850E+000	9	...........
	70	0.946667	9.67557E-003	-9.90843E-005	0.00000E+000	-9.58697E-007	-5.99601E-002	9.65988E-003	3.57850E+000	9	...........
	71	0.95333	1.44153E-003	-9.84998E-005	0.00000E+000	-1.41990E-007	-5.99601E-002	1.41854E-003	3.57850E+000	9	...........
STARTTIMEOFFSET	QUANT	299.9083	Start Time Offset (s)
