EXPLAIN
TAG	PWR800_DISCHARGE
TITLE	LABEL	PWR Cyclic Charge Discharge (Cell) - Discharge Step	Test &Identifier
DATE	LABEL	12-7-2017	Date
TIME	LABEL	16:47:50	Time
NOTES	NOTES	2	&Notes...
	supercap test cell
	6M KOH
PSTAT	PSTAT	IFC5000-01520	Potentiostat
CAPACITY	QUANT	1.00000E-003	Capacity (A-hr)
CELLTYPE	SELECTOR	1	&Cell Type
WORKINGCONNECTION	SELECTOR	0	&Working Lead
MAXDISCHARGETIME	VARIABLEANDUNITS	1.00000E+002	s	1.00000E+002	second(s)	Max &Discharge Time
DISCHARGEMODE	MULTIPARAM	0	1.00000E-004	&Discharge Mode	Constant Current	Amp(s)
SAMPLETIME	QUANT	1.00000E-002	Sa&mple Period (s)
DISCHARGESTOPAT1	MULTIPARAM	3	0.00000E+000	Discharge Stop At &1	Voltage < Limit	V
DISCHARGESTOPAT2	MULTIPARAM	0	0.00000E+000	Discharge Stop At &2	None	N/A
AESBHCSELECTOR	TOGGLE	F	Save Both Half Cells
IRCOMP	TOGGLE	F	IR &Measure
EOC	QUANT	0	Open Circuit (V)
SEQUENCER	TOGGLE	TRUE	Run as Sequence
PSTATMODEL	IQUANT	53	Pstat Model
PSTATSECTION	LABEL	IFC5000-01520	Pstat Section
PSTATSERIALNO	LABEL	01520	Pstat Serial Number
CTRLMODE	IQUANT	0	Control Mode
ELECTROMETER	IQUANT	1	RE=0 or CS=1
IESTAB	IQUANT	0	I/E Stability
CASPEED	IQUANT	4	Control Amp Speed
CONVENTION	IQUANT	1	Current Convention
ICHRANGE	IQUANT	2	Ich Range
ICHRANGEMODE	TOGGLE	T	Ich Auto Range
ICHOFFSETENABLE	TOGGLE	F	Ich Offset Enable
ICHOFFSET	QUANT	0	Ich Offset (V)
ICHFILTER	IQUANT	1	Ich Filter
VCHRANGE	IQUANT	2	Vch Range
VCHRANGEMODE	TOGGLE	T	Vch Auto Range
VCHOFFSETENABLE	TOGGLE	F	Vch Offset Enable
VCHOFFSET	QUANT	0	Vch Offset (V)
VCHFILTER	IQUANT	1	Vch Filter
IERANGELOWERLIMIT	IQUANT	9	I/E Range Lower Limit
IERANGEMODE	TOGGLE	F	I/E AutoRange
IERANGE	IQUANT	9	I/E Range
ACHSELECT	IQUANT	1	Ach Select
ACHRANGE	IQUANT	2	Ach Range
ACHOFFSETENABLE	TOGGLE	F	Ach Offset Enable
ACHOFFSET	QUANT	0	Ach Offset (V)
ACHFILTER	IQUANT	1	Ach Filter
CABLEID	IQUANT	14	Cable ID
DCCALDATE	LABEL	5-7-2017	DC Calibration Date
ACCALDATE	LABEL	12/3/2015	AC Calibration Date
FRAMEWORKVERSION	QUANT	7.01	Framework Version
INSTRUMENTVERSION	LABEL	4.00	Instrument Version
CURVE	TABLE	70
	Pt	T	Vf	Im	Vu	Pwr	Sig	Ach	Temp	IERange	Over
	#	s	V	A	V	W	V	V	deg C	#	bits
	0	0.013333	8.44636E-001	-9.85488E-005	0.00000E+000	-8.32379E-005	-5.99601E-002	8.44958E-001	3.57650E+000	9	...........
	1	0.026667	8.31468E-001	-9.85196E-005	0.00000E+000	-8.19159E-005	-5.99601E-002	8.31762E-001	3.57650E+000	9	...........
	2	0.04	8.18875E-001	-9.95625E-005	0.00000E+000	-8.15293E-005	-5.99601E-002	8.19188E-001	3.57650E+000	9	...........
	3	0.053333	8.06675E-001	-9.83269E-005	0.00000E+000	-7.93178E-005	-5.99601E-002	8.06962E-001	3.57650E+000	9	...........
	4	0.066667	7.94739E-001	-9.92896E-005	0.00000E+000	-7.89093E-005	-5.99601E-002	7.95003E-001	3.57650E+000	9	...........
	5	0.08	7.82978E-001	-9.85832E-005	0.00000E+000	-7.71885E-005	-5.99601E-002	7.83254E-001	3.57650E+000	9	...........
	6	0.093333	7.71355E-001	-9.81112E-005	0.00000E+000	-7.56786E-005	-5.99601E-002	7.71637E-001	3.57650E+000	9	...........
	7	0.106667	7.59876E-001	-9.90666E-005	0.00000E+000	-7.52783E-005	-5.99601E-002	7.60142E-001	3.57650E+000	9	...........
	8	0.12	7.48501E-001	-9.77465E-005	0.00000E+000	-7.31633E-005	-5.99601E-002	7.48784E-001	3.57650E+000	9	...........
	9	0.133333	7.37221E-001	-9.81977E-005	0.00000E+000	-7.23934E-005	-5.99601E-002	7.37480E-001	3.57650E+000	9	...........
	10	0.146667	7.26032E-001	-9.88416E-005	0.00000E+000	-7.17622E-005	-5.99601E-002	7.26295E-001	3.57650E+000	9	...........
	11	0.16	7.14926E-001	-9.87217E-005	0.00000E+000	-7.05787E-005	-5.99601E-002	7.15199E-001	3.57650E+000	9	...........
	12	0.173333	7.03900E-001	-9.90291E-005	0.00000E+000	-6.97066E-005	-5.99601E-002	7.04158E-001	3.57650E+000	9	...........
	13	0.186667	6.92981E-001	-9.91625E-005	0.00000E+000	-6.87177E-005	-5.99601E-002	6.93208E-001	3.57650E+000	9	...........
	14	0.2	6.82121E-001	-9.92458E-005	0.00000E+000	-6.76977E-005	-5.99601E-002	6.82329E-001	3.57650E+000	9	...........
	15	0.213333	6.71326E-001	-9.98814E-005	0.00000E+000	-6.70529E-005	-5.99601E-002	6.71529E-001	3.57650E+000	9	...........
	16	0.226667	6.60556E-001	-9.87478E-005	0.00000E+000	-6.52284E-005	-5.99601E-002	6.60753E-001	3.57650E+000	9	...........
	17	0.24	6.49834E-001	-9.80008E-005	0.00000E+000	-6.36842E-005	-5.99601E-002	6.50004E-001	3.57650E+000	9	...........
	18	0.253333	6.39078E-001	-9.77059E-005	0.00000E+000	-6.24417E-005	-5.99601E-002	6.39246E-001	3.57650E+000	9	...........
	19	0.266667	6.28207E-001	-9.86415E-005	0.00000E+000	-6.19673E-005	-5.99601E-002	6.28406E-001	3.57650E+000	9	...........
	20	0.28	6.17251E-001	-9.93240E-005	0.00000E+000	-6.13078E-005	-5.99601E-002	6.17422E-001	3.57650E+000	9	...........
	21	0.293333	6.06059E-001	-9.94292E-005	0.00000E+000	-6.02600E-005	-5.99601E-002	6.06263E-001	3.57650E+000	9	...........
	22	0.306667	5.94741E-001	-9.93469E-005	0.00000E+000	-5.90857E-005	-5.99601E-002	5.94921E-001	3.57650E+000	9	...........
	23	0.32	5.83189E-001	-9.74559E-005	0.00000E+000	-5.68352E-005	-5.99601E-002	5.83360E-001	3.57650E+000	9	...........
	24	0.333333	5.71448E-001	-9.93052E-005	0.00000E+000	-5.67477E-005	-5.99601E-002	5.71621E-001	3.57650E+000	9	...........
	25	0.346667	5.59448E-001	-9.78028E-005	0.00000E+000	-5.47156E-005	-5.99601E-002	5.59651E-001	3.57650E+000	9	...........
	26	0.36	5.47272E-001	-9.76569E-005	0.00000E+000	-5.34450E-005	-5.99601E-002	5.47489E-001	3.57650E+000	9	...........
	27	0.373333	5.34915E-001	-9.91166E-005	0.00000E+000	-5.30190E-005	-5.99601E-002	5.35144E-001	3.57650E+000	9	...........
	28	0.386667	5.22398E-001	-9.95969E-005	0.00000E+000	-5.20293E-005	-5.99601E-002	5.22612E-001	3.57650E+000	9	...........
	29	0.4	5.09697E-001	-9.97199E-005	0.00000E+000	-5.08269E-005	-5.99601E-002	5.09943E-001	3.57650E+000	9	...........
	30	0.413333	4.96888E-001	-9.71704E-005	0.00000E+000	-4.82828E-005	-5.99601E-002	4.97119E-001	3.57650E+000	9	...........
	31	0.426667	4.84089E-001	-9.85134E-005	0.00000E+000	-4.76892E-005	-5.99601E-002	4.84262E-001	3.57650E+000	9	...........
	32	0.44	4.71189E-001	-9.84279E-005	0.00000E+000	-4.63781E-005	-5.99601E-002	4.71292E-001	3.57650E+000	9	...........
	33	0.453333	4.58059E-001	-9.89405E-005	0.00000E+000	-4.53206E-005	-5.99601E-002	4.58154E-001	3.57650E+000	9	...........
	34	0.466667	4.44841E-001	-9.81279E-005	0.00000E+000	-4.36513E-005	-5.99601E-002	4.44939E-001	3.57650E+000	9	...........
	35	0.48	4.31567E-001	-9.74486E-005	0.00000E+000	-4.20556E-005	-5.99601E-002	4.31652E-001	3.57650E+000	9	...........
	36	0.493333	4.18221E-001	-1.00261E-004	0.00000E+000	-4.19311E-005	-5.99601E-002	4.18312E-001	3.57650E+000	9	...........
	37	0.506667	4.04853E-001	-9.90801E-005	0.00000E+000	-4.01129E-005	-5.99601E-002	4.04941E-001	3.57650E+000	9	...........
	38	0.52	3.91460E-001	-9.81383E-005	0.00000E+000	-3.84172E-005	-5.99601E-002	3.91537E-001	3.57650E+000	9	...........
	39	0.533333	3.78038E-001	-9.97949E-005	0.00000E+000	-3.77263E-005	-5.99601E-002	3.78115E-001	3.57650E+000	9	...........
	40	0.546667	3.64626E-001	-9.98564E-005	0.00000E+000	-3.64102E-005	-5.99601E-002	3.64704E-001	3.57650E+000	9	...........
	41	0.56	3.51227E-001	-9.77580E-005	0.00000E+000	-3.43352E-005	-5.99601E-002	3.51295E-001	3.57650E+000	9	...........
	42	0.573333	3.37841E-001	-9.87968E-005	0.00000E+000	-3.33776E-005	-5.99601E-002	3.37905E-001	3.57650E+000	9	...........
	43	0.586667	3.24480E-001	-9.87478E-005	0.00000E+000	-3.20417E-005	-5.99601E-002	3.24545E-001	3.57650E+000	9	...........
	44	0.6	3.11166E-001	-9.99168E-005	0.00000E+000	-3.10907E-005	-5.99601E-002	3.11229E-001	3.57650E+000	9	...........
	45	0.613333	2.97895E-001	-9.85884E-005	0.00000E+000	-2.93690E-005	-5.99601E-002	2.97954E-001	3.57650E+000	9	...........
	46	0.626667	2.84676E-001	-9.65755E-005	0.00000E+000	-2.74927E-005	-5.99601E-002	2.84731E-001	3.57650E+000	9	...........
	47	0.64	2.71511E-001	-9.79643E-005	0.00000E+000	-2.65984E-005	-5.99601E-002	2.71568E-001	3.57650E+000	9	...........
	48	0.653333	2.58425E-001	-9.84102E-005	0.00000E+000	-2.54317E-005	-5.99601E-002	2.58475E-001	3.57650E+000	9	...........
	49	0.666667	2.45403E-001	-9.80174E-005	0.00000E+000	-2.40537E-005	-5.99601E-002	2.45452E-001	3.57650E+000	9	...........
	50	0.68	2.32454E-001	-9.93229E-005	0.00000E+000	-2.30880E-005	-5.99601E-002	2.32499E-001	3.57650E+000	9	...........
	51	0.693333	2.19568E-001	-9.90718E-005	0.00000E+000	-2.17530E-005	-5.99601E-002	2.19614E-001	3.57650E+000	9	...........
	52	0.706667	2.06760E-001	-9.78007E-005	0.00000E+000	-2.02212E-005	-5.99601E-002	2.06798E-001	3.57650E+000	9	...........
	53	0.72	1.94025E-001	-9.88812E-005	0.00000E+000	-1.91854E-005	-5.99601E-002	1.94066E-001	3.57650E+000	9	...........
	54	0.733333	1.81364E-001	-9.92406E-005	0.00000E+000	-1.79986E-005	-5.99601E-002	1.81405E-001	3.57650E+000	9	...........
	55	0.746667	1.68785E-001	-9.96115E-005	0.00000E+000	-1.68129E-005	-5.99601E-002	1.68818E-001	3.57650E+000	9	...........
	56	0.76	1.56267E-001	-9.90489E-005	0.00000E+000	-1.54780E-005	-5.99601E-002	1.56299E-001	3.57650E+000	9	...........
	57	0.773333	1.43830E-001	-9.85811E-005	0.00000E+000	-1.41789E-005	-5.99601E-002	1.43866E-001	3.57650E+000	9	...........
	58	0.786667	1.31473E-001	-9.88395E-005	0.00000E+000	-1.29947E-005	-5.99601E-002	1.31495E-001	3.57650E+000	9	...........
	59	0.8	1.19182E-001	-9.97157E-005	0.00000E+000	-1.18843E-005	-5.99601E-002	1.19210E-001	3.57650E+000	9	...........
	60	0.813333	1.06986E-001	-9.81466E-005	0.00000E+000	-1.05003E-005	-5.99601E-002	1.07011E-001	3.57650E+000	9	...........
	61	0.826667	9.48724E-002	-9.85478E-005	0.00000E+000	-9.34946E-006	-5.99601E-002	9.48961E-002	3.57650E+000	9	...........
	62	0.84	8.28769E-002	-9.92771E-005	0.00000E+000	-8.22778E-006	-5.99601E-002	8.28906E-002	3.57650E+000	9	...........
	63	0.853333	7.09923E-002	-1.00334E-004	0.00000E+000	-7.12291E-006	-5.99601E-002	7.10027E-002	3.57650E+000	9	...........
	64	0.866667	5.92287E-002	-9.82425E-005	0.00000E+000	-5.81878E-006	-5.99601E-002	5.92372E-002	3.57650E+000	9	...........
	65	0.88	4.76065E-002	-9.96365E-005	0.00000E+000	-4.74335E-006	-5.99601E-002	4.76178E-002	3.57650E+000	9	...........
	66	0.893333	3.61392E-002	-9.88218E-005	0.00000E+000	-3.57134E-006	-5.99601E-002	3.61427E-002	3.57650E+000	9	...........
	67	0.906667	2.48081E-002	-9.84519E-005	0.00000E+000	-2.44240E-006	-5.99601E-002	2.48051E-002	3.57650E+000	9	...........
	68	0.92	1.36350E-002	-1.00014E-004	0.00000E+000	-1.36369E-006	-5.99601E-002	1.36240E-002	3.57650E+000	9	...........
	69	0.931667	3.31362E-003	-1.00036E-004	0.00000E+000	-3.31480E-007	-5.99601E-002	3.29985E-003	3.57650E+000	9	...........
STARTTIMEOFFSET	QUANT	1611.3	Start Time Offset (s)
