EXPLAIN
TAG	PWR800_DISCHARGE
TITLE	LABEL	PWR Cyclic Charge Discharge (Cell) - Discharge Step	Test &Identifier
DATE	LABEL	12-7-2017	Date
TIME	LABEL	16:55:52	Time
NOTES	NOTES	2	&Notes...
	supercap test cell
	6M KOH
PSTAT	PSTAT	IFC5000-01520	Potentiostat
CAPACITY	QUANT	1.00000E-003	Capacity (A-hr)
CELLTYPE	SELECTOR	1	&Cell Type
WORKINGCONNECTION	SELECTOR	0	&Working Lead
MAXDISCHARGETIME	VARIABLEANDUNITS	1.00000E+002	s	1.00000E+002	second(s)	Max &Discharge Time
DISCHARGEMODE	MULTIPARAM	0	1.00000E-004	&Discharge Mode	Constant Current	Amp(s)
SAMPLETIME	QUANT	1.00000E-002	Sa&mple Period (s)
DISCHARGESTOPAT1	MULTIPARAM	3	0.00000E+000	Discharge Stop At &1	Voltage < Limit	V
DISCHARGESTOPAT2	MULTIPARAM	0	0.00000E+000	Discharge Stop At &2	None	N/A
AESBHCSELECTOR	TOGGLE	F	Save Both Half Cells
IRCOMP	TOGGLE	F	IR &Measure
EOC	QUANT	0	Open Circuit (V)
SEQUENCER	TOGGLE	TRUE	Run as Sequence
PSTATMODEL	IQUANT	53	Pstat Model
PSTATSECTION	LABEL	IFC5000-01520	Pstat Section
PSTATSERIALNO	LABEL	01520	Pstat Serial Number
CTRLMODE	IQUANT	0	Control Mode
ELECTROMETER	IQUANT	1	RE=0 or CS=1
IESTAB	IQUANT	0	I/E Stability
CASPEED	IQUANT	4	Control Amp Speed
CONVENTION	IQUANT	1	Current Convention
ICHRANGE	IQUANT	2	Ich Range
ICHRANGEMODE	TOGGLE	T	Ich Auto Range
ICHOFFSETENABLE	TOGGLE	F	Ich Offset Enable
ICHOFFSET	QUANT	0	Ich Offset (V)
ICHFILTER	IQUANT	1	Ich Filter
VCHRANGE	IQUANT	2	Vch Range
VCHRANGEMODE	TOGGLE	T	Vch Auto Range
VCHOFFSETENABLE	TOGGLE	F	Vch Offset Enable
VCHOFFSET	QUANT	0	Vch Offset (V)
VCHFILTER	IQUANT	1	Vch Filter
IERANGELOWERLIMIT	IQUANT	9	I/E Range Lower Limit
IERANGEMODE	TOGGLE	F	I/E AutoRange
IERANGE	IQUANT	9	I/E Range
ACHSELECT	IQUANT	1	Ach Select
ACHRANGE	IQUANT	2	Ach Range
ACHOFFSETENABLE	TOGGLE	F	Ach Offset Enable
ACHOFFSET	QUANT	0	Ach Offset (V)
ACHFILTER	IQUANT	1	Ach Filter
CABLEID	IQUANT	14	Cable ID
DCCALDATE	LABEL	5-7-2017	DC Calibration Date
ACCALDATE	LABEL	12/3/2015	AC Calibration Date
FRAMEWORKVERSION	QUANT	7.01	Framework Version
INSTRUMENTVERSION	LABEL	4.00	Instrument Version
CURVE	TABLE	70
	Pt	T	Vf	Im	Vu	Pwr	Sig	Ach	Temp	IERange	Over
	#	s	V	A	V	W	V	V	deg C	#	bits
	0	0.013333	8.44335E-001	-9.94563E-005	0.00000E+000	-8.39744E-005	-5.99601E-002	8.44592E-001	3.57680E+000	9	...........
	1	0.026667	8.31101E-001	-9.90228E-005	0.00000E+000	-8.22980E-005	-5.99601E-002	8.31346E-001	3.57680E+000	9	...........
	2	0.04	8.18448E-001	-9.83842E-005	0.00000E+000	-8.05223E-005	-5.99601E-002	8.18701E-001	3.57680E+000	9	...........
	3	0.053333	8.06173E-001	-9.95334E-005	0.00000E+000	-8.02411E-005	-5.99601E-002	8.06405E-001	3.57680E+000	9	...........
	4	0.066667	7.94171E-001	-9.91447E-005	0.00000E+000	-7.87379E-005	-5.99601E-002	7.94342E-001	3.57680E+000	9	...........
	5	0.08	7.82309E-001	-9.97438E-005	0.00000E+000	-7.80305E-005	-5.99601E-002	7.82504E-001	3.57680E+000	9	...........
	6	0.093333	7.70633E-001	-9.75819E-005	0.00000E+000	-7.51998E-005	-5.99601E-002	7.70806E-001	3.57680E+000	9	...........
	7	0.106667	7.59081E-001	-9.93667E-005	0.00000E+000	-7.54273E-005	-5.99601E-002	7.59239E-001	3.57680E+000	9	...........
	8	0.12	7.47610E-001	-9.93708E-005	0.00000E+000	-7.42907E-005	-5.99601E-002	7.47810E-001	3.57680E+000	9	...........
	9	0.133333	7.36221E-001	-9.84540E-005	0.00000E+000	-7.24839E-005	-5.99601E-002	7.36450E-001	3.57680E+000	9	...........
	10	0.146667	7.24981E-001	-9.90114E-005	0.00000E+000	-7.17813E-005	-5.99601E-002	7.25193E-001	3.57680E+000	9	...........
	11	0.16	7.13769E-001	-1.00292E-004	0.00000E+000	-7.15852E-005	-5.99601E-002	7.13975E-001	3.57680E+000	9	...........
	12	0.173333	7.02649E-001	-9.94573E-005	0.00000E+000	-6.98835E-005	-5.99601E-002	7.02875E-001	3.57680E+000	9	...........
	13	0.186667	6.91647E-001	-9.79351E-005	0.00000E+000	-6.77365E-005	-5.99601E-002	6.91874E-001	3.57680E+000	9	...........
	14	0.2	6.80694E-001	-9.76976E-005	0.00000E+000	-6.65022E-005	-5.99601E-002	6.80957E-001	3.57680E+000	9	...........
	15	0.213333	6.69823E-001	-9.81175E-005	0.00000E+000	-6.57213E-005	-5.99601E-002	6.70052E-001	3.57680E+000	9	...........
	16	0.226667	6.58986E-001	-1.00172E-004	0.00000E+000	-6.60120E-005	-5.99601E-002	6.59217E-001	3.57680E+000	9	...........
	17	0.24	6.48182E-001	-9.94406E-005	0.00000E+000	-6.44557E-005	-5.99601E-002	6.48432E-001	3.57680E+000	9	...........
	18	0.253333	6.37354E-001	-9.82133E-005	0.00000E+000	-6.25967E-005	-5.99601E-002	6.37589E-001	3.57680E+000	9	...........
	19	0.266667	6.26463E-001	-9.83613E-005	0.00000E+000	-6.16197E-005	-5.99601E-002	6.26693E-001	3.57680E+000	9	...........
	20	0.28	6.15433E-001	-9.90833E-005	0.00000E+000	-6.09791E-005	-5.99601E-002	6.15659E-001	3.57680E+000	9	...........
	21	0.293333	6.04208E-001	-9.80768E-005	0.00000E+000	-5.92588E-005	-5.99601E-002	6.04446E-001	3.57680E+000	9	...........
	22	0.306667	5.92834E-001	-9.82664E-005	0.00000E+000	-5.82557E-005	-5.99601E-002	5.93065E-001	3.57680E+000	9	...........
	23	0.32	5.81201E-001	-9.86436E-005	0.00000E+000	-5.73318E-005	-5.99601E-002	5.81440E-001	3.57680E+000	9	...........
	24	0.333333	5.69412E-001	-9.86884E-005	0.00000E+000	-5.61943E-005	-5.99601E-002	5.69617E-001	3.57680E+000	9	...........
	25	0.346667	5.57364E-001	-9.92698E-005	0.00000E+000	-5.53294E-005	-5.99601E-002	5.57567E-001	3.57680E+000	9	...........
	26	0.36	5.45125E-001	-9.93500E-005	0.00000E+000	-5.41582E-005	-5.99601E-002	5.45335E-001	3.57680E+000	9	...........
	27	0.373333	5.32691E-001	-9.81987E-005	0.00000E+000	-5.23096E-005	-5.99601E-002	5.32906E-001	3.57680E+000	9	...........
	28	0.386667	5.20080E-001	-9.76809E-005	0.00000E+000	-5.08019E-005	-5.99601E-002	5.20294E-001	3.57680E+000	9	...........
	29	0.4	5.07330E-001	-9.98855E-005	0.00000E+000	-5.06749E-005	-5.99601E-002	5.07559E-001	3.57680E+000	9	...........
	30	0.413333	4.94425E-001	-9.95876E-005	0.00000E+000	-4.92386E-005	-5.99601E-002	4.94639E-001	3.57680E+000	9	...........
	31	0.426667	4.81624E-001	-9.91896E-005	0.00000E+000	-4.77721E-005	-5.99601E-002	4.81725E-001	3.57680E+000	9	...........
	32	0.44	4.68565E-001	-9.84529E-005	0.00000E+000	-4.61316E-005	-5.99601E-002	4.68667E-001	3.57680E+000	9	...........
	33	0.453333	4.55337E-001	-9.80164E-005	0.00000E+000	-4.46305E-005	-5.99601E-002	4.55441E-001	3.57680E+000	9	...........
	34	0.466667	4.42030E-001	-9.81560E-005	0.00000E+000	-4.33879E-005	-5.99601E-002	4.42127E-001	3.57680E+000	9	...........
	35	0.48	4.28645E-001	-9.78101E-005	0.00000E+000	-4.19258E-005	-5.99601E-002	4.28742E-001	3.57680E+000	9	...........
	36	0.493333	4.15219E-001	-9.86728E-005	0.00000E+000	-4.09708E-005	-5.99601E-002	4.15310E-001	3.57680E+000	9	...........
	37	0.506667	4.01748E-001	-9.89301E-005	0.00000E+000	-3.97450E-005	-5.99601E-002	4.01830E-001	3.57680E+000	9	...........
	38	0.52	3.88253E-001	-9.85384E-005	0.00000E+000	-3.82579E-005	-5.99601E-002	3.88329E-001	3.57680E+000	9	...........
	39	0.533333	3.74745E-001	-9.86801E-005	0.00000E+000	-3.69798E-005	-5.99601E-002	3.74819E-001	3.57680E+000	9	...........
	40	0.546667	3.61235E-001	-9.77768E-005	0.00000E+000	-3.53204E-005	-5.99601E-002	3.61309E-001	3.57680E+000	9	...........
	41	0.56	3.47730E-001	-9.90291E-005	0.00000E+000	-3.44354E-005	-5.99601E-002	3.47801E-001	3.57680E+000	9	...........
	42	0.573333	3.34239E-001	-9.90218E-005	0.00000E+000	-3.30970E-005	-5.99601E-002	3.34308E-001	3.57680E+000	9	...........
	43	0.586667	3.20789E-001	-9.95438E-005	0.00000E+000	-3.19325E-005	-5.99601E-002	3.20863E-001	3.57680E+000	9	...........
	44	0.6	3.07390E-001	-9.97824E-005	0.00000E+000	-3.06721E-005	-5.99601E-002	3.07452E-001	3.57680E+000	9	...........
	45	0.613333	2.94029E-001	-9.86446E-005	0.00000E+000	-2.90044E-005	-5.99601E-002	2.94080E-001	3.57680E+000	9	...........
	46	0.626667	2.80714E-001	-9.90260E-005	0.00000E+000	-2.77980E-005	-5.99601E-002	2.80772E-001	3.57680E+000	9	...........
	47	0.64	2.67471E-001	-9.92583E-005	0.00000E+000	-2.65487E-005	-5.99601E-002	2.67528E-001	3.57680E+000	9	...........
	48	0.653333	2.54289E-001	-9.94542E-005	0.00000E+000	-2.52901E-005	-5.99601E-002	2.54348E-001	3.57680E+000	9	...........
	49	0.666667	2.41187E-001	-9.88041E-005	0.00000E+000	-2.38302E-005	-5.99601E-002	2.41234E-001	3.57680E+000	9	...........
	50	0.68	2.28150E-001	-9.87968E-005	0.00000E+000	-2.25405E-005	-5.99601E-002	2.28201E-001	3.57680E+000	9	...........
	51	0.693333	2.15191E-001	-9.92594E-005	0.00000E+000	-2.13597E-005	-5.99601E-002	2.15236E-001	3.57730E+000	9	...........
	52	0.706667	2.02298E-001	-9.90166E-005	0.00000E+000	-2.00309E-005	-5.99601E-002	2.02346E-001	3.57770E+000	9	...........
	53	0.72	1.89486E-001	-9.73715E-005	0.00000E+000	-1.84506E-005	-5.99601E-002	1.89527E-001	3.57770E+000	9	...........
	54	0.733333	1.76755E-001	-9.98220E-005	0.00000E+000	-1.76440E-005	-5.99601E-002	1.76794E-001	3.57770E+000	9	...........
	55	0.746667	1.64112E-001	-9.87603E-005	0.00000E+000	-1.62078E-005	-5.99601E-002	1.64149E-001	3.57770E+000	9	...........
	56	0.76	1.51550E-001	-9.88145E-005	0.00000E+000	-1.49753E-005	-5.99601E-002	1.51578E-001	3.57770E+000	9	...........
	57	0.773333	1.39055E-001	-9.75236E-005	0.00000E+000	-1.35611E-005	-5.99601E-002	1.39087E-001	3.57770E+000	9	...........
	58	0.786667	1.26649E-001	-9.75600E-005	0.00000E+000	-1.23559E-005	-5.99601E-002	1.26673E-001	3.57770E+000	9	...........
	59	0.8	1.14328E-001	-9.70214E-005	0.00000E+000	-1.10923E-005	-5.99601E-002	1.14352E-001	3.57770E+000	9	...........
	60	0.813333	1.02098E-001	-9.96563E-005	0.00000E+000	-1.01747E-005	-5.99601E-002	1.02118E-001	3.57770E+000	9	...........
	61	0.826667	8.99653E-002	-9.93094E-005	0.00000E+000	-8.93440E-006	-5.99601E-002	8.99797E-002	3.57770E+000	9	...........
	62	0.84	7.79466E-002	-9.93635E-005	0.00000E+000	-7.74505E-006	-5.99601E-002	7.79589E-002	3.57770E+000	9	...........
	63	0.853333	6.60497E-002	-9.82206E-005	0.00000E+000	-6.48744E-006	-5.99601E-002	6.60588E-002	3.57770E+000	9	...........
	64	0.866667	5.42797E-002	-1.00916E-004	0.00000E+000	-5.47768E-006	-5.99601E-002	5.42850E-002	3.57770E+000	9	...........
	65	0.88	4.26901E-002	-9.80445E-005	0.00000E+000	-4.18553E-006	-5.99601E-002	4.26960E-002	3.57770E+000	9	...........
	66	0.893333	3.12223E-002	-9.96063E-005	0.00000E+000	-3.10994E-006	-5.99601E-002	3.12194E-002	3.57770E+000	9	...........
	67	0.906667	1.99122E-002	-9.94073E-005	0.00000E+000	-1.97942E-006	-5.99601E-002	1.99033E-002	3.57770E+000	9	...........
	68	0.92	8.77479E-003	-1.00277E-004	0.00000E+000	-8.79912E-007	-5.99601E-002	8.76072E-003	3.57770E+000	9	...........
	69	0.925	1.21878E-003	-1.00249E-004	0.00000E+000	-1.22182E-007	-5.99601E-002	1.19595E-003	3.57770E+000	9	...........
STARTTIMEOFFSET	QUANT	1952.073	Start Time Offset (s)
