EXPLAIN
TAG	PWR800_DISCHARGE
TITLE	LABEL	PWR Cyclic Charge Discharge (Cell) - Discharge Step	Test &Identifier
DATE	LABEL	12-7-2017	Date
TIME	LABEL	16:32:45	Time
NOTES	NOTES	2	&Notes...
	supercap test cell
	6M KOH
PSTAT	PSTAT	IFC5000-01520	Potentiostat
CAPACITY	QUANT	1.00000E-003	Capacity (A-hr)
CELLTYPE	SELECTOR	1	&Cell Type
WORKINGCONNECTION	SELECTOR	0	&Working Lead
MAXDISCHARGETIME	VARIABLEANDUNITS	1.00000E+002	s	1.00000E+002	second(s)	Max &Discharge Time
DISCHARGEMODE	MULTIPARAM	0	1.00000E-004	&Discharge Mode	Constant Current	Amp(s)
SAMPLETIME	QUANT	1.00000E-002	Sa&mple Period (s)
DISCHARGESTOPAT1	MULTIPARAM	3	0.00000E+000	Discharge Stop At &1	Voltage < Limit	V
DISCHARGESTOPAT2	MULTIPARAM	0	0.00000E+000	Discharge Stop At &2	None	N/A
AESBHCSELECTOR	TOGGLE	F	Save Both Half Cells
IRCOMP	TOGGLE	F	IR &Measure
EOC	QUANT	0	Open Circuit (V)
SEQUENCER	TOGGLE	TRUE	Run as Sequence
PSTATMODEL	IQUANT	53	Pstat Model
PSTATSECTION	LABEL	IFC5000-01520	Pstat Section
PSTATSERIALNO	LABEL	01520	Pstat Serial Number
CTRLMODE	IQUANT	0	Control Mode
ELECTROMETER	IQUANT	1	RE=0 or CS=1
IESTAB	IQUANT	0	I/E Stability
CASPEED	IQUANT	4	Control Amp Speed
CONVENTION	IQUANT	1	Current Convention
ICHRANGE	IQUANT	2	Ich Range
ICHRANGEMODE	TOGGLE	T	Ich Auto Range
ICHOFFSETENABLE	TOGGLE	F	Ich Offset Enable
ICHOFFSET	QUANT	0	Ich Offset (V)
ICHFILTER	IQUANT	1	Ich Filter
VCHRANGE	IQUANT	2	Vch Range
VCHRANGEMODE	TOGGLE	T	Vch Auto Range
VCHOFFSETENABLE	TOGGLE	F	Vch Offset Enable
VCHOFFSET	QUANT	0	Vch Offset (V)
VCHFILTER	IQUANT	1	Vch Filter
IERANGELOWERLIMIT	IQUANT	9	I/E Range Lower Limit
IERANGEMODE	TOGGLE	F	I/E AutoRange
IERANGE	IQUANT	9	I/E Range
ACHSELECT	IQUANT	1	Ach Select
ACHRANGE	IQUANT	2	Ach Range
ACHOFFSETENABLE	TOGGLE	F	Ach Offset Enable
ACHOFFSET	QUANT	0	Ach Offset (V)
ACHFILTER	IQUANT	1	Ach Filter
CABLEID	IQUANT	14	Cable ID
DCCALDATE	LABEL	5-7-2017	DC Calibration Date
ACCALDATE	LABEL	12/3/2015	AC Calibration Date
FRAMEWORKVERSION	QUANT	7.01	Framework Version
INSTRUMENTVERSION	LABEL	4.00	Instrument Version
CURVE	TABLE	71
	Pt	T	Vf	Im	Vu	Pwr	Sig	Ach	Temp	IERange	Over
	#	s	V	A	V	W	V	V	deg C	#	bits
	0	0.013333	8.44786E-001	-9.98178E-005	0.00000E+000	-8.43247E-005	-5.99601E-002	8.45109E-001	3.57810E+000	9	...........
	1	0.026667	8.31765E-001	-9.73256E-005	0.00000E+000	-8.09520E-005	-5.99601E-002	8.32052E-001	3.57810E+000	9	...........
	2	0.04	8.19337E-001	-9.82008E-005	0.00000E+000	-8.04595E-005	-5.99601E-002	8.19625E-001	3.57810E+000	9	...........
	3	0.053333	8.07251E-001	-9.82425E-005	0.00000E+000	-7.93063E-005	-5.99601E-002	8.07528E-001	3.57810E+000	9	...........
	4	0.066667	7.95480E-001	-9.88145E-005	0.00000E+000	-7.86050E-005	-5.99601E-002	7.95732E-001	3.57810E+000	9	...........
	5	0.08	7.83855E-001	-9.92385E-005	0.00000E+000	-7.77886E-005	-5.99601E-002	7.84136E-001	3.57810E+000	9	...........
	6	0.093333	7.72442E-001	-9.82237E-005	0.00000E+000	-7.58721E-005	-5.99601E-002	7.72700E-001	3.57810E+000	9	...........
	7	0.106667	7.61140E-001	-9.77153E-005	0.00000E+000	-7.43750E-005	-5.99601E-002	7.61379E-001	3.57810E+000	9	...........
	8	0.12	7.49975E-001	-9.74131E-005	0.00000E+000	-7.30574E-005	-5.99601E-002	7.50198E-001	3.57810E+000	9	...........
	9	0.133333	7.38855E-001	-1.00049E-004	0.00000E+000	-7.39217E-005	-5.99601E-002	7.39100E-001	3.57810E+000	9	...........
	10	0.146667	7.27883E-001	-9.90999E-005	0.00000E+000	-7.21332E-005	-5.99601E-002	7.28129E-001	3.57810E+000	9	...........
	11	0.16	7.16990E-001	-9.94365E-005	0.00000E+000	-7.12950E-005	-5.99601E-002	7.17209E-001	3.57810E+000	9	...........
	12	0.173333	7.06180E-001	-9.84425E-005	0.00000E+000	-6.95181E-005	-5.99601E-002	7.06411E-001	3.57810E+000	9	...........
	13	0.186667	6.95448E-001	-9.88707E-005	0.00000E+000	-6.87595E-005	-5.99601E-002	6.95670E-001	3.57810E+000	9	...........
	14	0.2	6.84723E-001	-9.97657E-005	0.00000E+000	-6.83119E-005	-5.99601E-002	6.84997E-001	3.57810E+000	9	...........
	15	0.213333	6.74116E-001	-9.74829E-005	0.00000E+000	-6.57148E-005	-5.99601E-002	6.74352E-001	3.57810E+000	9	...........
	16	0.226667	6.63443E-001	-9.76653E-005	0.00000E+000	-6.47953E-005	-5.99601E-002	6.63688E-001	3.57810E+000	9	...........
	17	0.24	6.52745E-001	-9.84738E-005	0.00000E+000	-6.42783E-005	-5.99601E-002	6.52997E-001	3.57810E+000	9	...........
	18	0.253333	6.41981E-001	-9.87520E-005	0.00000E+000	-6.33969E-005	-5.99601E-002	6.42232E-001	3.57810E+000	9	...........
	19	0.266667	6.31073E-001	-9.84467E-005	0.00000E+000	-6.21271E-005	-5.99601E-002	6.31318E-001	3.57810E+000	9	...........
	20	0.28	6.20017E-001	-9.95011E-005	0.00000E+000	-6.16923E-005	-5.99601E-002	6.20259E-001	3.57810E+000	9	...........
	21	0.293333	6.08698E-001	-9.93656E-005	0.00000E+000	-6.04836E-005	-5.99601E-002	6.08993E-001	3.57810E+000	9	...........
	22	0.306667	5.97275E-001	-9.93333E-005	0.00000E+000	-5.93293E-005	-5.99601E-002	5.97543E-001	3.57810E+000	9	...........
	23	0.32	5.85608E-001	-9.97147E-005	0.00000E+000	-5.83937E-005	-5.99601E-002	5.85897E-001	3.57810E+000	9	...........
	24	0.333333	5.73777E-001	-9.82612E-005	0.00000E+000	-5.63801E-005	-5.99601E-002	5.74036E-001	3.57810E+000	9	...........
	25	0.346667	5.61770E-001	-9.94292E-005	0.00000E+000	-5.58564E-005	-5.99601E-002	5.62026E-001	3.57810E+000	9	...........
	26	0.36	5.49592E-001	-9.88072E-005	0.00000E+000	-5.43036E-005	-5.99601E-002	5.49845E-001	3.57810E+000	9	...........
	27	0.373333	5.37266E-001	-9.83529E-005	0.00000E+000	-5.28417E-005	-5.99601E-002	5.37506E-001	3.57810E+000	9	...........
	28	0.386667	5.24774E-001	-9.77226E-005	0.00000E+000	-5.12823E-005	-5.99601E-002	5.25031E-001	3.57810E+000	9	...........
	29	0.4	5.12188E-001	-9.86186E-005	0.00000E+000	-5.05113E-005	-5.99601E-002	5.12448E-001	3.57810E+000	9	...........
	30	0.413333	4.99465E-001	-9.85571E-005	0.00000E+000	-4.92258E-005	-5.99601E-002	4.99728E-001	3.57810E+000	9	...........
	31	0.426667	4.86757E-001	-9.85686E-005	0.00000E+000	-4.79790E-005	-5.99601E-002	4.86962E-001	3.57810E+000	9	...........
	32	0.44	4.74106E-001	-9.71923E-005	0.00000E+000	-4.60794E-005	-5.99601E-002	4.74210E-001	3.57670E+000	9	...........
	33	0.453333	4.61142E-001	-9.78820E-005	0.00000E+000	-4.51375E-005	-5.99601E-002	4.61242E-001	3.57670E+000	9	...........
	34	0.466667	4.48112E-001	-9.79382E-005	0.00000E+000	-4.38873E-005	-5.99601E-002	4.48214E-001	3.57670E+000	9	...........
	35	0.48	4.35045E-001	-9.81581E-005	0.00000E+000	-4.27032E-005	-5.99601E-002	4.35136E-001	3.57670E+000	9	...........
	36	0.493333	4.21927E-001	-9.82362E-005	0.00000E+000	-4.14485E-005	-5.99601E-002	4.22022E-001	3.57670E+000	9	...........
	37	0.506667	4.08792E-001	-9.82873E-005	0.00000E+000	-4.01791E-005	-5.99601E-002	4.08877E-001	3.57670E+000	9	...........
	38	0.52	3.95640E-001	-9.88666E-005	0.00000E+000	-3.91156E-005	-5.99601E-002	3.95717E-001	3.57670E+000	9	...........
	39	0.533333	3.82483E-001	-9.88124E-005	0.00000E+000	-3.77940E-005	-5.99601E-002	3.82563E-001	3.57670E+000	9	...........
	40	0.546667	3.69337E-001	-9.91156E-005	0.00000E+000	-3.66071E-005	-5.99601E-002	3.69405E-001	3.57670E+000	9	...........
	41	0.56	3.56204E-001	-9.86155E-005	0.00000E+000	-3.51273E-005	-5.99601E-002	3.56272E-001	3.57670E+000	9	...........
	42	0.573333	3.43094E-001	-9.88832E-005	0.00000E+000	-3.39262E-005	-5.99601E-002	3.43161E-001	3.57670E+000	9	...........
	43	0.586667	3.30025E-001	-9.92917E-005	0.00000E+000	-3.27688E-005	-5.99601E-002	3.30083E-001	3.57670E+000	9	...........
	44	0.6	3.16995E-001	-9.88499E-005	0.00000E+000	-3.13349E-005	-5.99601E-002	3.17059E-001	3.57670E+000	9	...........
	45	0.613333	3.04009E-001	-9.73996E-005	0.00000E+000	-2.96104E-005	-5.99601E-002	3.04066E-001	3.57670E+000	9	...........
	46	0.626667	2.91058E-001	-9.97615E-005	0.00000E+000	-2.90364E-005	-5.99601E-002	2.91112E-001	3.57670E+000	9	...........
	47	0.64	2.78166E-001	-9.92239E-005	0.00000E+000	-2.76008E-005	-5.99601E-002	2.78219E-001	3.57670E+000	9	...........
	48	0.653333	2.65326E-001	-9.85530E-005	0.00000E+000	-2.61487E-005	-5.99601E-002	2.65383E-001	3.57670E+000	9	...........
	49	0.666667	2.52557E-001	-9.91489E-005	0.00000E+000	-2.50408E-005	-5.99601E-002	2.52604E-001	3.57670E+000	9	...........
	50	0.68	2.39845E-001	-9.90208E-005	0.00000E+000	-2.37496E-005	-5.99601E-002	2.39890E-001	3.57670E+000	9	...........
	51	0.693333	2.27181E-001	-9.95563E-005	0.00000E+000	-2.26173E-005	-5.99601E-002	2.27227E-001	3.57670E+000	9	...........
	52	0.706667	2.14580E-001	-9.98543E-005	0.00000E+000	-2.14267E-005	-5.99601E-002	2.14621E-001	3.57670E+000	9	...........
	53	0.72	2.02045E-001	-9.84331E-005	0.00000E+000	-1.98879E-005	-5.99601E-002	2.02081E-001	3.57670E+000	9	...........
	54	0.733333	1.89554E-001	-9.87676E-005	0.00000E+000	-1.87218E-005	-5.99601E-002	1.89593E-001	3.57670E+000	9	...........
	55	0.746667	1.77120E-001	-9.84800E-005	0.00000E+000	-1.74428E-005	-5.99601E-002	1.77151E-001	3.57670E+000	9	...........
	56	0.76	1.64742E-001	-9.86686E-005	0.00000E+000	-1.62549E-005	-5.99601E-002	1.64768E-001	3.57670E+000	9	...........
	57	0.773333	1.52407E-001	-9.99043E-005	0.00000E+000	-1.52261E-005	-5.99601E-002	1.52437E-001	3.57670E+000	9	...........
	58	0.786667	1.40139E-001	-9.84592E-005	0.00000E+000	-1.37980E-005	-5.99601E-002	1.40162E-001	3.57670E+000	9	...........
	59	0.8	1.27927E-001	-9.84186E-005	0.00000E+000	-1.25903E-005	-5.99601E-002	1.27952E-001	3.57670E+000	9	...........
	60	0.813333	1.15785E-001	-9.87926E-005	0.00000E+000	-1.14387E-005	-5.99601E-002	1.15806E-001	3.57670E+000	9	...........
	61	0.826667	1.03722E-001	-9.93677E-005	0.00000E+000	-1.03066E-005	-5.99601E-002	1.03740E-001	3.57670E+000	9	...........
	62	0.84	9.17459E-002	-9.81748E-005	0.00000E+000	-9.00713E-006	-5.99601E-002	9.17600E-002	3.57670E+000	9	...........
	63	0.853333	7.98611E-002	-9.78184E-005	0.00000E+000	-7.81189E-006	-5.99601E-002	7.98697E-002	3.57670E+000	9	...........
	64	0.866667	6.80737E-002	-9.87217E-005	0.00000E+000	-6.72035E-006	-5.99601E-002	6.80773E-002	3.57670E+000	9	...........
	65	0.88	5.63876E-002	-9.83217E-005	0.00000E+000	-5.54412E-006	-5.99601E-002	5.63989E-002	3.57670E+000	9	...........
	66	0.893333	4.48692E-002	-9.85884E-005	0.00000E+000	-4.42358E-006	-5.99601E-002	4.48756E-002	3.57670E+000	9	...........
	67	0.906667	3.34559E-002	-9.81133E-005	0.00000E+000	-3.28247E-006	-5.99601E-002	3.34539E-002	3.57670E+000	9	...........
	68	0.92	2.21835E-002	-9.89749E-005	0.00000E+000	-2.19561E-006	-5.99601E-002	2.21700E-002	3.57670E+000	9	...........
	69	0.933333	1.10520E-002	-9.86801E-005	0.00000E+000	-1.09061E-006	-5.99601E-002	1.10406E-002	3.57670E+000	9	...........
	70	0.941667	2.13844E-003	-9.80051E-005	0.00000E+000	-2.09578E-007	-5.99601E-002	2.11599E-003	3.57670E+000	9	...........
STARTTIMEOFFSET	QUANT	970.394	Start Time Offset (s)
