EXPLAIN
TAG	PWR800_DISCHARGE
TITLE	LABEL	PWR Cyclic Charge Discharge (Cell) - Discharge Step	Test &Identifier
DATE	LABEL	12-7-2017	Date
TIME	LABEL	16:33:17	Time
NOTES	NOTES	2	&Notes...
	supercap test cell
	6M KOH
PSTAT	PSTAT	IFC5000-01520	Potentiostat
CAPACITY	QUANT	1.00000E-003	Capacity (A-hr)
CELLTYPE	SELECTOR	1	&Cell Type
WORKINGCONNECTION	SELECTOR	0	&Working Lead
MAXDISCHARGETIME	VARIABLEANDUNITS	1.00000E+002	s	1.00000E+002	second(s)	Max &Discharge Time
DISCHARGEMODE	MULTIPARAM	0	1.00000E-004	&Discharge Mode	Constant Current	Amp(s)
SAMPLETIME	QUANT	1.00000E-002	Sa&mple Period (s)
DISCHARGESTOPAT1	MULTIPARAM	3	0.00000E+000	Discharge Stop At &1	Voltage < Limit	V
DISCHARGESTOPAT2	MULTIPARAM	0	0.00000E+000	Discharge Stop At &2	None	N/A
AESBHCSELECTOR	TOGGLE	F	Save Both Half Cells
IRCOMP	TOGGLE	F	IR &Measure
EOC	QUANT	0	Open Circuit (V)
SEQUENCER	TOGGLE	TRUE	Run as Sequence
PSTATMODEL	IQUANT	53	Pstat Model
PSTATSECTION	LABEL	IFC5000-01520	Pstat Section
PSTATSERIALNO	LABEL	01520	Pstat Serial Number
CTRLMODE	IQUANT	0	Control Mode
ELECTROMETER	IQUANT	1	RE=0 or CS=1
IESTAB	IQUANT	0	I/E Stability
CASPEED	IQUANT	4	Control Amp Speed
CONVENTION	IQUANT	1	Current Convention
ICHRANGE	IQUANT	2	Ich Range
ICHRANGEMODE	TOGGLE	T	Ich Auto Range
ICHOFFSETENABLE	TOGGLE	F	Ich Offset Enable
ICHOFFSET	QUANT	0	Ich Offset (V)
ICHFILTER	IQUANT	1	Ich Filter
VCHRANGE	IQUANT	2	Vch Range
VCHRANGEMODE	TOGGLE	T	Vch Auto Range
VCHOFFSETENABLE	TOGGLE	F	Vch Offset Enable
VCHOFFSET	QUANT	0	Vch Offset (V)
VCHFILTER	IQUANT	1	Vch Filter
IERANGELOWERLIMIT	IQUANT	9	I/E Range Lower Limit
IERANGEMODE	TOGGLE	F	I/E AutoRange
IERANGE	IQUANT	9	I/E Range
ACHSELECT	IQUANT	1	Ach Select
ACHRANGE	IQUANT	2	Ach Range
ACHOFFSETENABLE	TOGGLE	F	Ach Offset Enable
ACHOFFSET	QUANT	0	Ach Offset (V)
ACHFILTER	IQUANT	1	Ach Filter
CABLEID	IQUANT	14	Cable ID
DCCALDATE	LABEL	5-7-2017	DC Calibration Date
ACCALDATE	LABEL	12/3/2015	AC Calibration Date
FRAMEWORKVERSION	QUANT	7.01	Framework Version
INSTRUMENTVERSION	LABEL	4.00	Instrument Version
CURVE	TABLE	71
	Pt	T	Vf	Im	Vu	Pwr	Sig	Ach	Temp	IERange	Over
	#	s	V	A	V	W	V	V	deg C	#	bits
	0	0.013333	8.46462E-001	-9.94729E-005	0.00000E+000	-8.42000E-005	-5.99601E-002	8.46784E-001	3.57710E+000	9	...........
	1	0.026667	8.33439E-001	-9.83842E-005	0.00000E+000	-8.19973E-005	-5.99601E-002	8.33745E-001	3.57710E+000	9	...........
	2	0.04	8.21010E-001	-9.84311E-005	0.00000E+000	-8.08129E-005	-5.99601E-002	8.21290E-001	3.57710E+000	9	...........
	3	0.053333	8.08960E-001	-9.85748E-005	0.00000E+000	-7.97431E-005	-5.99601E-002	8.09225E-001	3.57710E+000	9	...........
	4	0.066667	7.97190E-001	-9.85936E-005	0.00000E+000	-7.85978E-005	-5.99601E-002	7.97435E-001	3.57710E+000	9	...........
	5	0.08	7.85596E-001	-9.80789E-005	0.00000E+000	-7.70503E-005	-5.99601E-002	7.85835E-001	3.57710E+000	9	...........
	6	0.093333	7.74139E-001	-9.75257E-005	0.00000E+000	-7.54984E-005	-5.99601E-002	7.74411E-001	3.57710E+000	9	...........
	7	0.106667	7.62818E-001	-9.94594E-005	0.00000E+000	-7.58695E-005	-5.99601E-002	7.63097E-001	3.57710E+000	9	...........
	8	0.12	7.51649E-001	-9.92792E-005	0.00000E+000	-7.46231E-005	-5.99601E-002	7.51915E-001	3.57710E+000	9	...........
	9	0.133333	7.40559E-001	-9.87697E-005	0.00000E+000	-7.31448E-005	-5.99601E-002	7.40801E-001	3.57710E+000	9	...........
	10	0.146667	7.29570E-001	-9.86415E-005	0.00000E+000	-7.19659E-005	-5.99601E-002	7.29826E-001	3.57710E+000	9	...........
	11	0.16	7.18657E-001	-9.86926E-005	0.00000E+000	-7.09261E-005	-5.99601E-002	7.18909E-001	3.57710E+000	9	...........
	12	0.173333	7.07826E-001	-9.90020E-005	0.00000E+000	-7.00762E-005	-5.99601E-002	7.08065E-001	3.57710E+000	9	...........
	13	0.186667	6.97087E-001	-9.83738E-005	0.00000E+000	-6.85750E-005	-5.99601E-002	6.97322E-001	3.57710E+000	9	...........
	14	0.2	6.86388E-001	-9.92010E-005	0.00000E+000	-6.80903E-005	-5.99601E-002	6.86624E-001	3.57710E+000	9	...........
	15	0.213333	6.75755E-001	-9.81279E-005	0.00000E+000	-6.63104E-005	-5.99601E-002	6.75998E-001	3.57710E+000	9	...........
	16	0.226667	6.65081E-001	-9.83519E-005	0.00000E+000	-6.54120E-005	-5.99601E-002	6.65349E-001	3.57710E+000	9	...........
	17	0.24	6.54425E-001	-9.84456E-005	0.00000E+000	-6.44252E-005	-5.99601E-002	6.54647E-001	3.57710E+000	9	...........
	18	0.253333	6.43659E-001	-9.90916E-005	0.00000E+000	-6.37812E-005	-5.99601E-002	6.43884E-001	3.57710E+000	9	...........
	19	0.266667	6.32752E-001	-9.83206E-005	0.00000E+000	-6.22125E-005	-5.99601E-002	6.32987E-001	3.57710E+000	9	...........
	20	0.28	6.21722E-001	-9.72089E-005	0.00000E+000	-6.04370E-005	-5.99601E-002	6.21951E-001	3.57710E+000	9	...........
	21	0.293333	6.10461E-001	-9.80049E-005	0.00000E+000	-5.98282E-005	-5.99601E-002	6.10698E-001	3.57710E+000	9	...........
	22	0.306667	5.99047E-001	-9.94334E-005	0.00000E+000	-5.95652E-005	-5.99601E-002	5.99270E-001	3.57710E+000	9	...........
	23	0.32	5.87424E-001	-9.84904E-005	0.00000E+000	-5.78556E-005	-5.99601E-002	5.87656E-001	3.57710E+000	9	...........
	24	0.333333	5.75622E-001	-9.86509E-005	0.00000E+000	-5.67856E-005	-5.99601E-002	5.75813E-001	3.57710E+000	9	...........
	25	0.346667	5.63637E-001	-9.95448E-005	0.00000E+000	-5.61072E-005	-5.99601E-002	5.63834E-001	3.57710E+000	9	...........
	26	0.36	5.51441E-001	-9.92354E-005	0.00000E+000	-5.47225E-005	-5.99601E-002	5.51664E-001	3.57710E+000	9	...........
	27	0.373333	5.39137E-001	-9.91489E-005	0.00000E+000	-5.34548E-005	-5.99601E-002	5.39371E-001	3.57710E+000	9	...........
	28	0.386667	5.26682E-001	-9.80820E-005	0.00000E+000	-5.16581E-005	-5.99601E-002	5.26895E-001	3.57710E+000	9	...........
	29	0.4	5.14090E-001	-9.82956E-005	0.00000E+000	-5.05328E-005	-5.99601E-002	5.14316E-001	3.57710E+000	9	...........
	30	0.413333	5.01364E-001	-9.89249E-005	0.00000E+000	-4.95974E-005	-5.99601E-002	5.01601E-001	3.57710E+000	9	...........
	31	0.426667	4.88617E-001	-9.96115E-005	0.00000E+000	-4.86719E-005	-5.99601E-002	4.88823E-001	3.57710E+000	9	...........
	32	0.44	4.75982E-001	-9.88603E-005	0.00000E+000	-4.70558E-005	-5.99601E-002	4.76089E-001	3.57710E+000	9	...........
	33	0.453333	4.63010E-001	-1.00003E-004	0.00000E+000	-4.63025E-005	-5.99601E-002	4.63109E-001	3.57710E+000	9	...........
	34	0.466667	4.49977E-001	-9.92448E-005	0.00000E+000	-4.46578E-005	-5.99601E-002	4.50073E-001	3.57710E+000	9	...........
	35	0.48	4.36893E-001	-9.73996E-005	0.00000E+000	-4.25532E-005	-5.99601E-002	4.36987E-001	3.57710E+000	9	...........
	36	0.493333	4.23758E-001	-9.83956E-005	0.00000E+000	-4.16960E-005	-5.99601E-002	4.23850E-001	3.57710E+000	9	...........
	37	0.506667	4.10617E-001	-9.82925E-005	0.00000E+000	-4.03605E-005	-5.99601E-002	4.10702E-001	3.57710E+000	9	...........
	38	0.52	3.97446E-001	-9.88238E-005	0.00000E+000	-3.92771E-005	-5.99601E-002	3.97527E-001	3.57710E+000	9	...........
	39	0.533333	3.84272E-001	-9.82425E-005	0.00000E+000	-3.77519E-005	-5.99601E-002	3.84354E-001	3.57710E+000	9	...........
	40	0.546667	3.71102E-001	-9.83633E-005	0.00000E+000	-3.65028E-005	-5.99601E-002	3.71179E-001	3.57710E+000	9	...........
	41	0.56	3.57949E-001	-9.78028E-005	0.00000E+000	-3.50084E-005	-5.99601E-002	3.58023E-001	3.57710E+000	9	...........
	42	0.573333	3.44810E-001	-9.84509E-005	0.00000E+000	-3.39468E-005	-5.99601E-002	3.44881E-001	3.57710E+000	9	...........
	43	0.586667	3.31713E-001	-9.96667E-005	0.00000E+000	-3.30608E-005	-5.99601E-002	3.31782E-001	3.57710E+000	9	...........
	44	0.6	3.18652E-001	-9.87238E-005	0.00000E+000	-3.14586E-005	-5.99601E-002	3.18720E-001	3.57710E+000	9	...........
	45	0.613333	3.05638E-001	-9.86530E-005	0.00000E+000	-3.01521E-005	-5.99601E-002	3.05704E-001	3.57710E+000	9	...........
	46	0.626667	2.92679E-001	-9.75767E-005	0.00000E+000	-2.85586E-005	-5.99601E-002	2.92743E-001	3.57710E+000	9	...........
	47	0.64	2.79769E-001	-9.89937E-005	0.00000E+000	-2.76954E-005	-5.99601E-002	2.79825E-001	3.57710E+000	9	...........
	48	0.653333	2.66907E-001	-9.87801E-005	0.00000E+000	-2.63651E-005	-5.99601E-002	2.66971E-001	3.57710E+000	9	...........
	49	0.666667	2.54115E-001	-9.97105E-005	0.00000E+000	-2.53379E-005	-5.99601E-002	2.54171E-001	3.57710E+000	9	...........
	50	0.68	2.41380E-001	-9.84904E-005	0.00000E+000	-2.37736E-005	-5.99601E-002	2.41427E-001	3.57710E+000	9	...........
	51	0.693333	2.28700E-001	-9.85665E-005	0.00000E+000	-2.25422E-005	-5.99601E-002	2.28743E-001	3.57710E+000	9	...........
	52	0.706667	2.16076E-001	-9.88093E-005	0.00000E+000	-2.13503E-005	-5.99601E-002	2.16112E-001	3.57810E+000	9	...........
	53	0.72	2.03511E-001	-1.00664E-004	0.00000E+000	-2.04862E-005	-5.99601E-002	2.03556E-001	3.57810E+000	9	...........
	54	0.733333	1.91006E-001	-9.83498E-005	0.00000E+000	-1.87854E-005	-5.99601E-002	1.91045E-001	3.57810E+000	9	...........
	55	0.746667	1.78549E-001	-9.74319E-005	0.00000E+000	-1.73964E-005	-5.99601E-002	1.78586E-001	3.57810E+000	9	...........
	56	0.76	1.66145E-001	-9.73819E-005	0.00000E+000	-1.61796E-005	-5.99601E-002	1.66179E-001	3.57810E+000	9	...........
	57	0.773333	1.53801E-001	-9.93531E-005	0.00000E+000	-1.52806E-005	-5.99601E-002	1.53826E-001	3.57810E+000	9	...........
	58	0.786667	1.41510E-001	-9.88301E-005	0.00000E+000	-1.39855E-005	-5.99601E-002	1.41536E-001	3.57810E+000	9	...........
	59	0.8	1.29280E-001	-9.76642E-005	0.00000E+000	-1.26260E-005	-5.99601E-002	1.29304E-001	3.57810E+000	9	...........
	60	0.813333	1.17121E-001	-9.80622E-005	0.00000E+000	-1.14851E-005	-5.99601E-002	1.17144E-001	3.57810E+000	9	...........
	61	0.826667	1.05028E-001	-9.84446E-005	0.00000E+000	-1.03395E-005	-5.99601E-002	1.05051E-001	3.57810E+000	9	...........
	62	0.84	9.30274E-002	-9.91635E-005	0.00000E+000	-9.22492E-006	-5.99601E-002	9.30449E-002	3.57810E+000	9	...........
	63	0.853333	8.11204E-002	-9.81133E-005	0.00000E+000	-7.95899E-006	-5.99601E-002	8.11366E-002	3.57810E+000	9	...........
	64	0.866667	6.93199E-002	-9.77090E-005	0.00000E+000	-6.77318E-006	-5.99601E-002	6.93276E-002	3.57810E+000	9	...........
	65	0.88	5.76260E-002	-1.00155E-004	0.00000E+000	-5.77156E-006	-5.99601E-002	5.76333E-002	3.57810E+000	9	...........
	66	0.893333	4.60808E-002	-9.73298E-005	0.00000E+000	-4.48503E-006	-5.99601E-002	4.60858E-002	3.57810E+000	9	...........
	67	0.906667	3.46521E-002	-9.88593E-005	0.00000E+000	-3.42568E-006	-5.99601E-002	3.46525E-002	3.57810E+000	9	...........
	68	0.92	2.33590E-002	-9.90666E-005	0.00000E+000	-2.31410E-006	-5.99601E-002	2.33550E-002	3.57810E+000	9	...........
	69	0.933333	1.22284E-002	-9.75694E-005	0.00000E+000	-1.19311E-006	-5.99601E-002	1.22156E-002	3.57810E+000	9	...........
	70	0.943333	2.60660E-003	-9.88937E-005	0.00000E+000	-2.57777E-007	-5.99601E-002	2.58285E-003	3.57810E+000	9	...........
STARTTIMEOFFSET	QUANT	993.817	Start Time Offset (s)
