EXPLAIN
TAG	PWR800_DISCHARGE
TITLE	LABEL	PWR Cyclic Charge Discharge (Cell) - Discharge Step	Test &Identifier
DATE	LABEL	12-7-2017	Date
TIME	LABEL	16:33:45	Time
NOTES	NOTES	2	&Notes...
	supercap test cell
	6M KOH
PSTAT	PSTAT	IFC5000-01520	Potentiostat
CAPACITY	QUANT	1.00000E-003	Capacity (A-hr)
CELLTYPE	SELECTOR	1	&Cell Type
WORKINGCONNECTION	SELECTOR	0	&Working Lead
MAXDISCHARGETIME	VARIABLEANDUNITS	1.00000E+002	s	1.00000E+002	second(s)	Max &Discharge Time
DISCHARGEMODE	MULTIPARAM	0	1.00000E-004	&Discharge Mode	Constant Current	Amp(s)
SAMPLETIME	QUANT	1.00000E-002	Sa&mple Period (s)
DISCHARGESTOPAT1	MULTIPARAM	3	0.00000E+000	Discharge Stop At &1	Voltage < Limit	V
DISCHARGESTOPAT2	MULTIPARAM	0	0.00000E+000	Discharge Stop At &2	None	N/A
AESBHCSELECTOR	TOGGLE	F	Save Both Half Cells
IRCOMP	TOGGLE	F	IR &Measure
EOC	QUANT	0	Open Circuit (V)
SEQUENCER	TOGGLE	TRUE	Run as Sequence
PSTATMODEL	IQUANT	53	Pstat Model
PSTATSECTION	LABEL	IFC5000-01520	Pstat Section
PSTATSERIALNO	LABEL	01520	Pstat Serial Number
CTRLMODE	IQUANT	0	Control Mode
ELECTROMETER	IQUANT	1	RE=0 or CS=1
IESTAB	IQUANT	0	I/E Stability
CASPEED	IQUANT	4	Control Amp Speed
CONVENTION	IQUANT	1	Current Convention
ICHRANGE	IQUANT	2	Ich Range
ICHRANGEMODE	TOGGLE	T	Ich Auto Range
ICHOFFSETENABLE	TOGGLE	F	Ich Offset Enable
ICHOFFSET	QUANT	0	Ich Offset (V)
ICHFILTER	IQUANT	1	Ich Filter
VCHRANGE	IQUANT	2	Vch Range
VCHRANGEMODE	TOGGLE	T	Vch Auto Range
VCHOFFSETENABLE	TOGGLE	F	Vch Offset Enable
VCHOFFSET	QUANT	0	Vch Offset (V)
VCHFILTER	IQUANT	1	Vch Filter
IERANGELOWERLIMIT	IQUANT	9	I/E Range Lower Limit
IERANGEMODE	TOGGLE	F	I/E AutoRange
IERANGE	IQUANT	9	I/E Range
ACHSELECT	IQUANT	1	Ach Select
ACHRANGE	IQUANT	2	Ach Range
ACHOFFSETENABLE	TOGGLE	F	Ach Offset Enable
ACHOFFSET	QUANT	0	Ach Offset (V)
ACHFILTER	IQUANT	1	Ach Filter
CABLEID	IQUANT	14	Cable ID
DCCALDATE	LABEL	5-7-2017	DC Calibration Date
ACCALDATE	LABEL	12/3/2015	AC Calibration Date
FRAMEWORKVERSION	QUANT	7.01	Framework Version
INSTRUMENTVERSION	LABEL	4.00	Instrument Version
CURVE	TABLE	71
	Pt	T	Vf	Im	Vu	Pwr	Sig	Ach	Temp	IERange	Over
	#	s	V	A	V	W	V	V	deg C	#	bits
	0	0.013333	8.46888E-001	-9.93562E-005	0.00000E+000	-8.41436E-005	-5.99601E-002	8.47197E-001	3.57810E+000	9	...........
	1	0.026667	8.33846E-001	-9.82425E-005	0.00000E+000	-8.19191E-005	-5.99601E-002	8.34142E-001	3.57810E+000	9	...........
	2	0.04	8.21396E-001	-9.94313E-005	0.00000E+000	-8.16725E-005	-5.99601E-002	8.21685E-001	3.57810E+000	9	...........
	3	0.053333	8.09298E-001	-9.92146E-005	0.00000E+000	-8.02941E-005	-5.99601E-002	8.09577E-001	3.57810E+000	9	...........
	4	0.066667	7.97519E-001	-9.77934E-005	0.00000E+000	-7.79921E-005	-5.99601E-002	7.97771E-001	3.57810E+000	9	...........
	5	0.08	7.85874E-001	-1.00344E-004	0.00000E+000	-7.88577E-005	-5.99601E-002	7.86149E-001	3.57810E+000	9	...........
	6	0.093333	7.74435E-001	-9.88364E-005	0.00000E+000	-7.65423E-005	-5.99601E-002	7.74709E-001	3.57810E+000	9	...........
	7	0.106667	7.63105E-001	-9.96865E-005	0.00000E+000	-7.60713E-005	-5.99601E-002	7.63382E-001	3.57810E+000	9	...........
	8	0.12	7.51914E-001	-9.76767E-005	0.00000E+000	-7.34445E-005	-5.99601E-002	7.52165E-001	3.57810E+000	9	...........
	9	0.133333	7.40805E-001	-9.98991E-005	0.00000E+000	-7.40058E-005	-5.99601E-002	7.41044E-001	3.57810E+000	9	...........
	10	0.146667	7.29787E-001	-9.86165E-005	0.00000E+000	-7.19691E-005	-5.99601E-002	7.30048E-001	3.57810E+000	9	...........
	11	0.16	7.18858E-001	-9.91531E-005	0.00000E+000	-7.12770E-005	-5.99601E-002	7.19134E-001	3.57810E+000	9	...........
	12	0.173333	7.08004E-001	-9.89280E-005	0.00000E+000	-7.00415E-005	-5.99601E-002	7.08250E-001	3.57810E+000	9	...........
	13	0.186667	6.97253E-001	-9.82466E-005	0.00000E+000	-6.85028E-005	-5.99601E-002	6.97529E-001	3.57810E+000	9	...........
	14	0.2	6.86531E-001	-9.86488E-005	0.00000E+000	-6.77255E-005	-5.99601E-002	6.86799E-001	3.57810E+000	9	...........
	15	0.213333	6.75884E-001	-9.82321E-005	0.00000E+000	-6.63934E-005	-5.99601E-002	6.76125E-001	3.57810E+000	9	...........
	16	0.226667	6.65217E-001	-9.89051E-005	0.00000E+000	-6.57934E-005	-5.99601E-002	6.65478E-001	3.57810E+000	9	...........
	17	0.24	6.54535E-001	-9.84957E-005	0.00000E+000	-6.44688E-005	-5.99601E-002	6.54770E-001	3.57810E+000	9	...........
	18	0.253333	6.43779E-001	-9.95969E-005	0.00000E+000	-6.41184E-005	-5.99601E-002	6.44046E-001	3.57810E+000	9	...........
	19	0.266667	6.32907E-001	-9.87092E-005	0.00000E+000	-6.24737E-005	-5.99601E-002	6.33156E-001	3.57810E+000	9	...........
	20	0.28	6.21898E-001	-9.90541E-005	0.00000E+000	-6.16015E-005	-5.99601E-002	6.22143E-001	3.57705E+000	9	...........
	21	0.293333	6.10633E-001	-9.93240E-005	0.00000E+000	-6.06505E-005	-5.99601E-002	6.10901E-001	3.57670E+000	9	...........
	22	0.306667	5.99240E-001	-9.74496E-005	0.00000E+000	-5.83957E-005	-5.99601E-002	5.99496E-001	3.57670E+000	9	...........
	23	0.32	5.87631E-001	-9.81445E-005	0.00000E+000	-5.76728E-005	-5.99601E-002	5.87870E-001	3.57670E+000	9	...........
	24	0.333333	5.75828E-001	-9.91156E-005	0.00000E+000	-5.70735E-005	-5.99601E-002	5.76052E-001	3.57670E+000	9	...........
	25	0.346667	5.63847E-001	-9.85436E-005	0.00000E+000	-5.55635E-005	-5.99601E-002	5.64065E-001	3.57670E+000	9	...........
	26	0.36	5.51659E-001	-9.79195E-005	0.00000E+000	-5.40182E-005	-5.99601E-002	5.51905E-001	3.57670E+000	9	...........
	27	0.373333	5.39344E-001	-9.95615E-005	0.00000E+000	-5.36979E-005	-5.99601E-002	5.39581E-001	3.57670E+000	9	...........
	28	0.386667	5.26896E-001	-9.88155E-005	0.00000E+000	-5.20655E-005	-5.99601E-002	5.27114E-001	3.57670E+000	9	...........
	29	0.4	5.14309E-001	-9.87738E-005	0.00000E+000	-5.08003E-005	-5.99601E-002	5.14521E-001	3.57670E+000	9	...........
	30	0.413333	5.01563E-001	-9.89322E-005	0.00000E+000	-4.96207E-005	-5.99601E-002	5.01793E-001	3.57670E+000	9	...........
	31	0.426667	4.88806E-001	-9.86228E-005	0.00000E+000	-4.82074E-005	-5.99601E-002	4.89020E-001	3.57670E+000	9	...........
	32	0.44	4.76170E-001	-9.74006E-005	0.00000E+000	-4.63793E-005	-5.99601E-002	4.76267E-001	3.57670E+000	9	...........
	33	0.453333	4.63194E-001	-9.86936E-005	0.00000E+000	-4.57143E-005	-5.99601E-002	4.63295E-001	3.57670E+000	9	...........
	34	0.466667	4.50140E-001	-9.85696E-005	0.00000E+000	-4.43702E-005	-5.99601E-002	4.50241E-001	3.57670E+000	9	...........
	35	0.48	4.37045E-001	-9.87249E-005	0.00000E+000	-4.31472E-005	-5.99601E-002	4.37140E-001	3.57670E+000	9	...........
	36	0.493333	4.23904E-001	-9.80622E-005	0.00000E+000	-4.15689E-005	-5.99601E-002	4.23992E-001	3.57670E+000	9	...........
	37	0.506667	4.10734E-001	-9.86009E-005	0.00000E+000	-4.04988E-005	-5.99601E-002	4.10819E-001	3.57670E+000	9	...........
	38	0.52	3.97550E-001	-9.83133E-005	0.00000E+000	-3.90844E-005	-5.99601E-002	3.97631E-001	3.57670E+000	9	...........
	39	0.533333	3.84349E-001	-9.84998E-005	0.00000E+000	-3.78583E-005	-5.99601E-002	3.84432E-001	3.57670E+000	9	...........
	40	0.546667	3.71164E-001	-9.98366E-005	0.00000E+000	-3.70558E-005	-5.99601E-002	3.71240E-001	3.57670E+000	9	...........
	41	0.56	3.57990E-001	-9.84884E-005	0.00000E+000	-3.52579E-005	-5.99601E-002	3.58064E-001	3.57670E+000	9	...........
	42	0.573333	3.44847E-001	-9.86780E-005	0.00000E+000	-3.40288E-005	-5.99601E-002	3.44919E-001	3.57670E+000	9	...........
	43	0.586667	3.31724E-001	-9.85342E-005	0.00000E+000	-3.26862E-005	-5.99601E-002	3.31798E-001	3.57670E+000	9	...........
	44	0.6	3.18647E-001	-9.84873E-005	0.00000E+000	-3.13827E-005	-5.99601E-002	3.18716E-001	3.57670E+000	9	...........
	45	0.613333	3.05622E-001	-9.80779E-005	0.00000E+000	-2.99748E-005	-5.99601E-002	3.05688E-001	3.57670E+000	9	...........
	46	0.626667	2.92635E-001	-9.98897E-005	0.00000E+000	-2.92312E-005	-5.99601E-002	2.92699E-001	3.57670E+000	9	...........
	47	0.64	2.79704E-001	-9.82070E-005	0.00000E+000	-2.74689E-005	-5.99601E-002	2.79770E-001	3.57670E+000	9	...........
	48	0.653333	2.66814E-001	-9.87509E-005	0.00000E+000	-2.63481E-005	-5.99601E-002	2.66875E-001	3.57670E+000	9	...........
	49	0.666667	2.53994E-001	-9.89520E-005	0.00000E+000	-2.51332E-005	-5.99601E-002	2.54054E-001	3.57670E+000	9	...........
	50	0.68	2.41248E-001	-9.84852E-005	0.00000E+000	-2.37594E-005	-5.99601E-002	2.41301E-001	3.57670E+000	9	...........
	51	0.693333	2.28556E-001	-9.90864E-005	0.00000E+000	-2.26468E-005	-5.99601E-002	2.28606E-001	3.57670E+000	9	...........
	52	0.706667	2.15922E-001	-9.85040E-005	0.00000E+000	-2.12692E-005	-5.99601E-002	2.15966E-001	3.57670E+000	9	...........
	53	0.72	2.03350E-001	-9.89082E-005	0.00000E+000	-2.01130E-005	-5.99601E-002	2.03387E-001	3.57670E+000	9	...........
	54	0.733333	1.90824E-001	-9.90833E-005	0.00000E+000	-1.89075E-005	-5.99601E-002	1.90859E-001	3.57670E+000	9	...........
	55	0.746667	1.78347E-001	-9.84779E-005	0.00000E+000	-1.75632E-005	-5.99601E-002	1.78383E-001	3.57670E+000	9	...........
	56	0.76	1.65936E-001	-9.87540E-005	0.00000E+000	-1.63869E-005	-5.99601E-002	1.65964E-001	3.57670E+000	9	...........
	57	0.773333	1.53570E-001	-9.86374E-005	0.00000E+000	-1.51477E-005	-5.99601E-002	1.53600E-001	3.57670E+000	9	...........
	58	0.786667	1.41265E-001	-9.85550E-005	0.00000E+000	-1.39224E-005	-5.99601E-002	1.41290E-001	3.57670E+000	9	...........
	59	0.8	1.29030E-001	-9.73069E-005	0.00000E+000	-1.25555E-005	-5.99601E-002	1.29054E-001	3.57670E+000	9	...........
	60	0.813333	1.16857E-001	-9.79716E-005	0.00000E+000	-1.14487E-005	-5.99601E-002	1.16885E-001	3.57670E+000	9	...........
	61	0.826667	1.04768E-001	-9.77674E-005	0.00000E+000	-1.02429E-005	-5.99601E-002	1.04791E-001	3.57670E+000	9	...........
	62	0.84	9.27563E-002	-9.93635E-005	0.00000E+000	-9.21660E-006	-5.99601E-002	9.27776E-002	3.57670E+000	9	...........
	63	0.853333	8.08549E-002	-9.90583E-005	0.00000E+000	-8.00935E-006	-5.99601E-002	8.08730E-002	3.57670E+000	9	...........
	64	0.866667	6.90495E-002	-9.73162E-005	0.00000E+000	-6.71964E-006	-5.99601E-002	6.90635E-002	3.57670E+000	9	...........
	65	0.88	5.73590E-002	-9.89103E-005	0.00000E+000	-5.67340E-006	-5.99601E-002	5.73675E-002	3.57670E+000	9	...........
	66	0.893333	4.58181E-002	-9.94052E-005	0.00000E+000	-4.55456E-006	-5.99601E-002	4.58265E-002	3.57670E+000	9	...........
	67	0.906667	3.44032E-002	-9.82123E-005	0.00000E+000	-3.37882E-006	-5.99601E-002	3.44013E-002	3.57670E+000	9	...........
	68	0.92	2.31154E-002	-9.94677E-005	0.00000E+000	-2.29924E-006	-5.99601E-002	2.31053E-002	3.57670E+000	9	...........
	69	0.933333	1.19799E-002	-9.88228E-005	0.00000E+000	-1.18389E-006	-5.99601E-002	1.19637E-002	3.57670E+000	9	...........
	70	0.943333	2.37200E-003	-9.97049E-005	0.00000E+000	-2.36500E-007	-5.99601E-002	2.34765E-003	3.57670E+000	9	...........
STARTTIMEOFFSET	QUANT	1013.314	Start Time Offset (s)
