EXPLAIN
TAG	PWR800_DISCHARGE
TITLE	LABEL	PWR Cyclic Charge Discharge (Cell) - Discharge Step	Test &Identifier
DATE	LABEL	12-7-2017	Date
TIME	LABEL	16:39:23	Time
NOTES	NOTES	2	&Notes...
	supercap test cell
	6M KOH
PSTAT	PSTAT	IFC5000-01520	Potentiostat
CAPACITY	QUANT	1.00000E-003	Capacity (A-hr)
CELLTYPE	SELECTOR	1	&Cell Type
WORKINGCONNECTION	SELECTOR	0	&Working Lead
MAXDISCHARGETIME	VARIABLEANDUNITS	1.00000E+002	s	1.00000E+002	second(s)	Max &Discharge Time
DISCHARGEMODE	MULTIPARAM	0	1.00000E-004	&Discharge Mode	Constant Current	Amp(s)
SAMPLETIME	QUANT	1.00000E-002	Sa&mple Period (s)
DISCHARGESTOPAT1	MULTIPARAM	3	0.00000E+000	Discharge Stop At &1	Voltage < Limit	V
DISCHARGESTOPAT2	MULTIPARAM	0	0.00000E+000	Discharge Stop At &2	None	N/A
AESBHCSELECTOR	TOGGLE	F	Save Both Half Cells
IRCOMP	TOGGLE	F	IR &Measure
EOC	QUANT	0	Open Circuit (V)
SEQUENCER	TOGGLE	TRUE	Run as Sequence
PSTATMODEL	IQUANT	53	Pstat Model
PSTATSECTION	LABEL	IFC5000-01520	Pstat Section
PSTATSERIALNO	LABEL	01520	Pstat Serial Number
CTRLMODE	IQUANT	0	Control Mode
ELECTROMETER	IQUANT	1	RE=0 or CS=1
IESTAB	IQUANT	0	I/E Stability
CASPEED	IQUANT	4	Control Amp Speed
CONVENTION	IQUANT	1	Current Convention
ICHRANGE	IQUANT	2	Ich Range
ICHRANGEMODE	TOGGLE	T	Ich Auto Range
ICHOFFSETENABLE	TOGGLE	F	Ich Offset Enable
ICHOFFSET	QUANT	0	Ich Offset (V)
ICHFILTER	IQUANT	1	Ich Filter
VCHRANGE	IQUANT	2	Vch Range
VCHRANGEMODE	TOGGLE	T	Vch Auto Range
VCHOFFSETENABLE	TOGGLE	F	Vch Offset Enable
VCHOFFSET	QUANT	0	Vch Offset (V)
VCHFILTER	IQUANT	1	Vch Filter
IERANGELOWERLIMIT	IQUANT	9	I/E Range Lower Limit
IERANGEMODE	TOGGLE	F	I/E AutoRange
IERANGE	IQUANT	9	I/E Range
ACHSELECT	IQUANT	1	Ach Select
ACHRANGE	IQUANT	2	Ach Range
ACHOFFSETENABLE	TOGGLE	F	Ach Offset Enable
ACHOFFSET	QUANT	0	Ach Offset (V)
ACHFILTER	IQUANT	1	Ach Filter
CABLEID	IQUANT	14	Cable ID
DCCALDATE	LABEL	5-7-2017	DC Calibration Date
ACCALDATE	LABEL	12/3/2015	AC Calibration Date
FRAMEWORKVERSION	QUANT	7.01	Framework Version
INSTRUMENTVERSION	LABEL	4.00	Instrument Version
CURVE	TABLE	71
	Pt	T	Vf	Im	Vu	Pwr	Sig	Ach	Temp	IERange	Over
	#	s	V	A	V	W	V	V	deg C	#	bits
	0	0.013333	8.45209E-001	-9.87436E-005	0.00000E+000	-8.34590E-005	-5.99601E-002	8.45487E-001	3.57650E+000	9	...........
	1	0.026667	8.32088E-001	-9.88364E-005	0.00000E+000	-8.22405E-005	-5.99601E-002	8.32378E-001	3.57650E+000	9	...........
	2	0.04	8.19596E-001	-9.72735E-005	0.00000E+000	-7.97250E-005	-5.99601E-002	8.19881E-001	3.57650E+000	9	...........
	3	0.053333	8.07444E-001	-9.80779E-005	0.00000E+000	-7.91923E-005	-5.99601E-002	8.07715E-001	3.57650E+000	9	...........
	4	0.066667	7.95582E-001	-9.83290E-005	0.00000E+000	-7.82287E-005	-5.99601E-002	7.95852E-001	3.57650E+000	9	...........
	5	0.08	7.83890E-001	-9.87145E-005	0.00000E+000	-7.73813E-005	-5.99601E-002	7.84152E-001	3.57650E+000	9	...........
	6	0.093333	7.72361E-001	-9.93417E-005	0.00000E+000	-7.67276E-005	-5.99601E-002	7.72634E-001	3.57650E+000	9	...........
	7	0.106667	7.60980E-001	-9.93250E-005	0.00000E+000	-7.55843E-005	-5.99601E-002	7.61221E-001	3.57650E+000	9	...........
	8	0.12	7.49685E-001	-9.87988E-005	0.00000E+000	-7.40680E-005	-5.99601E-002	7.49926E-001	3.57650E+000	9	...........
	9	0.133333	7.38503E-001	-9.73413E-005	0.00000E+000	-7.18868E-005	-5.99601E-002	7.38760E-001	3.57650E+000	9	...........
	10	0.146667	7.27430E-001	-9.80789E-005	0.00000E+000	-7.13456E-005	-5.99601E-002	7.27680E-001	3.57650E+000	9	...........
	11	0.16	7.16387E-001	-9.90135E-005	0.00000E+000	-7.09320E-005	-5.99601E-002	7.16665E-001	3.57650E+000	9	...........
	12	0.173333	7.05498E-001	-9.90124E-005	0.00000E+000	-6.98531E-005	-5.99601E-002	7.05759E-001	3.57650E+000	9	...........
	13	0.186667	6.94661E-001	-9.77111E-005	0.00000E+000	-6.78761E-005	-5.99601E-002	6.94935E-001	3.57650E+000	9	...........
	14	0.2	6.83897E-001	-9.87019E-005	0.00000E+000	-6.75019E-005	-5.99601E-002	6.84168E-001	3.57650E+000	9	...........
	15	0.213333	6.73196E-001	-9.95803E-005	0.00000E+000	-6.70371E-005	-5.99601E-002	6.73450E-001	3.57650E+000	9	...........
	16	0.226667	6.62503E-001	-9.80195E-005	0.00000E+000	-6.49382E-005	-5.99601E-002	6.62762E-001	3.57650E+000	9	...........
	17	0.24	6.51840E-001	-9.95636E-005	0.00000E+000	-6.48995E-005	-5.99601E-002	6.52068E-001	3.57650E+000	9	...........
	18	0.253333	6.41090E-001	-9.85186E-005	0.00000E+000	-6.31592E-005	-5.99601E-002	6.41327E-001	3.57650E+000	9	...........
	19	0.266667	6.30239E-001	-9.94875E-005	0.00000E+000	-6.27010E-005	-5.99601E-002	6.30476E-001	3.57650E+000	9	...........
	20	0.28	6.19275E-001	-9.96740E-005	0.00000E+000	-6.17257E-005	-5.99601E-002	6.19469E-001	3.57650E+000	9	...........
	21	0.293333	6.08049E-001	-9.83394E-005	0.00000E+000	-5.97951E-005	-5.99601E-002	6.08320E-001	3.57650E+000	9	...........
	22	0.306667	5.96703E-001	-9.86728E-005	0.00000E+000	-5.88784E-005	-5.99601E-002	5.96943E-001	3.57650E+000	9	...........
	23	0.32	5.85106E-001	-9.88832E-005	0.00000E+000	-5.78572E-005	-5.99601E-002	5.85367E-001	3.57650E+000	9	...........
	24	0.333333	5.73352E-001	-9.95396E-005	0.00000E+000	-5.70713E-005	-5.99601E-002	5.73580E-001	3.57650E+000	9	...........
	25	0.346667	5.61370E-001	-9.88676E-005	0.00000E+000	-5.55013E-005	-5.99601E-002	5.61590E-001	3.57650E+000	9	...........
	26	0.36	5.49206E-001	-9.90114E-005	0.00000E+000	-5.43776E-005	-5.99601E-002	5.49440E-001	3.57650E+000	9	...........
	27	0.373333	5.36872E-001	-9.86582E-005	0.00000E+000	-5.29669E-005	-5.99601E-002	5.37114E-001	3.57650E+000	9	...........
	28	0.386667	5.24390E-001	-9.80852E-005	0.00000E+000	-5.14349E-005	-5.99601E-002	5.24606E-001	3.57650E+000	9	...........
	29	0.4	5.11749E-001	-9.89051E-005	0.00000E+000	-5.06146E-005	-5.99601E-002	5.11986E-001	3.57650E+000	9	...........
	30	0.413333	4.98980E-001	-9.77549E-005	0.00000E+000	-4.87777E-005	-5.99601E-002	4.99241E-001	3.57650E+000	9	...........
	31	0.426667	4.86241E-001	-9.93167E-005	0.00000E+000	-4.82918E-005	-5.99601E-002	4.86394E-001	3.57650E+000	9	...........
	32	0.44	4.73467E-001	-9.85686E-005	0.00000E+000	-4.66690E-005	-5.99601E-002	4.73567E-001	3.57650E+000	9	...........
	33	0.453333	4.60406E-001	-9.81206E-005	0.00000E+000	-4.51753E-005	-5.99601E-002	4.60507E-001	3.57650E+000	9	...........
	34	0.466667	4.47283E-001	-9.72933E-005	0.00000E+000	-4.35176E-005	-5.99601E-002	4.47379E-001	3.57650E+000	9	...........
	35	0.48	4.34095E-001	-9.97355E-005	0.00000E+000	-4.32947E-005	-5.99601E-002	4.34195E-001	3.57650E+000	9	...........
	36	0.493333	4.20870E-001	-9.83196E-005	0.00000E+000	-4.13798E-005	-5.99601E-002	4.20961E-001	3.57650E+000	9	...........
	37	0.506667	4.07600E-001	-9.97105E-005	0.00000E+000	-4.06420E-005	-5.99601E-002	4.07688E-001	3.57650E+000	9	...........
	38	0.52	3.94322E-001	-9.93927E-005	0.00000E+000	-3.91928E-005	-5.99601E-002	3.94408E-001	3.57650E+000	9	...........
	39	0.533333	3.81027E-001	-9.88749E-005	0.00000E+000	-3.76740E-005	-5.99601E-002	3.81108E-001	3.57650E+000	9	...........
	40	0.546667	3.67736E-001	-9.80945E-005	0.00000E+000	-3.60729E-005	-5.99601E-002	3.67808E-001	3.57650E+000	9	...........
	41	0.56	3.54460E-001	-9.91812E-005	0.00000E+000	-3.51558E-005	-5.99601E-002	3.54531E-001	3.57650E+000	9	...........
	42	0.573333	3.41200E-001	-9.83331E-005	0.00000E+000	-3.35513E-005	-5.99601E-002	3.41274E-001	3.57650E+000	9	...........
	43	0.586667	3.27980E-001	-9.77361E-005	0.00000E+000	-3.20555E-005	-5.99601E-002	3.28055E-001	3.57650E+000	9	...........
	44	0.6	3.14791E-001	-9.81550E-005	0.00000E+000	-3.08983E-005	-5.99601E-002	3.14854E-001	3.57650E+000	9	...........
	45	0.613333	3.01648E-001	-9.84144E-005	0.00000E+000	-2.96865E-005	-5.99601E-002	3.01714E-001	3.57650E+000	9	...........
	46	0.626667	2.88558E-001	-9.67630E-005	0.00000E+000	-2.79217E-005	-5.99601E-002	2.88621E-001	3.57650E+000	9	...........
	47	0.64	2.75520E-001	-9.92541E-005	0.00000E+000	-2.73465E-005	-5.99601E-002	2.75576E-001	3.57650E+000	9	...........
	48	0.653333	2.62536E-001	-9.85811E-005	0.00000E+000	-2.58810E-005	-5.99601E-002	2.62592E-001	3.57650E+000	9	...........
	49	0.666667	2.49621E-001	-1.00281E-004	0.00000E+000	-2.50323E-005	-5.99601E-002	2.49672E-001	3.57650E+000	9	...........
	50	0.68	2.36771E-001	-9.83936E-005	0.00000E+000	-2.32967E-005	-5.99601E-002	2.36816E-001	3.57650E+000	9	...........
	51	0.693333	2.23987E-001	-9.94010E-005	0.00000E+000	-2.22646E-005	-5.99601E-002	2.24028E-001	3.57650E+000	9	...........
	52	0.706667	2.11275E-001	-9.89478E-005	0.00000E+000	-2.09052E-005	-5.99601E-002	2.11311E-001	3.57650E+000	9	...........
	53	0.72	1.98624E-001	-9.89906E-005	0.00000E+000	-1.96619E-005	-5.99601E-002	1.98664E-001	3.57650E+000	9	...........
	54	0.733333	1.86046E-001	-9.82821E-005	0.00000E+000	-1.82850E-005	-5.99601E-002	1.86079E-001	3.57650E+000	9	...........
	55	0.746667	1.73525E-001	-9.84238E-005	0.00000E+000	-1.70790E-005	-5.99601E-002	1.73561E-001	3.57650E+000	9	...........
	56	0.76	1.61076E-001	-9.88509E-005	0.00000E+000	-1.59225E-005	-5.99601E-002	1.61108E-001	3.57650E+000	9	...........
	57	0.773333	1.48691E-001	-9.94261E-005	0.00000E+000	-1.47838E-005	-5.99601E-002	1.48721E-001	3.57650E+000	9	...........
	58	0.786667	1.36362E-001	-9.90645E-005	0.00000E+000	-1.35086E-005	-5.99601E-002	1.36393E-001	3.57650E+000	9	...........
	59	0.8	1.24109E-001	-9.95480E-005	0.00000E+000	-1.23548E-005	-5.99601E-002	1.24132E-001	3.57650E+000	9	...........
	60	0.813333	1.11938E-001	-9.87520E-005	0.00000E+000	-1.10541E-005	-5.99601E-002	1.11962E-001	3.57650E+000	9	...........
	61	0.826667	9.98427E-002	-1.00019E-004	0.00000E+000	-9.98616E-006	-5.99601E-002	9.98594E-002	3.57650E+000	9	...........
	62	0.84	8.78435E-002	-9.92031E-005	0.00000E+000	-8.71435E-006	-5.99601E-002	8.78646E-002	3.57650E+000	9	...........
	63	0.853333	7.59618E-002	-1.00052E-004	0.00000E+000	-7.60014E-006	-5.99601E-002	7.59737E-002	3.57650E+000	9	...........
	64	0.866667	6.41835E-002	-9.89926E-005	0.00000E+000	-6.35369E-006	-5.99601E-002	6.41928E-002	3.57650E+000	9	...........
	65	0.88	5.25255E-002	-9.91291E-005	0.00000E+000	-5.20680E-006	-5.99601E-002	5.25345E-002	3.57650E+000	9	...........
	66	0.893333	4.10330E-002	-1.00604E-004	0.00000E+000	-4.12811E-006	-5.99601E-002	4.10391E-002	3.57685E+000	9	...........
	67	0.906667	2.96549E-002	-9.82477E-005	0.00000E+000	-2.91353E-006	-5.99601E-002	2.96528E-002	3.57790E+000	9	...........
	68	0.92	1.84306E-002	-9.83810E-005	0.00000E+000	-1.81322E-006	-5.99601E-002	1.84171E-002	3.57790E+000	9	...........
	69	0.933333	7.36533E-003	-9.86155E-005	0.00000E+000	-7.26336E-007	-5.99601E-002	7.35006E-003	3.57790E+000	9	...........
	70	0.936667	5.25845E-004	-1.00648E-004	0.00000E+000	-5.29254E-008	-5.99601E-002	5.02657E-004	3.57790E+000	9	...........
STARTTIMEOFFSET	QUANT	1252.336	Start Time Offset (s)
