EXPLAIN
TAG	PWR800_DISCHARGE
TITLE	LABEL	PWR Cyclic Charge Discharge (Cell) - Discharge Step	Test &Identifier
DATE	LABEL	12-7-2017	Date
TIME	LABEL	16:25:16	Time
NOTES	NOTES	2	&Notes...
	supercap test cell
	6M KOH
PSTAT	PSTAT	IFC5000-01520	Potentiostat
CAPACITY	QUANT	1.00000E-003	Capacity (A-hr)
CELLTYPE	SELECTOR	1	&Cell Type
WORKINGCONNECTION	SELECTOR	0	&Working Lead
MAXDISCHARGETIME	VARIABLEANDUNITS	1.00000E+002	s	1.00000E+002	second(s)	Max &Discharge Time
DISCHARGEMODE	MULTIPARAM	0	1.00000E-004	&Discharge Mode	Constant Current	Amp(s)
SAMPLETIME	QUANT	1.00000E-002	Sa&mple Period (s)
DISCHARGESTOPAT1	MULTIPARAM	3	0.00000E+000	Discharge Stop At &1	Voltage < Limit	V
DISCHARGESTOPAT2	MULTIPARAM	0	0.00000E+000	Discharge Stop At &2	None	N/A
AESBHCSELECTOR	TOGGLE	F	Save Both Half Cells
IRCOMP	TOGGLE	F	IR &Measure
EOC	QUANT	0	Open Circuit (V)
SEQUENCER	TOGGLE	TRUE	Run as Sequence
PSTATMODEL	IQUANT	53	Pstat Model
PSTATSECTION	LABEL	IFC5000-01520	Pstat Section
PSTATSERIALNO	LABEL	01520	Pstat Serial Number
CTRLMODE	IQUANT	0	Control Mode
ELECTROMETER	IQUANT	1	RE=0 or CS=1
IESTAB	IQUANT	0	I/E Stability
CASPEED	IQUANT	4	Control Amp Speed
CONVENTION	IQUANT	1	Current Convention
ICHRANGE	IQUANT	2	Ich Range
ICHRANGEMODE	TOGGLE	T	Ich Auto Range
ICHOFFSETENABLE	TOGGLE	F	Ich Offset Enable
ICHOFFSET	QUANT	0	Ich Offset (V)
ICHFILTER	IQUANT	1	Ich Filter
VCHRANGE	IQUANT	2	Vch Range
VCHRANGEMODE	TOGGLE	T	Vch Auto Range
VCHOFFSETENABLE	TOGGLE	F	Vch Offset Enable
VCHOFFSET	QUANT	0	Vch Offset (V)
VCHFILTER	IQUANT	1	Vch Filter
IERANGELOWERLIMIT	IQUANT	9	I/E Range Lower Limit
IERANGEMODE	TOGGLE	F	I/E AutoRange
IERANGE	IQUANT	9	I/E Range
ACHSELECT	IQUANT	1	Ach Select
ACHRANGE	IQUANT	2	Ach Range
ACHOFFSETENABLE	TOGGLE	F	Ach Offset Enable
ACHOFFSET	QUANT	0	Ach Offset (V)
ACHFILTER	IQUANT	1	Ach Filter
CABLEID	IQUANT	14	Cable ID
DCCALDATE	LABEL	5-7-2017	DC Calibration Date
ACCALDATE	LABEL	12/3/2015	AC Calibration Date
FRAMEWORKVERSION	QUANT	7.01	Framework Version
INSTRUMENTVERSION	LABEL	4.00	Instrument Version
CURVE	TABLE	71
	Pt	T	Vf	Im	Vu	Pwr	Sig	Ach	Temp	IERange	Over
	#	s	V	A	V	W	V	V	deg C	#	bits
	0	0.013333	8.46822E-001	-9.90739E-005	0.00000E+000	-8.38979E-005	-5.99601E-002	8.47133E-001	3.57770E+000	9	...........
	1	0.026667	8.33863E-001	-9.78601E-005	0.00000E+000	-8.16020E-005	-5.99601E-002	8.34147E-001	3.57770E+000	9	...........
	2	0.04	8.21488E-001	-9.92021E-005	0.00000E+000	-8.14933E-005	-5.99601E-002	8.21761E-001	3.57770E+000	9	...........
	3	0.053333	8.09483E-001	-9.87926E-005	0.00000E+000	-7.99709E-005	-5.99601E-002	8.09767E-001	3.57741E+000	9	...........
	4	0.066667	7.97768E-001	-9.90822E-005	0.00000E+000	-7.90446E-005	-5.99601E-002	7.98043E-001	3.57740E+000	9	...........
	5	0.08	7.86226E-001	-9.93104E-005	0.00000E+000	-7.80804E-005	-5.99601E-002	7.86506E-001	3.57740E+000	9	...........
	6	0.093333	7.74873E-001	-9.79174E-005	0.00000E+000	-7.58735E-005	-5.99601E-002	7.75141E-001	3.57740E+000	9	...........
	7	0.106667	7.63622E-001	-9.73277E-005	0.00000E+000	-7.43216E-005	-5.99601E-002	7.63916E-001	3.57740E+000	9	...........
	8	0.12	7.52515E-001	-9.93198E-005	0.00000E+000	-7.47396E-005	-5.99601E-002	7.52802E-001	3.57740E+000	9	...........
	9	0.133333	7.41545E-001	-9.85780E-005	0.00000E+000	-7.31000E-005	-5.99601E-002	7.41801E-001	3.57740E+000	9	...........
	10	0.146667	7.30609E-001	-9.92291E-005	0.00000E+000	-7.24977E-005	-5.99601E-002	7.30908E-001	3.57740E+000	9	...........
	11	0.16	7.19802E-001	-9.76788E-005	0.00000E+000	-7.03094E-005	-5.99601E-002	7.20081E-001	3.57740E+000	9	...........
	12	0.173333	7.09026E-001	-9.89853E-005	0.00000E+000	-7.01832E-005	-5.99601E-002	7.09319E-001	3.57740E+000	9	...........
	13	0.186667	6.98341E-001	-9.70516E-005	0.00000E+000	-6.77751E-005	-5.99601E-002	6.98614E-001	3.57740E+000	9	...........
	14	0.2	6.87644E-001	-9.89895E-005	0.00000E+000	-6.80696E-005	-5.99601E-002	6.87934E-001	3.57740E+000	9	...........
	15	0.213333	6.76963E-001	-9.84696E-005	0.00000E+000	-6.66603E-005	-5.99601E-002	6.77237E-001	3.57740E+000	9	...........
	16	0.226667	6.66200E-001	-9.77715E-005	0.00000E+000	-6.51354E-005	-5.99601E-002	6.66477E-001	3.57740E+000	9	...........
	17	0.24	6.55306E-001	-9.98230E-005	0.00000E+000	-6.54146E-005	-5.99601E-002	6.55589E-001	3.57740E+000	9	...........
	18	0.253333	6.44297E-001	-9.86811E-005	0.00000E+000	-6.35799E-005	-5.99601E-002	6.44579E-001	3.57740E+000	9	...........
	19	0.266667	6.33102E-001	-9.89812E-005	0.00000E+000	-6.26651E-005	-5.99601E-002	6.33396E-001	3.57740E+000	9	...........
	20	0.28	6.21789E-001	-9.84498E-005	0.00000E+000	-6.12150E-005	-5.99601E-002	6.22027E-001	3.57740E+000	9	...........
	21	0.293333	6.10203E-001	-9.87447E-005	0.00000E+000	-6.02543E-005	-5.99601E-002	6.10508E-001	3.57740E+000	9	...........
	22	0.306667	5.98511E-001	-9.74027E-005	0.00000E+000	-5.82966E-005	-5.99601E-002	5.98780E-001	3.57740E+000	9	...........
	23	0.32	5.86661E-001	-9.82664E-005	0.00000E+000	-5.76491E-005	-5.99601E-002	5.86921E-001	3.57740E+000	9	...........
	24	0.333333	5.74636E-001	-9.78174E-005	0.00000E+000	-5.62094E-005	-5.99601E-002	5.74887E-001	3.57740E+000	9	...........
	25	0.346667	5.62471E-001	-9.88509E-005	0.00000E+000	-5.56007E-005	-5.99601E-002	5.62730E-001	3.57740E+000	9	...........
	26	0.36	5.50169E-001	-9.89155E-005	0.00000E+000	-5.44202E-005	-5.99601E-002	5.50444E-001	3.57740E+000	9	...........
	27	0.373333	5.37791E-001	-9.85988E-005	0.00000E+000	-5.30256E-005	-5.99601E-002	5.38019E-001	3.57740E+000	9	...........
	28	0.386667	5.25281E-001	-9.97386E-005	0.00000E+000	-5.23908E-005	-5.99601E-002	5.25501E-001	3.57740E+000	9	...........
	29	0.4	5.12667E-001	-9.78570E-005	0.00000E+000	-5.01681E-005	-5.99601E-002	5.12905E-001	3.57740E+000	9	...........
	30	0.413333	4.99945E-001	-9.84904E-005	0.00000E+000	-4.92398E-005	-5.99601E-002	5.00234E-001	3.57740E+000	9	...........
	31	0.426667	4.87295E-001	-9.82883E-005	0.00000E+000	-4.78954E-005	-5.99601E-002	4.87530E-001	3.57740E+000	9	...........
	32	0.44	4.74750E-001	-9.87040E-005	0.00000E+000	-4.68598E-005	-5.99601E-002	4.74853E-001	3.57740E+000	9	...........
	33	0.453333	4.61884E-001	-9.83008E-005	0.00000E+000	-4.54036E-005	-5.99601E-002	4.61992E-001	3.57740E+000	9	...........
	34	0.466667	4.48993E-001	-9.79507E-005	0.00000E+000	-4.39792E-005	-5.99601E-002	4.49101E-001	3.57740E+000	9	...........
	35	0.48	4.36075E-001	-9.86988E-005	0.00000E+000	-4.30401E-005	-5.99601E-002	4.36178E-001	3.57740E+000	9	...........
	36	0.493333	4.23139E-001	-9.86811E-005	0.00000E+000	-4.17558E-005	-5.99601E-002	4.23237E-001	3.57740E+000	9	...........
	37	0.506667	4.10191E-001	-9.88780E-005	0.00000E+000	-4.05589E-005	-5.99601E-002	4.10280E-001	3.57740E+000	9	...........
	38	0.52	3.97247E-001	-9.85477E-005	0.00000E+000	-3.91478E-005	-5.99601E-002	3.97330E-001	3.57740E+000	9	...........
	39	0.533333	3.84300E-001	-9.92656E-005	0.00000E+000	-3.81478E-005	-5.99601E-002	3.84385E-001	3.57740E+000	9	...........
	40	0.546667	3.71379E-001	-9.79237E-005	0.00000E+000	-3.63668E-005	-5.99601E-002	3.71458E-001	3.57740E+000	9	...........
	41	0.56	3.58469E-001	-9.80185E-005	0.00000E+000	-3.51366E-005	-5.99601E-002	3.58546E-001	3.57740E+000	9	...........
	42	0.573333	3.45590E-001	-9.89635E-005	0.00000E+000	-3.42007E-005	-5.99601E-002	3.45664E-001	3.57740E+000	9	...........
	43	0.586667	3.32740E-001	-9.84613E-005	0.00000E+000	-3.27620E-005	-5.99601E-002	3.32812E-001	3.57740E+000	9	...........
	44	0.6	3.19944E-001	-9.75903E-005	0.00000E+000	-3.12235E-005	-5.99601E-002	3.20012E-001	3.57740E+000	9	...........
	45	0.613333	3.07180E-001	-9.87311E-005	0.00000E+000	-3.03283E-005	-5.99601E-002	3.07246E-001	3.57740E+000	9	...........
	46	0.626667	2.94456E-001	-9.92208E-005	0.00000E+000	-2.92162E-005	-5.99601E-002	2.94523E-001	3.57740E+000	9	...........
	47	0.64	2.81784E-001	-9.91489E-005	0.00000E+000	-2.79386E-005	-5.99601E-002	2.81848E-001	3.57740E+000	9	...........
	48	0.653333	2.69162E-001	-9.80070E-005	0.00000E+000	-2.63797E-005	-5.99601E-002	2.69217E-001	3.57740E+000	9	...........
	49	0.666667	2.56568E-001	-9.87822E-005	0.00000E+000	-2.53444E-005	-5.99601E-002	2.56625E-001	3.57740E+000	9	...........
	50	0.68	2.44032E-001	-9.88489E-005	0.00000E+000	-2.41223E-005	-5.99601E-002	2.44081E-001	3.57740E+000	9	...........
	51	0.693333	2.31525E-001	-9.82060E-005	0.00000E+000	-2.27372E-005	-5.99601E-002	2.31571E-001	3.57740E+000	9	...........
	52	0.706667	2.19053E-001	-9.89155E-005	0.00000E+000	-2.16677E-005	-5.99601E-002	2.19098E-001	3.57740E+000	9	...........
	53	0.72	2.06631E-001	-1.00311E-004	0.00000E+000	-2.07273E-005	-5.99601E-002	2.06673E-001	3.57740E+000	9	...........
	54	0.733333	1.94237E-001	-9.95615E-005	0.00000E+000	-1.93385E-005	-5.99601E-002	1.94272E-001	3.57740E+000	9	...........
	55	0.746667	1.81878E-001	-9.96563E-005	0.00000E+000	-1.81252E-005	-5.99601E-002	1.81922E-001	3.57740E+000	9	...........
	56	0.76	1.69562E-001	-9.86478E-005	0.00000E+000	-1.67269E-005	-5.99601E-002	1.69600E-001	3.57740E+000	9	...........
	57	0.773333	1.57284E-001	-9.88989E-005	0.00000E+000	-1.55552E-005	-5.99601E-002	1.57316E-001	3.57740E+000	9	...........
	58	0.786667	1.45048E-001	-9.70620E-005	0.00000E+000	-1.40786E-005	-5.99601E-002	1.45076E-001	3.57740E+000	9	...........
	59	0.8	1.32850E-001	-9.90468E-005	0.00000E+000	-1.31583E-005	-5.99601E-002	1.32876E-001	3.57740E+000	9	...........
	60	0.813333	1.20714E-001	-9.92479E-005	0.00000E+000	-1.19806E-005	-5.99601E-002	1.20738E-001	3.57740E+000	9	...........
	61	0.826667	1.08646E-001	-9.86342E-005	0.00000E+000	-1.07162E-005	-5.99601E-002	1.08671E-001	3.57740E+000	9	...........
	62	0.84	9.66448E-002	-9.86332E-005	0.00000E+000	-9.53239E-006	-5.99601E-002	9.66635E-002	3.57740E+000	9	...........
	63	0.853333	8.47257E-002	-9.86749E-005	0.00000E+000	-8.36029E-006	-5.99601E-002	8.47375E-002	3.57740E+000	9	...........
	64	0.866667	7.28902E-002	-9.99335E-005	0.00000E+000	-7.28417E-006	-5.99601E-002	7.29035E-002	3.57740E+000	9	...........
	65	0.88	6.11607E-002	-9.88520E-005	0.00000E+000	-6.04585E-006	-5.99601E-002	6.11711E-002	3.57740E+000	9	...........
	66	0.893333	4.95490E-002	-9.84509E-005	0.00000E+000	-4.87815E-006	-5.99601E-002	4.95452E-002	3.57740E+000	9	...........
	67	0.906667	3.80662E-002	-9.73798E-005	0.00000E+000	-3.70687E-006	-5.99601E-002	3.80642E-002	3.57740E+000	9	...........
	68	0.92	2.66932E-002	-9.90249E-005	0.00000E+000	-2.64329E-006	-5.99601E-002	2.66880E-002	3.57740E+000	9	...........
	69	0.933333	1.54626E-002	-9.87488E-005	0.00000E+000	-1.52692E-006	-5.99601E-002	1.54544E-002	3.57740E+000	9	...........
	70	0.946667	4.39157E-003	-9.67370E-005	0.00000E+000	-4.24827E-007	-5.99601E-002	4.37659E-003	3.57740E+000	9	...........
STARTTIMEOFFSET	QUANT	650.9383	Start Time Offset (s)
