EXPLAIN
TAG	PWR800_DISCHARGE
TITLE	LABEL	PWR Cyclic Charge Discharge (Cell) - Discharge Step	Test &Identifier
DATE	LABEL	12-7-2017	Date
TIME	LABEL	16:42:37	Time
NOTES	NOTES	2	&Notes...
	supercap test cell
	6M KOH
PSTAT	PSTAT	IFC5000-01520	Potentiostat
CAPACITY	QUANT	1.00000E-003	Capacity (A-hr)
CELLTYPE	SELECTOR	1	&Cell Type
WORKINGCONNECTION	SELECTOR	0	&Working Lead
MAXDISCHARGETIME	VARIABLEANDUNITS	1.00000E+002	s	1.00000E+002	second(s)	Max &Discharge Time
DISCHARGEMODE	MULTIPARAM	0	1.00000E-004	&Discharge Mode	Constant Current	Amp(s)
SAMPLETIME	QUANT	1.00000E-002	Sa&mple Period (s)
DISCHARGESTOPAT1	MULTIPARAM	3	0.00000E+000	Discharge Stop At &1	Voltage < Limit	V
DISCHARGESTOPAT2	MULTIPARAM	0	0.00000E+000	Discharge Stop At &2	None	N/A
AESBHCSELECTOR	TOGGLE	F	Save Both Half Cells
IRCOMP	TOGGLE	F	IR &Measure
EOC	QUANT	0	Open Circuit (V)
SEQUENCER	TOGGLE	TRUE	Run as Sequence
PSTATMODEL	IQUANT	53	Pstat Model
PSTATSECTION	LABEL	IFC5000-01520	Pstat Section
PSTATSERIALNO	LABEL	01520	Pstat Serial Number
CTRLMODE	IQUANT	0	Control Mode
ELECTROMETER	IQUANT	1	RE=0 or CS=1
IESTAB	IQUANT	0	I/E Stability
CASPEED	IQUANT	4	Control Amp Speed
CONVENTION	IQUANT	1	Current Convention
ICHRANGE	IQUANT	2	Ich Range
ICHRANGEMODE	TOGGLE	T	Ich Auto Range
ICHOFFSETENABLE	TOGGLE	F	Ich Offset Enable
ICHOFFSET	QUANT	0	Ich Offset (V)
ICHFILTER	IQUANT	1	Ich Filter
VCHRANGE	IQUANT	2	Vch Range
VCHRANGEMODE	TOGGLE	T	Vch Auto Range
VCHOFFSETENABLE	TOGGLE	F	Vch Offset Enable
VCHOFFSET	QUANT	0	Vch Offset (V)
VCHFILTER	IQUANT	1	Vch Filter
IERANGELOWERLIMIT	IQUANT	9	I/E Range Lower Limit
IERANGEMODE	TOGGLE	F	I/E AutoRange
IERANGE	IQUANT	9	I/E Range
ACHSELECT	IQUANT	1	Ach Select
ACHRANGE	IQUANT	2	Ach Range
ACHOFFSETENABLE	TOGGLE	F	Ach Offset Enable
ACHOFFSET	QUANT	0	Ach Offset (V)
ACHFILTER	IQUANT	1	Ach Filter
CABLEID	IQUANT	14	Cable ID
DCCALDATE	LABEL	5-7-2017	DC Calibration Date
ACCALDATE	LABEL	12/3/2015	AC Calibration Date
FRAMEWORKVERSION	QUANT	7.01	Framework Version
INSTRUMENTVERSION	LABEL	4.00	Instrument Version
CURVE	TABLE	71
	Pt	T	Vf	Im	Vu	Pwr	Sig	Ach	Temp	IERange	Over
	#	s	V	A	V	W	V	V	deg C	#	bits
	0	0.013333	8.44499E-001	-9.95803E-005	0.00000E+000	-8.40954E-005	-5.99601E-002	8.44809E-001	3.57690E+000	9	...........
	1	0.026667	8.31377E-001	-9.89134E-005	0.00000E+000	-8.22344E-005	-5.99601E-002	8.31671E-001	3.57690E+000	9	...........
	2	0.04	8.18847E-001	-1.01247E-004	0.00000E+000	-8.29060E-005	-5.99601E-002	8.19110E-001	3.57690E+000	9	...........
	3	0.053333	8.06672E-001	-9.93719E-005	0.00000E+000	-8.01605E-005	-5.99601E-002	8.06936E-001	3.57690E+000	9	...........
	4	0.066667	7.94755E-001	-9.91062E-005	0.00000E+000	-7.87652E-005	-5.99601E-002	7.95018E-001	3.57690E+000	9	...........
	5	0.08	7.83031E-001	-9.82414E-005	0.00000E+000	-7.69261E-005	-5.99601E-002	7.83277E-001	3.57690E+000	9	...........
	6	0.093333	7.71497E-001	-9.81289E-005	0.00000E+000	-7.57061E-005	-5.99601E-002	7.71747E-001	3.57690E+000	9	...........
	7	0.106667	7.60049E-001	-9.94198E-005	0.00000E+000	-7.55639E-005	-5.99601E-002	7.60312E-001	3.57690E+000	9	...........
	8	0.12	7.48742E-001	-9.89624E-005	0.00000E+000	-7.40973E-005	-5.99601E-002	7.49006E-001	3.57690E+000	9	...........
	9	0.133333	7.37513E-001	-9.84800E-005	0.00000E+000	-7.26303E-005	-5.99601E-002	7.37765E-001	3.57690E+000	9	...........
	10	0.146667	7.26430E-001	-9.87259E-005	0.00000E+000	-7.17175E-005	-5.99601E-002	7.26643E-001	3.57690E+000	9	...........
	11	0.16	7.15353E-001	-9.87040E-005	0.00000E+000	-7.06083E-005	-5.99601E-002	7.15579E-001	3.57690E+000	9	...........
	12	0.173333	7.04388E-001	-9.89093E-005	0.00000E+000	-6.96705E-005	-5.99601E-002	7.04625E-001	3.57690E+000	9	...........
	13	0.186667	6.93523E-001	-9.91989E-005	0.00000E+000	-6.87967E-005	-5.99601E-002	6.93750E-001	3.57690E+000	9	...........
	14	0.2	6.82725E-001	-9.90468E-005	0.00000E+000	-6.76217E-005	-5.99601E-002	6.82967E-001	3.57690E+000	9	...........
	15	0.213333	6.72009E-001	-9.76684E-005	0.00000E+000	-6.56340E-005	-5.99601E-002	6.72223E-001	3.57690E+000	9	...........
	16	0.226667	6.61267E-001	-9.89072E-005	0.00000E+000	-6.54041E-005	-5.99601E-002	6.61496E-001	3.57690E+000	9	...........
	17	0.24	6.50572E-001	-9.82800E-005	0.00000E+000	-6.39382E-005	-5.99601E-002	6.50819E-001	3.57690E+000	9	...........
	18	0.253333	6.39815E-001	-9.79539E-005	0.00000E+000	-6.26724E-005	-5.99601E-002	6.40067E-001	3.57690E+000	9	...........
	19	0.266667	6.28969E-001	-9.88061E-005	0.00000E+000	-6.21460E-005	-5.99601E-002	6.29213E-001	3.57690E+000	9	...........
	20	0.28	6.18006E-001	-9.86436E-005	0.00000E+000	-6.09623E-005	-5.99601E-002	6.18226E-001	3.57690E+000	9	...........
	21	0.293333	6.06797E-001	-9.84581E-005	0.00000E+000	-5.97441E-005	-5.99601E-002	6.07035E-001	3.57690E+000	9	...........
	22	0.306667	5.95448E-001	-9.86655E-005	0.00000E+000	-5.87501E-005	-5.99601E-002	5.95680E-001	3.57690E+000	9	...........
	23	0.32	5.83841E-001	-9.98751E-005	0.00000E+000	-5.83112E-005	-5.99601E-002	5.84090E-001	3.57690E+000	9	...........
	24	0.333333	5.72083E-001	-9.97553E-005	0.00000E+000	-5.70683E-005	-5.99601E-002	5.72315E-001	3.57690E+000	9	...........
	25	0.346667	5.60075E-001	-9.88905E-005	0.00000E+000	-5.53861E-005	-5.99601E-002	5.60324E-001	3.57690E+000	9	...........
	26	0.36	5.47911E-001	-9.75215E-005	0.00000E+000	-5.34331E-005	-5.99601E-002	5.48149E-001	3.57690E+000	9	...........
	27	0.373333	5.35572E-001	-9.79341E-005	0.00000E+000	-5.24507E-005	-5.99601E-002	5.35809E-001	3.57690E+000	9	...........
	28	0.386667	5.23045E-001	-9.95167E-005	0.00000E+000	-5.20517E-005	-5.99601E-002	5.23286E-001	3.57690E+000	9	...........
	29	0.4	5.10380E-001	-9.93302E-005	0.00000E+000	-5.06962E-005	-5.99601E-002	5.10623E-001	3.57690E+000	9	...........
	30	0.413333	4.97617E-001	-9.82112E-005	0.00000E+000	-4.88715E-005	-5.99601E-002	4.97839E-001	3.57690E+000	9	...........
	31	0.426667	4.84867E-001	-9.89489E-005	0.00000E+000	-4.79771E-005	-5.99601E-002	4.85017E-001	3.57690E+000	9	...........
	32	0.44	4.72024E-001	-9.77601E-005	0.00000E+000	-4.61451E-005	-5.99601E-002	4.72119E-001	3.57690E+000	9	...........
	33	0.453333	4.58927E-001	-9.90843E-005	0.00000E+000	-4.54725E-005	-5.99601E-002	4.59029E-001	3.57690E+000	9	...........
	34	0.466667	4.45761E-001	-9.92208E-005	0.00000E+000	-4.42288E-005	-5.99601E-002	4.45862E-001	3.57690E+000	9	...........
	35	0.48	4.32543E-001	-9.78153E-005	0.00000E+000	-4.23094E-005	-5.99601E-002	4.32634E-001	3.57690E+000	9	...........
	36	0.493333	4.19268E-001	-9.87905E-005	0.00000E+000	-4.14197E-005	-5.99601E-002	4.19362E-001	3.57690E+000	9	...........
	37	0.506667	4.05961E-001	-1.00191E-004	0.00000E+000	-4.06736E-005	-5.99601E-002	4.06049E-001	3.57690E+000	9	...........
	38	0.52	3.92626E-001	-9.89947E-005	0.00000E+000	-3.88679E-005	-5.99601E-002	3.92709E-001	3.57690E+000	9	...........
	39	0.533333	3.79282E-001	-9.70422E-005	0.00000E+000	-3.68063E-005	-5.99601E-002	3.79365E-001	3.57690E+000	9	...........
	40	0.546667	3.65933E-001	-9.87311E-005	0.00000E+000	-3.61290E-005	-5.99601E-002	3.66005E-001	3.57690E+000	9	...........
	41	0.56	3.52607E-001	-9.84352E-005	0.00000E+000	-3.47090E-005	-5.99601E-002	3.52674E-001	3.57690E+000	9	...........
	42	0.573333	3.39292E-001	-9.94386E-005	0.00000E+000	-3.37387E-005	-5.99601E-002	3.39365E-001	3.57690E+000	9	...........
	43	0.586667	3.26027E-001	-9.81570E-005	0.00000E+000	-3.20018E-005	-5.99601E-002	3.26086E-001	3.57690E+000	9	...........
	44	0.6	3.12792E-001	-9.74767E-005	0.00000E+000	-3.04900E-005	-5.99601E-002	3.12853E-001	3.57690E+000	9	...........
	45	0.613333	2.99598E-001	-9.73121E-005	0.00000E+000	-2.91545E-005	-5.99601E-002	2.99662E-001	3.57690E+000	9	...........
	46	0.626667	2.86455E-001	-9.91635E-005	0.00000E+000	-2.84059E-005	-5.99601E-002	2.86510E-001	3.57690E+000	9	...........
	47	0.64	2.73379E-001	-9.90562E-005	0.00000E+000	-2.70798E-005	-5.99601E-002	2.73432E-001	3.57690E+000	9	...........
	48	0.653333	2.60357E-001	-9.92917E-005	0.00000E+000	-2.58512E-005	-5.99601E-002	2.60406E-001	3.57690E+000	9	...........
	49	0.666667	2.47407E-001	-9.74559E-005	0.00000E+000	-2.41112E-005	-5.99601E-002	2.47451E-001	3.57690E+000	9	...........
	50	0.68	2.34519E-001	-9.76184E-005	0.00000E+000	-2.28933E-005	-5.99601E-002	2.34560E-001	3.57740E+000	9	...........
	51	0.693333	2.21703E-001	-9.91948E-005	0.00000E+000	-2.19918E-005	-5.99601E-002	2.21743E-001	3.57790E+000	9	...........
	52	0.706667	2.08959E-001	-9.96688E-005	0.00000E+000	-2.08267E-005	-5.99601E-002	2.08994E-001	3.57790E+000	9	...........
	53	0.72	1.96278E-001	-9.83842E-005	0.00000E+000	-1.93106E-005	-5.99601E-002	1.96313E-001	3.57790E+000	9	...........
	54	0.733333	1.83665E-001	-9.94792E-005	0.00000E+000	-1.82708E-005	-5.99601E-002	1.83702E-001	3.57790E+000	9	...........
	55	0.746667	1.71120E-001	-9.94208E-005	0.00000E+000	-1.70129E-005	-5.99601E-002	1.71153E-001	3.57790E+000	9	...........
	56	0.76	1.58657E-001	-9.92937E-005	0.00000E+000	-1.57536E-005	-5.99601E-002	1.58683E-001	3.57790E+000	9	...........
	57	0.773333	1.46249E-001	-9.89343E-005	0.00000E+000	-1.44690E-005	-5.99601E-002	1.46273E-001	3.57790E+000	9	...........
	58	0.786667	1.33907E-001	-9.92083E-005	0.00000E+000	-1.32847E-005	-5.99601E-002	1.33935E-001	3.57790E+000	9	...........
	59	0.8	1.21642E-001	-9.85405E-005	0.00000E+000	-1.19867E-005	-5.99601E-002	1.21669E-001	3.57790E+000	9	...........
	60	0.813333	1.09449E-001	-9.88113E-005	0.00000E+000	-1.08148E-005	-5.99601E-002	1.09474E-001	3.57790E+000	9	...........
	61	0.826667	9.73567E-002	-9.81300E-005	0.00000E+000	-9.55361E-006	-5.99601E-002	9.73762E-002	3.57790E+000	9	...........
	62	0.84	8.53553E-002	-9.90947E-005	0.00000E+000	-8.45827E-006	-5.99601E-002	8.53703E-002	3.57790E+000	9	...........
	63	0.853333	7.34617E-002	-9.93750E-005	0.00000E+000	-7.30026E-006	-5.99601E-002	7.34675E-002	3.57790E+000	9	...........
	64	0.866667	6.16804E-002	-9.96053E-005	0.00000E+000	-6.14369E-006	-5.99601E-002	6.16904E-002	3.57790E+000	9	...........
	65	0.88	5.00503E-002	-9.84675E-005	0.00000E+000	-4.92833E-006	-5.99601E-002	5.00487E-002	3.57790E+000	9	...........
	66	0.893333	3.85673E-002	-9.98470E-005	0.00000E+000	-3.85083E-006	-5.99601E-002	3.85732E-002	3.57790E+000	9	...........
	67	0.906667	2.72115E-002	-9.95761E-005	0.00000E+000	-2.70962E-006	-5.99601E-002	2.72047E-002	3.57790E+000	9	...........
	68	0.92	1.60126E-002	-9.80841E-005	0.00000E+000	-1.57058E-006	-5.99601E-002	1.59976E-002	3.57790E+000	9	...........
	69	0.933333	4.96874E-003	-9.91646E-005	0.00000E+000	-4.92723E-007	-5.99601E-002	4.94783E-003	3.57790E+000	9	...........
	70	0.935	-1.18224E-003	-1.00969E-004	0.00000E+000	1.19369E-007	-5.99601E-002	-1.20101E-003	3.57790E+000	9	...........
STARTTIMEOFFSET	QUANT	1389.654	Start Time Offset (s)
