EXPLAIN
TAG	PWR800_DISCHARGE
TITLE	LABEL	PWR Cyclic Charge Discharge (Cell) - Discharge Step	Test &Identifier
DATE	LABEL	12-7-2017	Date
TIME	LABEL	16:43:13	Time
NOTES	NOTES	2	&Notes...
	supercap test cell
	6M KOH
PSTAT	PSTAT	IFC5000-01520	Potentiostat
CAPACITY	QUANT	1.00000E-003	Capacity (A-hr)
CELLTYPE	SELECTOR	1	&Cell Type
WORKINGCONNECTION	SELECTOR	0	&Working Lead
MAXDISCHARGETIME	VARIABLEANDUNITS	1.00000E+002	s	1.00000E+002	second(s)	Max &Discharge Time
DISCHARGEMODE	MULTIPARAM	0	1.00000E-004	&Discharge Mode	Constant Current	Amp(s)
SAMPLETIME	QUANT	1.00000E-002	Sa&mple Period (s)
DISCHARGESTOPAT1	MULTIPARAM	3	0.00000E+000	Discharge Stop At &1	Voltage < Limit	V
DISCHARGESTOPAT2	MULTIPARAM	0	0.00000E+000	Discharge Stop At &2	None	N/A
AESBHCSELECTOR	TOGGLE	F	Save Both Half Cells
IRCOMP	TOGGLE	F	IR &Measure
EOC	QUANT	0	Open Circuit (V)
SEQUENCER	TOGGLE	TRUE	Run as Sequence
PSTATMODEL	IQUANT	53	Pstat Model
PSTATSECTION	LABEL	IFC5000-01520	Pstat Section
PSTATSERIALNO	LABEL	01520	Pstat Serial Number
CTRLMODE	IQUANT	0	Control Mode
ELECTROMETER	IQUANT	1	RE=0 or CS=1
IESTAB	IQUANT	0	I/E Stability
CASPEED	IQUANT	4	Control Amp Speed
CONVENTION	IQUANT	1	Current Convention
ICHRANGE	IQUANT	2	Ich Range
ICHRANGEMODE	TOGGLE	T	Ich Auto Range
ICHOFFSETENABLE	TOGGLE	F	Ich Offset Enable
ICHOFFSET	QUANT	0	Ich Offset (V)
ICHFILTER	IQUANT	1	Ich Filter
VCHRANGE	IQUANT	2	Vch Range
VCHRANGEMODE	TOGGLE	T	Vch Auto Range
VCHOFFSETENABLE	TOGGLE	F	Vch Offset Enable
VCHOFFSET	QUANT	0	Vch Offset (V)
VCHFILTER	IQUANT	1	Vch Filter
IERANGELOWERLIMIT	IQUANT	9	I/E Range Lower Limit
IERANGEMODE	TOGGLE	F	I/E AutoRange
IERANGE	IQUANT	9	I/E Range
ACHSELECT	IQUANT	1	Ach Select
ACHRANGE	IQUANT	2	Ach Range
ACHOFFSETENABLE	TOGGLE	F	Ach Offset Enable
ACHOFFSET	QUANT	0	Ach Offset (V)
ACHFILTER	IQUANT	1	Ach Filter
CABLEID	IQUANT	14	Cable ID
DCCALDATE	LABEL	5-7-2017	DC Calibration Date
ACCALDATE	LABEL	12/3/2015	AC Calibration Date
FRAMEWORKVERSION	QUANT	7.01	Framework Version
INSTRUMENTVERSION	LABEL	4.00	Instrument Version
CURVE	TABLE	71
	Pt	T	Vf	Im	Vu	Pwr	Sig	Ach	Temp	IERange	Over
	#	s	V	A	V	W	V	V	deg C	#	bits
	0	0.013333	8.45045E-001	-9.86040E-005	0.00000E+000	-8.33248E-005	-5.99601E-002	8.45353E-001	3.57850E+000	9	...........
	1	0.026667	8.31914E-001	-9.88332E-005	0.00000E+000	-8.22207E-005	-5.99601E-002	8.32193E-001	3.57850E+000	9	...........
	2	0.04	8.19358E-001	-9.95896E-005	0.00000E+000	-8.15996E-005	-5.99601E-002	8.19630E-001	3.57850E+000	9	...........
	3	0.053333	8.07202E-001	-9.95948E-005	0.00000E+000	-8.03932E-005	-5.99601E-002	8.07442E-001	3.57850E+000	9	...........
	4	0.066667	7.95290E-001	-9.90072E-005	0.00000E+000	-7.87395E-005	-5.99601E-002	7.95535E-001	3.57850E+000	9	...........
	5	0.08	7.83572E-001	-9.91823E-005	0.00000E+000	-7.77165E-005	-5.99601E-002	7.83795E-001	3.57850E+000	9	...........
	6	0.093333	7.72003E-001	-9.73673E-005	0.00000E+000	-7.51678E-005	-5.99601E-002	7.72242E-001	3.57850E+000	9	...........
	7	0.106667	7.60568E-001	-9.94094E-005	0.00000E+000	-7.56076E-005	-5.99601E-002	7.60779E-001	3.57850E+000	9	...........
	8	0.12	7.49236E-001	-9.87353E-005	0.00000E+000	-7.39760E-005	-5.99601E-002	7.49460E-001	3.57850E+000	9	...........
	9	0.133333	7.37999E-001	-9.98793E-005	0.00000E+000	-7.37108E-005	-5.99601E-002	7.38228E-001	3.57850E+000	9	...........
	10	0.146667	7.26881E-001	-9.87530E-005	0.00000E+000	-7.17817E-005	-5.99601E-002	7.27123E-001	3.57850E+000	9	...........
	11	0.16	7.15817E-001	-9.88509E-005	0.00000E+000	-7.07592E-005	-5.99601E-002	7.16066E-001	3.57850E+000	9	...........
	12	0.173333	7.04854E-001	-9.92521E-005	0.00000E+000	-6.99583E-005	-5.99601E-002	7.05106E-001	3.57850E+000	9	...........
	13	0.186667	6.93973E-001	-9.97084E-005	0.00000E+000	-6.91949E-005	-5.99601E-002	6.94219E-001	3.57850E+000	9	...........
	14	0.2	6.83170E-001	-9.84029E-005	0.00000E+000	-6.72259E-005	-5.99601E-002	6.83419E-001	3.57850E+000	9	...........
	15	0.213333	6.72430E-001	-9.91416E-005	0.00000E+000	-6.66658E-005	-5.99601E-002	6.72680E-001	3.57850E+000	9	...........
	16	0.226667	6.61692E-001	-9.89655E-005	0.00000E+000	-6.54847E-005	-5.99601E-002	6.61933E-001	3.57675E+000	9	...........
	17	0.24	6.50991E-001	-9.88228E-005	0.00000E+000	-6.43327E-005	-5.99601E-002	6.51231E-001	3.57650E+000	9	...........
	18	0.253333	6.40261E-001	-9.86842E-005	0.00000E+000	-6.31836E-005	-5.99601E-002	6.40491E-001	3.57650E+000	9	...........
	19	0.266667	6.29403E-001	-9.93771E-005	0.00000E+000	-6.25482E-005	-5.99601E-002	6.29614E-001	3.57650E+000	9	...........
	20	0.28	6.18460E-001	-9.92489E-005	0.00000E+000	-6.13815E-005	-5.99601E-002	6.18657E-001	3.57650E+000	9	...........
	21	0.293333	6.07222E-001	-9.96938E-005	0.00000E+000	-6.05363E-005	-5.99601E-002	6.07487E-001	3.57650E+000	9	...........
	22	0.306667	5.95909E-001	-9.68245E-005	0.00000E+000	-5.76986E-005	-5.99601E-002	5.96143E-001	3.57650E+000	9	...........
	23	0.32	5.84339E-001	-9.94250E-005	0.00000E+000	-5.80979E-005	-5.99601E-002	5.84590E-001	3.57650E+000	9	...........
	24	0.333333	5.72578E-001	-9.85425E-005	0.00000E+000	-5.64233E-005	-5.99601E-002	5.72835E-001	3.57650E+000	9	...........
	25	0.346667	5.60601E-001	-9.77788E-005	0.00000E+000	-5.48149E-005	-5.99601E-002	5.60857E-001	3.57650E+000	9	...........
	26	0.36	5.48442E-001	-9.71110E-005	0.00000E+000	-5.32597E-005	-5.99601E-002	5.48689E-001	3.57650E+000	9	...........
	27	0.373333	5.36125E-001	-9.87176E-005	0.00000E+000	-5.29249E-005	-5.99601E-002	5.36354E-001	3.57650E+000	9	...........
	28	0.386667	5.23617E-001	-9.80237E-005	0.00000E+000	-5.13269E-005	-5.99601E-002	5.23857E-001	3.57650E+000	9	...........
	29	0.4	5.10955E-001	-9.86457E-005	0.00000E+000	-5.04035E-005	-5.99601E-002	5.11191E-001	3.57650E+000	9	...........
	30	0.413333	4.98174E-001	-9.97490E-005	0.00000E+000	-4.96924E-005	-5.99601E-002	4.98416E-001	3.57650E+000	9	...........
	31	0.426667	4.85414E-001	-9.99658E-005	0.00000E+000	-4.85248E-005	-5.99601E-002	4.85581E-001	3.57650E+000	9	...........
	32	0.44	4.72587E-001	-1.00589E-004	0.00000E+000	-4.75369E-005	-5.99601E-002	4.72689E-001	3.57650E+000	9	...........
	33	0.453333	4.59496E-001	-9.79435E-005	0.00000E+000	-4.50046E-005	-5.99601E-002	4.59594E-001	3.57650E+000	9	...........
	34	0.466667	4.46321E-001	-9.84665E-005	0.00000E+000	-4.39476E-005	-5.99601E-002	4.46417E-001	3.57650E+000	9	...........
	35	0.48	4.33091E-001	-9.84602E-005	0.00000E+000	-4.26422E-005	-5.99601E-002	4.33184E-001	3.57650E+000	9	...........
	36	0.493333	4.19813E-001	-9.88093E-005	0.00000E+000	-4.14814E-005	-5.99601E-002	4.19905E-001	3.57650E+000	9	...........
	37	0.506667	4.06503E-001	-9.86123E-005	0.00000E+000	-4.00862E-005	-5.99601E-002	4.06588E-001	3.57650E+000	9	...........
	38	0.52	3.93155E-001	-9.83185E-005	0.00000E+000	-3.86544E-005	-5.99601E-002	3.93239E-001	3.57650E+000	9	...........
	39	0.533333	3.79802E-001	-9.84842E-005	0.00000E+000	-3.74045E-005	-5.99601E-002	3.79881E-001	3.57650E+000	9	...........
	40	0.546667	3.66450E-001	-9.91093E-005	0.00000E+000	-3.63186E-005	-5.99601E-002	3.66526E-001	3.57650E+000	9	...........
	41	0.56	3.53110E-001	-9.83092E-005	0.00000E+000	-3.47139E-005	-5.99601E-002	3.53181E-001	3.57650E+000	9	...........
	42	0.573333	3.39785E-001	-9.97355E-005	0.00000E+000	-3.38887E-005	-5.99601E-002	3.39857E-001	3.57650E+000	9	...........
	43	0.586667	3.26507E-001	-9.82758E-005	0.00000E+000	-3.20878E-005	-5.99601E-002	3.26569E-001	3.57650E+000	9	...........
	44	0.6	3.13255E-001	-9.71975E-005	0.00000E+000	-3.04476E-005	-5.99601E-002	3.13318E-001	3.57650E+000	9	...........
	45	0.613333	3.00044E-001	-9.78257E-005	0.00000E+000	-2.93520E-005	-5.99601E-002	3.00111E-001	3.57650E+000	9	...........
	46	0.626667	2.86891E-001	-9.87530E-005	0.00000E+000	-2.83314E-005	-5.99601E-002	2.86952E-001	3.57650E+000	9	...........
	47	0.64	2.73804E-001	-1.00123E-004	0.00000E+000	-2.74141E-005	-5.99601E-002	2.73864E-001	3.57650E+000	9	...........
	48	0.653333	2.60771E-001	-9.90468E-005	0.00000E+000	-2.58285E-005	-5.99601E-002	2.60835E-001	3.57650E+000	9	...........
	49	0.666667	2.47805E-001	-9.92458E-005	0.00000E+000	-2.45937E-005	-5.99601E-002	2.47858E-001	3.57650E+000	9	...........
	50	0.68	2.34907E-001	-9.91364E-005	0.00000E+000	-2.32878E-005	-5.99601E-002	2.34954E-001	3.57650E+000	9	...........
	51	0.693333	2.22078E-001	-9.75277E-005	0.00000E+000	-2.16588E-005	-5.99601E-002	2.22120E-001	3.57650E+000	9	...........
	52	0.706667	2.09322E-001	-9.86478E-005	0.00000E+000	-2.06492E-005	-5.99601E-002	2.09364E-001	3.57650E+000	9	...........
	53	0.72	1.96630E-001	-9.94531E-005	0.00000E+000	-1.95555E-005	-5.99601E-002	1.96674E-001	3.57650E+000	9	...........
	54	0.733333	1.84017E-001	-9.77049E-005	0.00000E+000	-1.79794E-005	-5.99601E-002	1.84055E-001	3.57650E+000	9	...........
	55	0.746667	1.71468E-001	-9.88853E-005	0.00000E+000	-1.69557E-005	-5.99601E-002	1.71501E-001	3.57650E+000	9	...........
	56	0.76	1.58989E-001	-9.91989E-005	0.00000E+000	-1.57716E-005	-5.99601E-002	1.59020E-001	3.57650E+000	9	...........
	57	0.773333	1.46588E-001	-9.89760E-005	0.00000E+000	-1.45087E-005	-5.99601E-002	1.46615E-001	3.57650E+000	9	...........
	58	0.786667	1.34240E-001	-1.00515E-004	0.00000E+000	-1.34931E-005	-5.99601E-002	1.34265E-001	3.57650E+000	9	...........
	59	0.8	1.21974E-001	-9.69255E-005	0.00000E+000	-1.18224E-005	-5.99601E-002	1.22001E-001	3.57650E+000	9	...........
	60	0.813333	1.09785E-001	-9.77820E-005	0.00000E+000	-1.07350E-005	-5.99601E-002	1.09810E-001	3.57650E+000	9	...........
	61	0.826667	9.76889E-002	-9.91854E-005	0.00000E+000	-9.68931E-006	-5.99601E-002	9.77084E-002	3.57650E+000	9	...........
	62	0.84	8.56852E-002	-9.78559E-005	0.00000E+000	-8.38481E-006	-5.99601E-002	8.57053E-002	3.57650E+000	9	...........
	63	0.853333	7.37936E-002	-9.96542E-005	0.00000E+000	-7.35384E-006	-5.99601E-002	7.38053E-002	3.57650E+000	9	...........
	64	0.866667	6.20214E-002	-9.92990E-005	0.00000E+000	-6.15866E-006	-5.99601E-002	6.20278E-002	3.57650E+000	9	...........
	65	0.88	5.03827E-002	-9.87593E-005	0.00000E+000	-4.97576E-006	-5.99601E-002	5.03904E-002	3.57650E+000	9	...........
	66	0.893333	3.88911E-002	-9.92833E-005	0.00000E+000	-3.86123E-006	-5.99601E-002	3.89015E-002	3.57650E+000	9	...........
	67	0.906667	2.75303E-002	-9.89739E-005	0.00000E+000	-2.72478E-006	-5.99601E-002	2.75290E-002	3.57650E+000	9	...........
	68	0.92	1.63207E-002	-9.89760E-005	0.00000E+000	-1.61536E-006	-5.99601E-002	1.63119E-002	3.57650E+000	9	...........
	69	0.933333	5.28891E-003	-9.91885E-005	0.00000E+000	-5.24599E-007	-5.99601E-002	5.26903E-003	3.57650E+000	9	...........
	70	0.935	-8.56979E-004	-9.82268E-005	0.00000E+000	8.41783E-008	-5.99601E-002	-8.70649E-004	3.57650E+000	9	...........
STARTTIMEOFFSET	QUANT	1414.746	Start Time Offset (s)
