EXPLAIN
TAG	PWR800_DISCHARGE
TITLE	LABEL	PWR Cyclic Charge Discharge (Cell) - Discharge Step	Test &Identifier
DATE	LABEL	12-7-2017	Date
TIME	LABEL	16:40:07	Time
NOTES	NOTES	2	&Notes...
	supercap test cell
	6M KOH
PSTAT	PSTAT	IFC5000-01520	Potentiostat
CAPACITY	QUANT	1.00000E-003	Capacity (A-hr)
CELLTYPE	SELECTOR	1	&Cell Type
WORKINGCONNECTION	SELECTOR	0	&Working Lead
MAXDISCHARGETIME	VARIABLEANDUNITS	1.00000E+002	s	1.00000E+002	second(s)	Max &Discharge Time
DISCHARGEMODE	MULTIPARAM	0	1.00000E-004	&Discharge Mode	Constant Current	Amp(s)
SAMPLETIME	QUANT	1.00000E-002	Sa&mple Period (s)
DISCHARGESTOPAT1	MULTIPARAM	3	0.00000E+000	Discharge Stop At &1	Voltage < Limit	V
DISCHARGESTOPAT2	MULTIPARAM	0	0.00000E+000	Discharge Stop At &2	None	N/A
AESBHCSELECTOR	TOGGLE	F	Save Both Half Cells
IRCOMP	TOGGLE	F	IR &Measure
EOC	QUANT	0	Open Circuit (V)
SEQUENCER	TOGGLE	TRUE	Run as Sequence
PSTATMODEL	IQUANT	53	Pstat Model
PSTATSECTION	LABEL	IFC5000-01520	Pstat Section
PSTATSERIALNO	LABEL	01520	Pstat Serial Number
CTRLMODE	IQUANT	0	Control Mode
ELECTROMETER	IQUANT	1	RE=0 or CS=1
IESTAB	IQUANT	0	I/E Stability
CASPEED	IQUANT	4	Control Amp Speed
CONVENTION	IQUANT	1	Current Convention
ICHRANGE	IQUANT	2	Ich Range
ICHRANGEMODE	TOGGLE	T	Ich Auto Range
ICHOFFSETENABLE	TOGGLE	F	Ich Offset Enable
ICHOFFSET	QUANT	0	Ich Offset (V)
ICHFILTER	IQUANT	1	Ich Filter
VCHRANGE	IQUANT	2	Vch Range
VCHRANGEMODE	TOGGLE	T	Vch Auto Range
VCHOFFSETENABLE	TOGGLE	F	Vch Offset Enable
VCHOFFSET	QUANT	0	Vch Offset (V)
VCHFILTER	IQUANT	1	Vch Filter
IERANGELOWERLIMIT	IQUANT	9	I/E Range Lower Limit
IERANGEMODE	TOGGLE	F	I/E AutoRange
IERANGE	IQUANT	9	I/E Range
ACHSELECT	IQUANT	1	Ach Select
ACHRANGE	IQUANT	2	Ach Range
ACHOFFSETENABLE	TOGGLE	F	Ach Offset Enable
ACHOFFSET	QUANT	0	Ach Offset (V)
ACHFILTER	IQUANT	1	Ach Filter
CABLEID	IQUANT	14	Cable ID
DCCALDATE	LABEL	5-7-2017	DC Calibration Date
ACCALDATE	LABEL	12/3/2015	AC Calibration Date
FRAMEWORKVERSION	QUANT	7.01	Framework Version
INSTRUMENTVERSION	LABEL	4.00	Instrument Version
CURVE	TABLE	71
	Pt	T	Vf	Im	Vu	Pwr	Sig	Ach	Temp	IERange	Over
	#	s	V	A	V	W	V	V	deg C	#	bits
	0	0.013333	8.45724E-001	-9.79799E-005	0.00000E+000	-8.28640E-005	-5.99601E-002	8.46041E-001	3.57780E+000	9	...........
	1	0.026667	8.32592E-001	-9.76674E-005	0.00000E+000	-8.13170E-005	-5.99601E-002	8.32898E-001	3.57780E+000	9	...........
	2	0.04	8.20086E-001	-9.81425E-005	0.00000E+000	-8.04852E-005	-5.99601E-002	8.20361E-001	3.57780E+000	9	...........
	3	0.053333	8.07920E-001	-9.97240E-005	0.00000E+000	-8.05690E-005	-5.99601E-002	8.08206E-001	3.57780E+000	9	...........
	4	0.066667	7.96059E-001	-9.99439E-005	0.00000E+000	-7.95613E-005	-5.99601E-002	7.96312E-001	3.57780E+000	9	...........
	5	0.08	7.84361E-001	-9.78830E-005	0.00000E+000	-7.67757E-005	-5.99601E-002	7.84622E-001	3.57780E+000	9	...........
	6	0.093333	7.72858E-001	-9.87926E-005	0.00000E+000	-7.63527E-005	-5.99601E-002	7.73109E-001	3.57780E+000	9	...........
	7	0.106667	7.61443E-001	-9.81852E-005	0.00000E+000	-7.47624E-005	-5.99601E-002	7.61714E-001	3.57780E+000	9	...........
	8	0.12	7.50195E-001	-9.88864E-005	0.00000E+000	-7.41840E-005	-5.99601E-002	7.50421E-001	3.57780E+000	9	...........
	9	0.133333	7.38991E-001	-9.90874E-005	0.00000E+000	-7.32247E-005	-5.99601E-002	7.39241E-001	3.57780E+000	9	...........
	10	0.146667	7.27920E-001	-9.93083E-005	0.00000E+000	-7.22886E-005	-5.99601E-002	7.28141E-001	3.57780E+000	9	...........
	11	0.16	7.16891E-001	-9.83988E-005	0.00000E+000	-7.05412E-005	-5.99601E-002	7.17134E-001	3.57780E+000	9	...........
	12	0.173333	7.05964E-001	-9.84769E-005	0.00000E+000	-6.95211E-005	-5.99601E-002	7.06194E-001	3.57780E+000	9	...........
	13	0.186667	6.95141E-001	-9.92093E-005	0.00000E+000	-6.89645E-005	-5.99601E-002	6.95363E-001	3.57780E+000	9	...........
	14	0.2	6.84374E-001	-9.87426E-005	0.00000E+000	-6.75769E-005	-5.99601E-002	6.84587E-001	3.57690E+000	9	...........
	15	0.213333	6.73697E-001	-9.85134E-005	0.00000E+000	-6.63681E-005	-5.99601E-002	6.73894E-001	3.57690E+000	9	...........
	16	0.226667	6.63003E-001	-9.85780E-005	0.00000E+000	-6.53575E-005	-5.99601E-002	6.63219E-001	3.57690E+000	9	...........
	17	0.24	6.52319E-001	-9.81945E-005	0.00000E+000	-6.40541E-005	-5.99601E-002	6.52530E-001	3.57690E+000	9	...........
	18	0.253333	6.41572E-001	-9.94500E-005	0.00000E+000	-6.38044E-005	-5.99601E-002	6.41799E-001	3.57690E+000	9	...........
	19	0.266667	6.30762E-001	-9.87478E-005	0.00000E+000	-6.22864E-005	-5.99601E-002	6.30988E-001	3.57690E+000	9	...........
	20	0.28	6.19821E-001	-9.87582E-005	0.00000E+000	-6.12124E-005	-5.99601E-002	6.20052E-001	3.57690E+000	9	...........
	21	0.293333	6.08630E-001	-9.95167E-005	0.00000E+000	-6.05689E-005	-5.99601E-002	6.08881E-001	3.57690E+000	9	...........
	22	0.306667	5.97305E-001	-9.81175E-005	0.00000E+000	-5.86060E-005	-5.99601E-002	5.97550E-001	3.57690E+000	9	...........
	23	0.32	5.85774E-001	-9.88603E-005	0.00000E+000	-5.79098E-005	-5.99601E-002	5.85992E-001	3.57690E+000	9	...........
	24	0.333333	5.73997E-001	-9.75673E-005	0.00000E+000	-5.60034E-005	-5.99601E-002	5.74247E-001	3.57690E+000	9	...........
	25	0.346667	5.62048E-001	-9.88603E-005	0.00000E+000	-5.55642E-005	-5.99601E-002	5.62285E-001	3.57690E+000	9	...........
	26	0.36	5.49916E-001	-9.77403E-005	0.00000E+000	-5.37489E-005	-5.99601E-002	5.50142E-001	3.57690E+000	9	...........
	27	0.373333	5.37603E-001	-9.87665E-005	0.00000E+000	-5.30972E-005	-5.99601E-002	5.37840E-001	3.57690E+000	9	...........
	28	0.386667	5.25149E-001	-9.75434E-005	0.00000E+000	-5.12248E-005	-5.99601E-002	5.25360E-001	3.57690E+000	9	...........
	29	0.4	5.12532E-001	-9.95771E-005	0.00000E+000	-5.10365E-005	-5.99601E-002	5.12753E-001	3.57690E+000	9	...........
	30	0.413333	4.99760E-001	-9.80820E-005	0.00000E+000	-4.90175E-005	-5.99601E-002	5.00018E-001	3.57690E+000	9	...........
	31	0.426667	4.87006E-001	-9.94844E-005	0.00000E+000	-4.84495E-005	-5.99601E-002	4.87198E-001	3.57690E+000	9	...........
	32	0.44	4.74280E-001	-9.89958E-005	0.00000E+000	-4.69518E-005	-5.99601E-002	4.74387E-001	3.57690E+000	9	...........
	33	0.453333	4.61238E-001	-9.87853E-005	0.00000E+000	-4.55635E-005	-5.99601E-002	4.61332E-001	3.57690E+000	9	...........
	34	0.466667	4.48114E-001	-9.88697E-005	0.00000E+000	-4.43049E-005	-5.99601E-002	4.48212E-001	3.57690E+000	9	...........
	35	0.48	4.34936E-001	-9.92812E-005	0.00000E+000	-4.31810E-005	-5.99601E-002	4.35028E-001	3.57690E+000	9	...........
	36	0.493333	4.21706E-001	-9.86780E-005	0.00000E+000	-4.16131E-005	-5.99601E-002	4.21805E-001	3.57690E+000	9	...........
	37	0.506667	4.08449E-001	-9.80622E-005	0.00000E+000	-4.00534E-005	-5.99601E-002	4.08532E-001	3.57690E+000	9	...........
	38	0.52	3.95158E-001	-9.84686E-005	0.00000E+000	-3.89107E-005	-5.99601E-002	3.95240E-001	3.57690E+000	9	...........
	39	0.533333	3.81861E-001	-9.85248E-005	0.00000E+000	-3.76228E-005	-5.99601E-002	3.81941E-001	3.57690E+000	9	...........
	40	0.546667	3.68559E-001	-9.88697E-005	0.00000E+000	-3.64394E-005	-5.99601E-002	3.68633E-001	3.57690E+000	9	...........
	41	0.56	3.55276E-001	-9.69901E-005	0.00000E+000	-3.44583E-005	-5.99601E-002	3.55346E-001	3.57690E+000	9	...........
	42	0.573333	3.42002E-001	-9.95282E-005	0.00000E+000	-3.40389E-005	-5.99601E-002	3.42074E-001	3.57690E+000	9	...........
	43	0.586667	3.28762E-001	-9.79997E-005	0.00000E+000	-3.22186E-005	-5.99601E-002	3.28829E-001	3.57690E+000	9	...........
	44	0.6	3.15565E-001	-9.90551E-005	0.00000E+000	-3.12583E-005	-5.99601E-002	3.15626E-001	3.57690E+000	9	...........
	45	0.613333	3.02406E-001	-9.73746E-005	0.00000E+000	-2.94467E-005	-5.99601E-002	3.02470E-001	3.57690E+000	9	...........
	46	0.626667	2.89295E-001	-9.78268E-005	0.00000E+000	-2.83008E-005	-5.99601E-002	2.89358E-001	3.57690E+000	9	...........
	47	0.64	2.76244E-001	-9.93615E-005	0.00000E+000	-2.74480E-005	-5.99601E-002	2.76300E-001	3.57690E+000	9	...........
	48	0.653333	2.63253E-001	-1.00519E-004	0.00000E+000	-2.64620E-005	-5.99601E-002	2.63310E-001	3.57690E+000	9	...........
	49	0.666667	2.50332E-001	-9.82102E-005	0.00000E+000	-2.45851E-005	-5.99601E-002	2.50380E-001	3.57690E+000	9	...........
	50	0.68	2.37480E-001	-9.87009E-005	0.00000E+000	-2.34394E-005	-5.99601E-002	2.37522E-001	3.57690E+000	9	...........
	51	0.693333	2.24685E-001	-9.91896E-005	0.00000E+000	-2.22864E-005	-5.99601E-002	2.24732E-001	3.57690E+000	9	...........
	52	0.706667	2.11970E-001	-9.83237E-005	0.00000E+000	-2.08417E-005	-5.99601E-002	2.12010E-001	3.57690E+000	9	...........
	53	0.72	1.99324E-001	-9.80174E-005	0.00000E+000	-1.95372E-005	-5.99601E-002	1.99360E-001	3.57690E+000	9	...........
	54	0.733333	1.86742E-001	-9.84519E-005	0.00000E+000	-1.83851E-005	-5.99601E-002	1.86777E-001	3.57690E+000	9	...........
	55	0.746667	1.74217E-001	-9.88666E-005	0.00000E+000	-1.72242E-005	-5.99601E-002	1.74252E-001	3.57690E+000	9	...........
	56	0.76	1.61762E-001	-9.84488E-005	0.00000E+000	-1.59253E-005	-5.99601E-002	1.61794E-001	3.57690E+000	9	...........
	57	0.773333	1.49374E-001	-9.91510E-005	0.00000E+000	-1.48106E-005	-5.99601E-002	1.49395E-001	3.57690E+000	9	...........
	58	0.786667	1.37048E-001	-9.86926E-005	0.00000E+000	-1.35257E-005	-5.99601E-002	1.37075E-001	3.57690E+000	9	...........
	59	0.8	1.24793E-001	-9.92802E-005	0.00000E+000	-1.23895E-005	-5.99601E-002	1.24817E-001	3.57690E+000	9	...........
	60	0.813333	1.12616E-001	-9.83435E-005	0.00000E+000	-1.10751E-005	-5.99601E-002	1.12637E-001	3.57690E+000	9	...........
	61	0.826667	1.00522E-001	-9.91083E-005	0.00000E+000	-9.96254E-006	-5.99601E-002	1.00544E-001	3.57690E+000	9	...........
	62	0.84	8.85281E-002	-9.89583E-005	0.00000E+000	-8.76059E-006	-5.99601E-002	8.85416E-002	3.57690E+000	9	...........
	63	0.853333	7.66377E-002	-9.94990E-005	0.00000E+000	-7.62538E-006	-5.99601E-002	7.66461E-002	3.57690E+000	9	...........
	64	0.866667	6.48538E-002	-9.77205E-005	0.00000E+000	-6.33754E-006	-5.99601E-002	6.48623E-002	3.57690E+000	9	...........
	65	0.88	5.31810E-002	-9.88280E-005	0.00000E+000	-5.25578E-006	-5.99601E-002	5.31879E-002	3.57690E+000	9	...........
	66	0.893333	4.16940E-002	-9.90729E-005	0.00000E+000	-4.13075E-006	-5.99601E-002	4.16983E-002	3.57690E+000	9	...........
	67	0.906667	3.03164E-002	-9.74725E-005	0.00000E+000	-2.95502E-006	-5.99601E-002	3.03143E-002	3.57690E+000	9	...........
	68	0.92	1.90779E-002	-9.84331E-005	0.00000E+000	-1.87790E-006	-5.99601E-002	1.90663E-002	3.57690E+000	9	...........
	69	0.933333	8.00813E-003	-9.85040E-005	0.00000E+000	-7.88833E-007	-5.99601E-002	7.99386E-003	3.57690E+000	9	...........
	70	0.938333	4.91641E-004	-9.98494E-005	0.00000E+000	-4.90900E-008	-5.99601E-002	4.75561E-004	3.57690E+000	9	...........
STARTTIMEOFFSET	QUANT	1283.319	Start Time Offset (s)
