EXPLAIN
TAG	PWR800_DISCHARGE
TITLE	LABEL	PWR Cyclic Charge Discharge (Cell) - Discharge Step	Test &Identifier
DATE	LABEL	12-7-2017	Date
TIME	LABEL	16:47:12	Time
NOTES	NOTES	2	&Notes...
	supercap test cell
	6M KOH
PSTAT	PSTAT	IFC5000-01520	Potentiostat
CAPACITY	QUANT	1.00000E-003	Capacity (A-hr)
CELLTYPE	SELECTOR	1	&Cell Type
WORKINGCONNECTION	SELECTOR	0	&Working Lead
MAXDISCHARGETIME	VARIABLEANDUNITS	1.00000E+002	s	1.00000E+002	second(s)	Max &Discharge Time
DISCHARGEMODE	MULTIPARAM	0	1.00000E-004	&Discharge Mode	Constant Current	Amp(s)
SAMPLETIME	QUANT	1.00000E-002	Sa&mple Period (s)
DISCHARGESTOPAT1	MULTIPARAM	3	0.00000E+000	Discharge Stop At &1	Voltage < Limit	V
DISCHARGESTOPAT2	MULTIPARAM	0	0.00000E+000	Discharge Stop At &2	None	N/A
AESBHCSELECTOR	TOGGLE	F	Save Both Half Cells
IRCOMP	TOGGLE	F	IR &Measure
EOC	QUANT	0	Open Circuit (V)
SEQUENCER	TOGGLE	TRUE	Run as Sequence
PSTATMODEL	IQUANT	53	Pstat Model
PSTATSECTION	LABEL	IFC5000-01520	Pstat Section
PSTATSERIALNO	LABEL	01520	Pstat Serial Number
CTRLMODE	IQUANT	0	Control Mode
ELECTROMETER	IQUANT	1	RE=0 or CS=1
IESTAB	IQUANT	0	I/E Stability
CASPEED	IQUANT	4	Control Amp Speed
CONVENTION	IQUANT	1	Current Convention
ICHRANGE	IQUANT	2	Ich Range
ICHRANGEMODE	TOGGLE	T	Ich Auto Range
ICHOFFSETENABLE	TOGGLE	F	Ich Offset Enable
ICHOFFSET	QUANT	0	Ich Offset (V)
ICHFILTER	IQUANT	1	Ich Filter
VCHRANGE	IQUANT	2	Vch Range
VCHRANGEMODE	TOGGLE	T	Vch Auto Range
VCHOFFSETENABLE	TOGGLE	F	Vch Offset Enable
VCHOFFSET	QUANT	0	Vch Offset (V)
VCHFILTER	IQUANT	1	Vch Filter
IERANGELOWERLIMIT	IQUANT	9	I/E Range Lower Limit
IERANGEMODE	TOGGLE	F	I/E AutoRange
IERANGE	IQUANT	9	I/E Range
ACHSELECT	IQUANT	1	Ach Select
ACHRANGE	IQUANT	2	Ach Range
ACHOFFSETENABLE	TOGGLE	F	Ach Offset Enable
ACHOFFSET	QUANT	0	Ach Offset (V)
ACHFILTER	IQUANT	1	Ach Filter
CABLEID	IQUANT	14	Cable ID
DCCALDATE	LABEL	5-7-2017	DC Calibration Date
ACCALDATE	LABEL	12/3/2015	AC Calibration Date
FRAMEWORKVERSION	QUANT	7.01	Framework Version
INSTRUMENTVERSION	LABEL	4.00	Instrument Version
CURVE	TABLE	70
	Pt	T	Vf	Im	Vu	Pwr	Sig	Ach	Temp	IERange	Over
	#	s	V	A	V	W	V	V	deg C	#	bits
	0	0.013333	8.44665E-001	-9.95052E-005	0.00000E+000	-8.40486E-005	-5.99601E-002	8.44976E-001	3.57650E+000	9	...........
	1	0.026667	8.31518E-001	-9.74736E-005	0.00000E+000	-8.10510E-005	-5.99601E-002	8.31807E-001	3.57650E+000	9	...........
	2	0.04	8.18910E-001	-9.93896E-005	0.00000E+000	-8.13912E-005	-5.99601E-002	8.19202E-001	3.57650E+000	9	...........
	3	0.053333	8.06716E-001	-9.91177E-005	0.00000E+000	-7.99598E-005	-5.99601E-002	8.06953E-001	3.57650E+000	9	...........
	4	0.066667	7.94790E-001	-9.86749E-005	0.00000E+000	-7.84258E-005	-5.99601E-002	7.95015E-001	3.57650E+000	9	...........
	5	0.08	7.83031E-001	-9.82404E-005	0.00000E+000	-7.69253E-005	-5.99601E-002	7.83232E-001	3.57650E+000	9	...........
	6	0.093333	7.71435E-001	-9.97886E-005	0.00000E+000	-7.69805E-005	-5.99601E-002	7.71649E-001	3.57650E+000	9	...........
	7	0.106667	7.59979E-001	-9.94542E-005	0.00000E+000	-7.55830E-005	-5.99601E-002	7.60162E-001	3.57650E+000	9	...........
	8	0.12	7.48597E-001	-9.84477E-005	0.00000E+000	-7.36977E-005	-5.99601E-002	7.48826E-001	3.57650E+000	9	...........
	9	0.133333	7.37330E-001	-9.79643E-005	0.00000E+000	-7.22320E-005	-5.99601E-002	7.37581E-001	3.57650E+000	9	...........
	10	0.146667	7.26176E-001	-9.88843E-005	0.00000E+000	-7.18074E-005	-5.99601E-002	7.26413E-001	3.57650E+000	9	...........
	11	0.16	7.15061E-001	-9.78111E-005	0.00000E+000	-6.99409E-005	-5.99601E-002	7.15335E-001	3.57650E+000	9	...........
	12	0.173333	7.04072E-001	-9.87290E-005	0.00000E+000	-6.95123E-005	-5.99601E-002	7.04300E-001	3.57650E+000	9	...........
	13	0.186667	6.93150E-001	-9.89676E-005	0.00000E+000	-6.85994E-005	-5.99601E-002	6.93384E-001	3.57650E+000	9	...........
	14	0.2	6.82290E-001	-9.84811E-005	0.00000E+000	-6.71926E-005	-5.99601E-002	6.82525E-001	3.57650E+000	9	...........
	15	0.213333	6.71530E-001	-9.86738E-005	0.00000E+000	-6.62624E-005	-5.99601E-002	6.71730E-001	3.57650E+000	9	...........
	16	0.226667	6.60759E-001	-9.77497E-005	0.00000E+000	-6.45890E-005	-5.99601E-002	6.60968E-001	3.57650E+000	9	...........
	17	0.24	6.50044E-001	-9.92260E-005	0.00000E+000	-6.45013E-005	-5.99601E-002	6.50271E-001	3.57650E+000	9	...........
	18	0.253333	6.39314E-001	-9.71912E-005	0.00000E+000	-6.21357E-005	-5.99601E-002	6.39503E-001	3.57650E+000	9	...........
	19	0.266667	6.28469E-001	-9.88801E-005	0.00000E+000	-6.21431E-005	-5.99601E-002	6.28642E-001	3.57650E+000	9	...........
	20	0.28	6.17516E-001	-1.00608E-004	0.00000E+000	-6.21268E-005	-5.99601E-002	6.17676E-001	3.57650E+000	9	...........
	21	0.293333	6.06319E-001	-9.84290E-005	0.00000E+000	-5.96794E-005	-5.99601E-002	6.06553E-001	3.57650E+000	9	...........
	22	0.306667	5.95020E-001	-9.87759E-005	0.00000E+000	-5.87737E-005	-5.99601E-002	5.95235E-001	3.57650E+000	9	...........
	23	0.32	5.83471E-001	-9.91489E-005	0.00000E+000	-5.78505E-005	-5.99601E-002	5.83687E-001	3.57650E+000	9	...........
	24	0.333333	5.71729E-001	-9.91916E-005	0.00000E+000	-5.67107E-005	-5.99601E-002	5.71927E-001	3.57650E+000	9	...........
	25	0.346667	5.59752E-001	-9.82998E-005	0.00000E+000	-5.50235E-005	-5.99601E-002	5.59978E-001	3.57650E+000	9	...........
	26	0.36	5.47598E-001	-9.93542E-005	0.00000E+000	-5.44061E-005	-5.99601E-002	5.47815E-001	3.57650E+000	9	...........
	27	0.373333	5.35249E-001	-9.86426E-005	0.00000E+000	-5.27984E-005	-5.99601E-002	5.35461E-001	3.57650E+000	9	...........
	28	0.386667	5.22721E-001	-9.83092E-005	0.00000E+000	-5.13883E-005	-5.99601E-002	5.22931E-001	3.57650E+000	9	...........
	29	0.4	5.10061E-001	-9.84300E-005	0.00000E+000	-5.02053E-005	-5.99601E-002	5.10245E-001	3.57650E+000	9	...........
	30	0.413333	4.97238E-001	-9.80737E-005	0.00000E+000	-4.87659E-005	-5.99601E-002	4.97440E-001	3.57650E+000	9	...........
	31	0.426667	4.84476E-001	-9.96772E-005	0.00000E+000	-4.82912E-005	-5.99601E-002	4.84605E-001	3.57650E+000	9	...........
	32	0.44	4.71594E-001	-9.64640E-005	0.00000E+000	-4.54918E-005	-5.99601E-002	4.71695E-001	3.57650E+000	9	...........
	33	0.453333	4.58468E-001	-9.86530E-005	0.00000E+000	-4.52292E-005	-5.99601E-002	4.58562E-001	3.57650E+000	9	...........
	34	0.466667	4.45265E-001	-9.87290E-005	0.00000E+000	-4.39605E-005	-5.99601E-002	4.45366E-001	3.57650E+000	9	...........
	35	0.48	4.32005E-001	-9.83915E-005	0.00000E+000	-4.25056E-005	-5.99601E-002	4.32095E-001	3.57650E+000	9	...........
	36	0.493333	4.18686E-001	-9.91406E-005	0.00000E+000	-4.15088E-005	-5.99601E-002	4.18775E-001	3.57650E+000	9	...........
	37	0.506667	4.05325E-001	-9.96532E-005	0.00000E+000	-4.03919E-005	-5.99601E-002	4.05413E-001	3.57650E+000	9	...........
	38	0.52	3.91946E-001	-9.88801E-005	0.00000E+000	-3.87557E-005	-5.99601E-002	3.92024E-001	3.57650E+000	9	...........
	39	0.533333	3.78547E-001	-9.89395E-005	0.00000E+000	-3.74533E-005	-5.99601E-002	3.78622E-001	3.57650E+000	9	...........
	40	0.546667	3.65158E-001	-9.94010E-005	0.00000E+000	-3.62971E-005	-5.99601E-002	3.65228E-001	3.57650E+000	9	...........
	41	0.56	3.51760E-001	-9.87551E-005	0.00000E+000	-3.47381E-005	-5.99601E-002	3.51828E-001	3.57650E+000	9	...........
	42	0.573333	3.38389E-001	-9.88530E-005	0.00000E+000	-3.34508E-005	-5.99601E-002	3.38465E-001	3.57650E+000	9	...........
	43	0.586667	3.25057E-001	-9.88416E-005	0.00000E+000	-3.21292E-005	-5.99601E-002	3.25123E-001	3.57650E+000	9	...........
	44	0.6	3.11763E-001	-9.79664E-005	0.00000E+000	-3.05423E-005	-5.99601E-002	3.11827E-001	3.57650E+000	9	...........
	45	0.613333	2.98512E-001	-9.89958E-005	0.00000E+000	-2.95515E-005	-5.99601E-002	2.98571E-001	3.57650E+000	9	...........
	46	0.626667	2.85312E-001	-9.92229E-005	0.00000E+000	-2.83095E-005	-5.99601E-002	2.85367E-001	3.57650E+000	9	...........
	47	0.64	2.72172E-001	-9.88749E-005	0.00000E+000	-2.69110E-005	-5.99601E-002	2.72223E-001	3.57650E+000	9	...........
	48	0.653333	2.59093E-001	-9.84290E-005	0.00000E+000	-2.55023E-005	-5.99601E-002	2.59141E-001	3.57650E+000	9	...........
	49	0.666667	2.46081E-001	-1.00052E-004	0.00000E+000	-2.46210E-005	-5.99601E-002	2.46126E-001	3.57650E+000	9	...........
	50	0.68	2.33141E-001	-9.78091E-005	0.00000E+000	-2.28033E-005	-5.99601E-002	2.33187E-001	3.57650E+000	9	...........
	51	0.693333	2.20276E-001	-9.85071E-005	0.00000E+000	-2.16987E-005	-5.99601E-002	2.20312E-001	3.57650E+000	9	...........
	52	0.706667	2.07478E-001	-9.83863E-005	0.00000E+000	-2.04130E-005	-5.99601E-002	2.07519E-001	3.57650E+000	9	...........
	53	0.72	1.94760E-001	-9.66901E-005	0.00000E+000	-1.88313E-005	-5.99601E-002	1.94799E-001	3.57650E+000	9	...........
	54	0.733333	1.82110E-001	-9.86749E-005	0.00000E+000	-1.79697E-005	-5.99601E-002	1.82145E-001	3.57650E+000	9	...........
	55	0.746667	1.69538E-001	-9.82727E-005	0.00000E+000	-1.66609E-005	-5.99601E-002	1.69569E-001	3.57650E+000	9	...........
	56	0.76	1.57038E-001	-9.90656E-005	0.00000E+000	-1.55570E-005	-5.99601E-002	1.57064E-001	3.57650E+000	9	...........
	57	0.773333	1.44610E-001	-9.82362E-005	0.00000E+000	-1.42059E-005	-5.99601E-002	1.44635E-001	3.57650E+000	9	...........
	58	0.786667	1.32257E-001	-9.88051E-005	0.00000E+000	-1.30676E-005	-5.99601E-002	1.32281E-001	3.57650E+000	9	...........
	59	0.8	1.19979E-001	-9.86978E-005	0.00000E+000	-1.18416E-005	-5.99601E-002	1.20004E-001	3.57650E+000	9	...........
	60	0.813333	1.07785E-001	-9.80039E-005	0.00000E+000	-1.05633E-005	-5.99601E-002	1.07809E-001	3.57650E+000	9	...........
	61	0.826667	9.56818E-002	-9.84675E-005	0.00000E+000	-9.42155E-006	-5.99601E-002	9.57102E-002	3.57650E+000	9	...........
	62	0.84	8.36954E-002	-9.92635E-005	0.00000E+000	-8.30790E-006	-5.99601E-002	8.37132E-002	3.57650E+000	9	...........
	63	0.853333	7.18131E-002	-9.86915E-005	0.00000E+000	-7.08734E-006	-5.99601E-002	7.18266E-002	3.57720E+000	9	...........
	64	0.866667	6.00392E-002	-9.90239E-005	0.00000E+000	-5.94531E-006	-5.99601E-002	6.00504E-002	3.57790E+000	9	...........
	65	0.88	4.84209E-002	-9.89635E-005	0.00000E+000	-4.79190E-006	-5.99601E-002	4.84276E-002	3.57790E+000	9	...........
	66	0.893333	3.69547E-002	-9.86905E-005	0.00000E+000	-3.64708E-006	-5.99601E-002	3.69568E-002	3.57790E+000	9	...........
	67	0.906667	2.56173E-002	-9.88124E-005	0.00000E+000	-2.53131E-006	-5.99601E-002	2.56122E-002	3.57790E+000	9	...........
	68	0.92	1.44466E-002	-9.74684E-005	0.00000E+000	-1.40809E-006	-5.99601E-002	1.44350E-002	3.57790E+000	9	...........
	69	0.933333	3.44545E-003	-9.88770E-005	0.00000E+000	-3.40676E-007	-5.99601E-002	3.42293E-003	3.57790E+000	9	...........
STARTTIMEOFFSET	QUANT	1584.365	Start Time Offset (s)
