EXPLAIN
TAG	PWR800_DISCHARGE
TITLE	LABEL	PWR Cyclic Charge Discharge (Cell) - Discharge Step	Test &Identifier
DATE	LABEL	12-7-2017	Date
TIME	LABEL	16:22:00	Time
NOTES	NOTES	2	&Notes...
	supercap test cell
	6M KOH
PSTAT	PSTAT	IFC5000-01520	Potentiostat
CAPACITY	QUANT	1.00000E-003	Capacity (A-hr)
CELLTYPE	SELECTOR	1	&Cell Type
WORKINGCONNECTION	SELECTOR	0	&Working Lead
MAXDISCHARGETIME	VARIABLEANDUNITS	1.00000E+002	s	1.00000E+002	second(s)	Max &Discharge Time
DISCHARGEMODE	MULTIPARAM	0	1.00000E-004	&Discharge Mode	Constant Current	Amp(s)
SAMPLETIME	QUANT	1.00000E-002	Sa&mple Period (s)
DISCHARGESTOPAT1	MULTIPARAM	3	0.00000E+000	Discharge Stop At &1	Voltage < Limit	V
DISCHARGESTOPAT2	MULTIPARAM	0	0.00000E+000	Discharge Stop At &2	None	N/A
AESBHCSELECTOR	TOGGLE	F	Save Both Half Cells
IRCOMP	TOGGLE	F	IR &Measure
EOC	QUANT	0	Open Circuit (V)
SEQUENCER	TOGGLE	TRUE	Run as Sequence
PSTATMODEL	IQUANT	53	Pstat Model
PSTATSECTION	LABEL	IFC5000-01520	Pstat Section
PSTATSERIALNO	LABEL	01520	Pstat Serial Number
CTRLMODE	IQUANT	0	Control Mode
ELECTROMETER	IQUANT	1	RE=0 or CS=1
IESTAB	IQUANT	0	I/E Stability
CASPEED	IQUANT	4	Control Amp Speed
CONVENTION	IQUANT	1	Current Convention
ICHRANGE	IQUANT	2	Ich Range
ICHRANGEMODE	TOGGLE	T	Ich Auto Range
ICHOFFSETENABLE	TOGGLE	F	Ich Offset Enable
ICHOFFSET	QUANT	0	Ich Offset (V)
ICHFILTER	IQUANT	1	Ich Filter
VCHRANGE	IQUANT	2	Vch Range
VCHRANGEMODE	TOGGLE	T	Vch Auto Range
VCHOFFSETENABLE	TOGGLE	F	Vch Offset Enable
VCHOFFSET	QUANT	0	Vch Offset (V)
VCHFILTER	IQUANT	1	Vch Filter
IERANGELOWERLIMIT	IQUANT	9	I/E Range Lower Limit
IERANGEMODE	TOGGLE	F	I/E AutoRange
IERANGE	IQUANT	9	I/E Range
ACHSELECT	IQUANT	1	Ach Select
ACHRANGE	IQUANT	2	Ach Range
ACHOFFSETENABLE	TOGGLE	F	Ach Offset Enable
ACHOFFSET	QUANT	0	Ach Offset (V)
ACHFILTER	IQUANT	1	Ach Filter
CABLEID	IQUANT	14	Cable ID
DCCALDATE	LABEL	5-7-2017	DC Calibration Date
ACCALDATE	LABEL	12/3/2015	AC Calibration Date
FRAMEWORKVERSION	QUANT	7.01	Framework Version
INSTRUMENTVERSION	LABEL	4.00	Instrument Version
CURVE	TABLE	71
	Pt	T	Vf	Im	Vu	Pwr	Sig	Ach	Temp	IERange	Over
	#	s	V	A	V	W	V	V	deg C	#	bits
	0	0.013333	8.42617E-001	-9.84404E-005	0.00000E+000	-8.29475E-005	-5.99601E-002	8.42945E-001	3.57770E+000	9	...........
	1	0.026667	8.29683E-001	-9.97032E-005	0.00000E+000	-8.27221E-005	-5.99601E-002	8.29987E-001	3.57770E+000	9	...........
	2	0.04	8.17344E-001	-9.87384E-005	0.00000E+000	-8.07032E-005	-5.99601E-002	8.17630E-001	3.57770E+000	9	...........
	3	0.053333	8.05378E-001	-9.77247E-005	0.00000E+000	-7.87053E-005	-5.99601E-002	8.05663E-001	3.57770E+000	9	...........
	4	0.066667	7.93672E-001	-9.87457E-005	0.00000E+000	-7.83717E-005	-5.99601E-002	7.93965E-001	3.57770E+000	9	...........
	5	0.08	7.82198E-001	-9.96261E-005	0.00000E+000	-7.79273E-005	-5.99601E-002	7.82472E-001	3.57770E+000	9	...........
	6	0.093333	7.70874E-001	-9.85071E-005	0.00000E+000	-7.59366E-005	-5.99601E-002	7.71180E-001	3.57770E+000	9	...........
	7	0.106667	7.59741E-001	-9.91750E-005	0.00000E+000	-7.53473E-005	-5.99601E-002	7.59980E-001	3.57770E+000	9	...........
	8	0.12	7.48673E-001	-9.80258E-005	0.00000E+000	-7.33893E-005	-5.99601E-002	7.48945E-001	3.57770E+000	9	...........
	9	0.133333	7.37732E-001	-9.88812E-005	0.00000E+000	-7.29477E-005	-5.99601E-002	7.37993E-001	3.57770E+000	9	...........
	10	0.146667	7.26916E-001	-9.81070E-005	0.00000E+000	-7.13156E-005	-5.99601E-002	7.27168E-001	3.57770E+000	9	...........
	11	0.16	7.16154E-001	-9.89062E-005	0.00000E+000	-7.08320E-005	-5.99601E-002	7.16394E-001	3.57770E+000	9	...........
	12	0.173333	7.05418E-001	-9.84925E-005	0.00000E+000	-6.94784E-005	-5.99601E-002	7.05663E-001	3.57770E+000	9	...........
	13	0.186667	6.94703E-001	-9.83300E-005	0.00000E+000	-6.83102E-005	-5.99601E-002	6.94979E-001	3.57770E+000	9	...........
	14	0.2	6.83983E-001	-9.87530E-005	0.00000E+000	-6.75454E-005	-5.99601E-002	6.84237E-001	3.57770E+000	9	...........
	15	0.213333	6.73196E-001	-9.90187E-005	0.00000E+000	-6.66590E-005	-5.99601E-002	6.73420E-001	3.57770E+000	9	...........
	16	0.226667	6.62257E-001	-9.84050E-005	0.00000E+000	-6.51694E-005	-5.99601E-002	6.62490E-001	3.57770E+000	9	...........
	17	0.24	6.51191E-001	-9.81633E-005	0.00000E+000	-6.39230E-005	-5.99601E-002	6.51437E-001	3.57770E+000	9	...........
	18	0.253333	6.39979E-001	-9.78216E-005	0.00000E+000	-6.26038E-005	-5.99601E-002	6.40206E-001	3.57770E+000	9	...........
	19	0.266667	6.28594E-001	-9.98293E-005	0.00000E+000	-6.27520E-005	-5.99601E-002	6.28804E-001	3.57770E+000	9	...........
	20	0.28	6.17043E-001	-9.84634E-005	0.00000E+000	-6.07562E-005	-5.99601E-002	6.17263E-001	3.57770E+000	9	...........
	21	0.293333	6.05290E-001	-9.85998E-005	0.00000E+000	-5.96815E-005	-5.99601E-002	6.05552E-001	3.57770E+000	9	...........
	22	0.306667	5.93457E-001	-9.86301E-005	0.00000E+000	-5.85327E-005	-5.99601E-002	5.93708E-001	3.57770E+000	9	...........
	23	0.32	5.81440E-001	-9.82727E-005	0.00000E+000	-5.71397E-005	-5.99601E-002	5.81717E-001	3.57770E+000	9	...........
	24	0.333333	5.69383E-001	-9.89207E-005	0.00000E+000	-5.63238E-005	-5.99601E-002	5.69620E-001	3.57770E+000	9	...........
	25	0.346667	5.57149E-001	-9.76580E-005	0.00000E+000	-5.44100E-005	-5.99601E-002	5.57374E-001	3.57770E+000	9	...........
	26	0.36	5.44825E-001	-9.79174E-005	0.00000E+000	-5.33479E-005	-5.99601E-002	5.45076E-001	3.57770E+000	9	...........
	27	0.373333	5.32411E-001	-9.82487E-005	0.00000E+000	-5.23087E-005	-5.99601E-002	5.32650E-001	3.57770E+000	9	...........
	28	0.386667	5.19941E-001	-9.79497E-005	0.00000E+000	-5.09281E-005	-5.99601E-002	5.20154E-001	3.57770E+000	9	...........
	29	0.4	5.07356E-001	-9.93677E-005	0.00000E+000	-5.04148E-005	-5.99601E-002	5.07590E-001	3.57770E+000	9	...........
	30	0.413333	4.94768E-001	-9.91864E-005	0.00000E+000	-4.90743E-005	-5.99601E-002	4.94963E-001	3.57770E+000	9	...........
	31	0.426667	4.82308E-001	-9.86842E-005	0.00000E+000	-4.75962E-005	-5.99601E-002	4.82449E-001	3.57770E+000	9	...........
	32	0.44	4.69736E-001	-9.90312E-005	0.00000E+000	-4.65185E-005	-5.99601E-002	4.69834E-001	3.57770E+000	9	...........
	33	0.453333	4.57015E-001	-9.89989E-005	0.00000E+000	-4.52440E-005	-5.99601E-002	4.57110E-001	3.57770E+000	9	...........
	34	0.466667	4.44271E-001	-9.76861E-005	0.00000E+000	-4.33991E-005	-5.99601E-002	4.44365E-001	3.57770E+000	9	...........
	35	0.48	4.31506E-001	-9.80487E-005	0.00000E+000	-4.23086E-005	-5.99601E-002	4.31596E-001	3.57770E+000	9	...........
	36	0.493333	4.18741E-001	-9.86947E-005	0.00000E+000	-4.13275E-005	-5.99601E-002	4.18828E-001	3.57770E+000	9	...........
	37	0.506667	4.05974E-001	-9.97147E-005	0.00000E+000	-4.04815E-005	-5.99601E-002	4.06061E-001	3.57770E+000	9	...........
	38	0.52	3.93228E-001	-9.84561E-005	0.00000E+000	-3.87157E-005	-5.99601E-002	3.93310E-001	3.57770E+000	9	...........
	39	0.533333	3.80495E-001	-9.90208E-005	0.00000E+000	-3.76769E-005	-5.99601E-002	3.80573E-001	3.57770E+000	9	...........
	40	0.546667	3.67781E-001	-9.82237E-005	0.00000E+000	-3.61248E-005	-5.99601E-002	3.67856E-001	3.57770E+000	9	...........
	41	0.56	3.55091E-001	-9.83873E-005	0.00000E+000	-3.49364E-005	-5.99601E-002	3.55169E-001	3.57770E+000	9	...........
	42	0.573333	3.42428E-001	-9.88436E-005	0.00000E+000	-3.38468E-005	-5.99601E-002	3.42500E-001	3.57770E+000	9	...........
	43	0.586667	3.29803E-001	-9.74694E-005	0.00000E+000	-3.21457E-005	-5.99601E-002	3.29875E-001	3.57770E+000	9	...........
	44	0.6	3.17217E-001	-9.86123E-005	0.00000E+000	-3.12815E-005	-5.99601E-002	3.17284E-001	3.57770E+000	9	...........
	45	0.613333	3.04658E-001	-9.77455E-005	0.00000E+000	-2.97790E-005	-5.99601E-002	3.04728E-001	3.57770E+000	9	...........
	46	0.626667	2.92137E-001	-9.93187E-005	0.00000E+000	-2.90146E-005	-5.99601E-002	2.92197E-001	3.57770E+000	9	...........
	47	0.64	2.79655E-001	-9.88864E-005	0.00000E+000	-2.76540E-005	-5.99601E-002	2.79708E-001	3.57770E+000	9	...........
	48	0.653333	2.67201E-001	-9.89614E-005	0.00000E+000	-2.64426E-005	-5.99601E-002	2.67265E-001	3.57770E+000	9	...........
	49	0.666667	2.54788E-001	-9.86644E-005	0.00000E+000	-2.51385E-005	-5.99601E-002	2.54842E-001	3.57770E+000	9	...........
	50	0.68	2.42405E-001	-9.90656E-005	0.00000E+000	-2.40140E-005	-5.99601E-002	2.42453E-001	3.57770E+000	9	...........
	51	0.693333	2.30044E-001	-9.81466E-005	0.00000E+000	-2.25780E-005	-5.99601E-002	2.30087E-001	3.57770E+000	9	...........
	52	0.706667	2.17708E-001	-9.99939E-005	0.00000E+000	-2.17695E-005	-5.99601E-002	2.17752E-001	3.57770E+000	9	...........
	53	0.72	2.05400E-001	-9.77361E-005	0.00000E+000	-2.00750E-005	-5.99601E-002	2.05442E-001	3.57770E+000	9	...........
	54	0.733333	1.93111E-001	-9.82279E-005	0.00000E+000	-1.89689E-005	-5.99601E-002	1.93152E-001	3.57770E+000	9	...........
	55	0.746667	1.80846E-001	-9.81050E-005	0.00000E+000	-1.77419E-005	-5.99601E-002	1.80884E-001	3.57770E+000	9	...........
	56	0.76	1.68622E-001	-9.90531E-005	0.00000E+000	-1.67025E-005	-5.99601E-002	1.68659E-001	3.57770E+000	9	...........
	57	0.773333	1.56438E-001	-9.95396E-005	0.00000E+000	-1.55718E-005	-5.99601E-002	1.56473E-001	3.57770E+000	9	...........
	58	0.786667	1.44292E-001	-9.82519E-005	0.00000E+000	-1.41770E-005	-5.99601E-002	1.44317E-001	3.57770E+000	9	...........
	59	0.8	1.32183E-001	-9.91385E-005	0.00000E+000	-1.31044E-005	-5.99601E-002	1.32209E-001	3.57770E+000	9	...........
	60	0.813333	1.20127E-001	-9.89395E-005	0.00000E+000	-1.18853E-005	-5.99601E-002	1.20152E-001	3.57770E+000	9	...........
	61	0.826667	1.08125E-001	-9.87676E-005	0.00000E+000	-1.06792E-005	-5.99601E-002	1.08147E-001	3.57770E+000	9	...........
	62	0.84	9.61918E-002	-9.88832E-005	0.00000E+000	-9.51175E-006	-5.99601E-002	9.62120E-002	3.57770E+000	9	...........
	63	0.853333	8.43283E-002	-9.76819E-005	0.00000E+000	-8.23735E-006	-5.99601E-002	8.43466E-002	3.57770E+000	9	...........
	64	0.866667	7.25511E-002	-9.83060E-005	0.00000E+000	-7.13221E-006	-5.99601E-002	7.25623E-002	3.57770E+000	9	...........
	65	0.88	6.08660E-002	-9.84081E-005	0.00000E+000	-5.98971E-006	-5.99601E-002	6.08734E-002	3.57770E+000	9	...........
	66	0.893333	4.92961E-002	-9.81456E-005	0.00000E+000	-4.83819E-006	-5.99601E-002	4.93004E-002	3.57770E+000	9	...........
	67	0.906667	3.78524E-002	-9.89885E-005	0.00000E+000	-3.74695E-006	-5.99601E-002	3.78547E-002	3.57770E+000	9	...........
	68	0.92	2.65118E-002	-9.80695E-005	0.00000E+000	-2.60000E-006	-5.99601E-002	2.65083E-002	3.57800E+000	9	...........
	69	0.933333	1.53119E-002	-9.82164E-005	0.00000E+000	-1.50388E-006	-5.99601E-002	1.53006E-002	3.57830E+000	9	...........
	70	0.946667	4.25787E-003	-9.83196E-005	0.00000E+000	-4.18632E-007	-5.99601E-002	4.24092E-003	3.57830E+000	9	...........
STARTTIMEOFFSET	QUANT	510.7901	Start Time Offset (s)
