EXPLAIN
TAG	PWR800_DISCHARGE
TITLE	LABEL	PWR Cyclic Charge Discharge (Cell) - Discharge Step	Test &Identifier
DATE	LABEL	12-7-2017	Date
TIME	LABEL	16:52:54	Time
NOTES	NOTES	2	&Notes...
	supercap test cell
	6M KOH
PSTAT	PSTAT	IFC5000-01520	Potentiostat
CAPACITY	QUANT	1.00000E-003	Capacity (A-hr)
CELLTYPE	SELECTOR	1	&Cell Type
WORKINGCONNECTION	SELECTOR	0	&Working Lead
MAXDISCHARGETIME	VARIABLEANDUNITS	1.00000E+002	s	1.00000E+002	second(s)	Max &Discharge Time
DISCHARGEMODE	MULTIPARAM	0	1.00000E-004	&Discharge Mode	Constant Current	Amp(s)
SAMPLETIME	QUANT	1.00000E-002	Sa&mple Period (s)
DISCHARGESTOPAT1	MULTIPARAM	3	0.00000E+000	Discharge Stop At &1	Voltage < Limit	V
DISCHARGESTOPAT2	MULTIPARAM	0	0.00000E+000	Discharge Stop At &2	None	N/A
AESBHCSELECTOR	TOGGLE	F	Save Both Half Cells
IRCOMP	TOGGLE	F	IR &Measure
EOC	QUANT	0	Open Circuit (V)
SEQUENCER	TOGGLE	TRUE	Run as Sequence
PSTATMODEL	IQUANT	53	Pstat Model
PSTATSECTION	LABEL	IFC5000-01520	Pstat Section
PSTATSERIALNO	LABEL	01520	Pstat Serial Number
CTRLMODE	IQUANT	0	Control Mode
ELECTROMETER	IQUANT	1	RE=0 or CS=1
IESTAB	IQUANT	0	I/E Stability
CASPEED	IQUANT	4	Control Amp Speed
CONVENTION	IQUANT	1	Current Convention
ICHRANGE	IQUANT	2	Ich Range
ICHRANGEMODE	TOGGLE	T	Ich Auto Range
ICHOFFSETENABLE	TOGGLE	F	Ich Offset Enable
ICHOFFSET	QUANT	0	Ich Offset (V)
ICHFILTER	IQUANT	1	Ich Filter
VCHRANGE	IQUANT	2	Vch Range
VCHRANGEMODE	TOGGLE	T	Vch Auto Range
VCHOFFSETENABLE	TOGGLE	F	Vch Offset Enable
VCHOFFSET	QUANT	0	Vch Offset (V)
VCHFILTER	IQUANT	1	Vch Filter
IERANGELOWERLIMIT	IQUANT	9	I/E Range Lower Limit
IERANGEMODE	TOGGLE	F	I/E AutoRange
IERANGE	IQUANT	9	I/E Range
ACHSELECT	IQUANT	1	Ach Select
ACHRANGE	IQUANT	2	Ach Range
ACHOFFSETENABLE	TOGGLE	F	Ach Offset Enable
ACHOFFSET	QUANT	0	Ach Offset (V)
ACHFILTER	IQUANT	1	Ach Filter
CABLEID	IQUANT	14	Cable ID
DCCALDATE	LABEL	5-7-2017	DC Calibration Date
ACCALDATE	LABEL	12/3/2015	AC Calibration Date
FRAMEWORKVERSION	QUANT	7.01	Framework Version
INSTRUMENTVERSION	LABEL	4.00	Instrument Version
CURVE	TABLE	70
	Pt	T	Vf	Im	Vu	Pwr	Sig	Ach	Temp	IERange	Over
	#	s	V	A	V	W	V	V	deg C	#	bits
	0	0.013333	8.42129E-001	-9.94948E-005	0.00000E+000	-8.37875E-005	-5.99601E-002	8.42412E-001	3.57780E+000	9	...........
	1	0.026667	8.28885E-001	-9.87384E-005	0.00000E+000	-8.18428E-005	-5.99601E-002	8.29185E-001	3.57780E+000	9	...........
	2	0.04	8.16256E-001	-9.88926E-005	0.00000E+000	-8.07216E-005	-5.99601E-002	8.16536E-001	3.57780E+000	9	...........
	3	0.053333	8.04010E-001	-9.74715E-005	0.00000E+000	-7.83680E-005	-5.99601E-002	8.04256E-001	3.57780E+000	9	...........
	4	0.066667	7.91993E-001	-9.81039E-005	0.00000E+000	-7.76976E-005	-5.99601E-002	7.92224E-001	3.57780E+000	9	...........
	5	0.08	7.80204E-001	-9.74725E-005	0.00000E+000	-7.60484E-005	-5.99601E-002	7.80425E-001	3.57780E+000	9	...........
	6	0.093333	7.68527E-001	-9.87905E-005	0.00000E+000	-7.59231E-005	-5.99601E-002	7.68785E-001	3.57780E+000	9	...........
	7	0.106667	7.57001E-001	-9.78789E-005	0.00000E+000	-7.40944E-005	-5.99601E-002	7.57235E-001	3.57780E+000	9	...........
	8	0.12	7.45586E-001	-9.84686E-005	0.00000E+000	-7.34168E-005	-5.99601E-002	7.45818E-001	3.57780E+000	9	...........
	9	0.133333	7.34248E-001	-9.66151E-005	0.00000E+000	-7.09394E-005	-5.99601E-002	7.34493E-001	3.57780E+000	9	...........
	10	0.146667	7.23065E-001	-9.96073E-005	0.00000E+000	-7.20226E-005	-5.99601E-002	7.23281E-001	3.57780E+000	9	...........
	11	0.16	7.11886E-001	-9.83685E-005	0.00000E+000	-7.00272E-005	-5.99601E-002	7.12131E-001	3.57780E+000	9	...........
	12	0.173333	7.00853E-001	-9.81143E-005	0.00000E+000	-6.87637E-005	-5.99601E-002	7.01074E-001	3.57780E+000	9	...........
	13	0.186667	6.89866E-001	-9.96636E-005	0.00000E+000	-6.87546E-005	-5.99601E-002	6.90088E-001	3.57780E+000	9	...........
	14	0.2	6.78977E-001	-9.74684E-005	0.00000E+000	-6.61788E-005	-5.99601E-002	6.79202E-001	3.57780E+000	9	...........
	15	0.213333	6.68143E-001	-9.85123E-005	0.00000E+000	-6.58204E-005	-5.99601E-002	6.68380E-001	3.57780E+000	9	...........
	16	0.226667	6.57378E-001	-9.74559E-005	0.00000E+000	-6.40654E-005	-5.99601E-002	6.57593E-001	3.57780E+000	9	...........
	17	0.24	6.46619E-001	-9.80351E-005	0.00000E+000	-6.33914E-005	-5.99601E-002	6.46854E-001	3.57780E+000	9	...........
	18	0.253333	6.35806E-001	-9.79914E-005	0.00000E+000	-6.23035E-005	-5.99601E-002	6.36028E-001	3.57780E+000	9	...........
	19	0.266667	6.24942E-001	-9.89426E-005	0.00000E+000	-6.18334E-005	-5.99601E-002	6.25182E-001	3.57780E+000	9	...........
	20	0.28	6.13915E-001	-9.78914E-005	0.00000E+000	-6.00969E-005	-5.99601E-002	6.14188E-001	3.57780E+000	9	...........
	21	0.293333	6.02717E-001	-9.73735E-005	0.00000E+000	-5.86887E-005	-5.99601E-002	6.03000E-001	3.57780E+000	9	...........
	22	0.306667	5.91335E-001	-9.85332E-005	0.00000E+000	-5.82661E-005	-5.99601E-002	5.91603E-001	3.57780E+000	9	...........
	23	0.32	5.79738E-001	-9.86196E-005	0.00000E+000	-5.71736E-005	-5.99601E-002	5.79993E-001	3.57780E+000	9	...........
	24	0.333333	5.67956E-001	-9.89989E-005	0.00000E+000	-5.62270E-005	-5.99601E-002	5.68197E-001	3.57780E+000	9	...........
	25	0.346667	5.55917E-001	-9.85061E-005	0.00000E+000	-5.47612E-005	-5.99601E-002	5.56149E-001	3.57780E+000	9	...........
	26	0.36	5.43710E-001	-9.89395E-005	0.00000E+000	-5.37944E-005	-5.99601E-002	5.43926E-001	3.57780E+000	9	...........
	27	0.373333	5.31323E-001	-9.89291E-005	0.00000E+000	-5.25633E-005	-5.99601E-002	5.31497E-001	3.57780E+000	9	...........
	28	0.386667	5.18752E-001	-9.93052E-005	0.00000E+000	-5.15148E-005	-5.99601E-002	5.18939E-001	3.57780E+000	9	...........
	29	0.4	5.05996E-001	-9.77205E-005	0.00000E+000	-4.94462E-005	-5.99601E-002	5.06201E-001	3.57780E+000	9	...........
	30	0.413333	4.93159E-001	-9.91229E-005	0.00000E+000	-4.88833E-005	-5.99601E-002	4.93354E-001	3.57780E+000	9	...........
	31	0.426667	4.80392E-001	-9.90010E-005	0.00000E+000	-4.75592E-005	-5.99601E-002	4.80512E-001	3.57780E+000	9	...........
	32	0.44	4.67366E-001	-9.96542E-005	0.00000E+000	-4.65750E-005	-5.99601E-002	4.67465E-001	3.57780E+000	9	...........
	33	0.453333	4.54187E-001	-9.81102E-005	0.00000E+000	-4.45603E-005	-5.99601E-002	4.54281E-001	3.57780E+000	9	...........
	34	0.466667	4.40920E-001	-9.96563E-005	0.00000E+000	-4.39405E-005	-5.99601E-002	4.41014E-001	3.57780E+000	9	...........
	35	0.48	4.27595E-001	-9.93906E-005	0.00000E+000	-4.24989E-005	-5.99601E-002	4.27680E-001	3.57780E+000	9	...........
	36	0.493333	4.14204E-001	-9.85540E-005	0.00000E+000	-4.08215E-005	-5.99601E-002	4.14290E-001	3.57780E+000	9	...........
	37	0.506667	4.00786E-001	-9.83352E-005	0.00000E+000	-3.94114E-005	-5.99601E-002	4.00866E-001	3.57780E+000	9	...........
	38	0.52	3.87338E-001	-1.00000E-004	0.00000E+000	-3.87339E-005	-5.99601E-002	3.87423E-001	3.57780E+000	9	...........
	39	0.533333	3.73886E-001	-9.80299E-005	0.00000E+000	-3.66520E-005	-5.99601E-002	3.73964E-001	3.57745E+000	9	...........
	40	0.546667	3.60438E-001	-9.92719E-005	0.00000E+000	-3.57814E-005	-5.99601E-002	3.60512E-001	3.57640E+000	9	...........
	41	0.56	3.46995E-001	-9.93688E-005	0.00000E+000	-3.44805E-005	-5.99601E-002	3.47063E-001	3.57640E+000	9	...........
	42	0.573333	3.33570E-001	-9.99241E-005	0.00000E+000	-3.33317E-005	-5.99601E-002	3.33635E-001	3.57640E+000	9	...........
	43	0.586667	3.20183E-001	-9.87530E-005	0.00000E+000	-3.16191E-005	-5.99601E-002	3.20248E-001	3.57640E+000	9	...........
	44	0.6	3.06828E-001	-9.90135E-005	0.00000E+000	-3.03801E-005	-5.99601E-002	3.06894E-001	3.57640E+000	9	...........
	45	0.613333	2.93516E-001	-9.91833E-005	0.00000E+000	-2.91119E-005	-5.99601E-002	2.93578E-001	3.57640E+000	9	...........
	46	0.626667	2.80272E-001	-9.88718E-005	0.00000E+000	-2.77110E-005	-5.99601E-002	2.80332E-001	3.57640E+000	9	...........
	47	0.64	2.67082E-001	-9.78643E-005	0.00000E+000	-2.61378E-005	-5.99601E-002	2.67136E-001	3.57640E+000	9	...........
	48	0.653333	2.53957E-001	-9.90468E-005	0.00000E+000	-2.51537E-005	-5.99601E-002	2.54015E-001	3.57640E+000	9	...........
	49	0.666667	2.40903E-001	-9.86030E-005	0.00000E+000	-2.37538E-005	-5.99601E-002	2.40952E-001	3.57640E+000	9	...........
	50	0.68	2.27919E-001	-9.83446E-005	0.00000E+000	-2.24146E-005	-5.99601E-002	2.27962E-001	3.57640E+000	9	...........
	51	0.693333	2.15012E-001	-9.87030E-005	0.00000E+000	-2.12224E-005	-5.99601E-002	2.15051E-001	3.57640E+000	9	...........
	52	0.706667	2.02185E-001	-9.88363E-005	0.00000E+000	-1.99832E-005	-5.99601E-002	2.02228E-001	3.57640E+000	9	...........
	53	0.72	1.89441E-001	-9.89353E-005	0.00000E+000	-1.87424E-005	-5.99601E-002	1.89471E-001	3.57640E+000	9	...........
	54	0.733333	1.76770E-001	-9.82248E-005	0.00000E+000	-1.73632E-005	-5.99601E-002	1.76801E-001	3.57640E+000	9	...........
	55	0.746667	1.64180E-001	-9.83185E-005	0.00000E+000	-1.61419E-005	-5.99601E-002	1.64212E-001	3.57640E+000	9	...........
	56	0.76	1.51663E-001	-9.85342E-005	0.00000E+000	-1.49440E-005	-5.99601E-002	1.51691E-001	3.57640E+000	9	...........
	57	0.773333	1.39220E-001	-9.88749E-005	0.00000E+000	-1.37654E-005	-5.99601E-002	1.39246E-001	3.57640E+000	9	...........
	58	0.786667	1.26859E-001	-9.79591E-005	0.00000E+000	-1.24270E-005	-5.99601E-002	1.26885E-001	3.57640E+000	9	...........
	59	0.8	1.14578E-001	-9.84831E-005	0.00000E+000	-1.12840E-005	-5.99601E-002	1.14604E-001	3.57640E+000	9	...........
	60	0.813333	1.02388E-001	-9.81727E-005	0.00000E+000	-1.00517E-005	-5.99601E-002	1.02406E-001	3.57640E+000	9	...........
	61	0.826667	9.02993E-002	-9.94281E-005	0.00000E+000	-8.97829E-006	-5.99601E-002	9.03166E-002	3.57640E+000	9	...........
	62	0.84	7.83249E-002	-9.80643E-005	0.00000E+000	-7.68087E-006	-5.99601E-002	7.83362E-002	3.57640E+000	9	...........
	63	0.853333	6.64636E-002	-9.98657E-005	0.00000E+000	-6.63744E-006	-5.99601E-002	6.64761E-002	3.57640E+000	9	...........
	64	0.866667	5.47353E-002	-9.82071E-005	0.00000E+000	-5.37540E-006	-5.99601E-002	5.47377E-002	3.57640E+000	9	...........
	65	0.88	4.31788E-002	-9.90051E-005	0.00000E+000	-4.27492E-006	-5.99601E-002	4.31852E-002	3.57640E+000	9	...........
	66	0.893333	3.17449E-002	-9.86707E-005	0.00000E+000	-3.13229E-006	-5.99601E-002	3.17390E-002	3.57640E+000	9	...........
	67	0.906667	2.04676E-002	-9.93865E-005	0.00000E+000	-2.03420E-006	-5.99601E-002	2.04553E-002	3.57640E+000	9	...........
	68	0.92	9.35559E-003	-9.87634E-005	0.00000E+000	-9.23990E-007	-5.99601E-002	9.34297E-003	3.57640E+000	9	...........
	69	0.926667	1.12906E-003	-9.79393E-005	0.00000E+000	-1.10579E-007	-5.99601E-002	1.11648E-003	3.57640E+000	9	...........
STARTTIMEOFFSET	QUANT	1826.009	Start Time Offset (s)
