EXPLAIN
TAG	PWR800_DISCHARGE
TITLE	LABEL	PWR Cyclic Charge Discharge (Cell) - Discharge Step	Test &Identifier
DATE	LABEL	12-7-2017	Date
TIME	LABEL	16:39:48	Time
NOTES	NOTES	2	&Notes...
	supercap test cell
	6M KOH
PSTAT	PSTAT	IFC5000-01520	Potentiostat
CAPACITY	QUANT	1.00000E-003	Capacity (A-hr)
CELLTYPE	SELECTOR	1	&Cell Type
WORKINGCONNECTION	SELECTOR	0	&Working Lead
MAXDISCHARGETIME	VARIABLEANDUNITS	1.00000E+002	s	1.00000E+002	second(s)	Max &Discharge Time
DISCHARGEMODE	MULTIPARAM	0	1.00000E-004	&Discharge Mode	Constant Current	Amp(s)
SAMPLETIME	QUANT	1.00000E-002	Sa&mple Period (s)
DISCHARGESTOPAT1	MULTIPARAM	3	0.00000E+000	Discharge Stop At &1	Voltage < Limit	V
DISCHARGESTOPAT2	MULTIPARAM	0	0.00000E+000	Discharge Stop At &2	None	N/A
AESBHCSELECTOR	TOGGLE	F	Save Both Half Cells
IRCOMP	TOGGLE	F	IR &Measure
EOC	QUANT	0	Open Circuit (V)
SEQUENCER	TOGGLE	TRUE	Run as Sequence
PSTATMODEL	IQUANT	53	Pstat Model
PSTATSECTION	LABEL	IFC5000-01520	Pstat Section
PSTATSERIALNO	LABEL	01520	Pstat Serial Number
CTRLMODE	IQUANT	0	Control Mode
ELECTROMETER	IQUANT	1	RE=0 or CS=1
IESTAB	IQUANT	0	I/E Stability
CASPEED	IQUANT	4	Control Amp Speed
CONVENTION	IQUANT	1	Current Convention
ICHRANGE	IQUANT	2	Ich Range
ICHRANGEMODE	TOGGLE	T	Ich Auto Range
ICHOFFSETENABLE	TOGGLE	F	Ich Offset Enable
ICHOFFSET	QUANT	0	Ich Offset (V)
ICHFILTER	IQUANT	1	Ich Filter
VCHRANGE	IQUANT	2	Vch Range
VCHRANGEMODE	TOGGLE	T	Vch Auto Range
VCHOFFSETENABLE	TOGGLE	F	Vch Offset Enable
VCHOFFSET	QUANT	0	Vch Offset (V)
VCHFILTER	IQUANT	1	Vch Filter
IERANGELOWERLIMIT	IQUANT	9	I/E Range Lower Limit
IERANGEMODE	TOGGLE	F	I/E AutoRange
IERANGE	IQUANT	9	I/E Range
ACHSELECT	IQUANT	1	Ach Select
ACHRANGE	IQUANT	2	Ach Range
ACHOFFSETENABLE	TOGGLE	F	Ach Offset Enable
ACHOFFSET	QUANT	0	Ach Offset (V)
ACHFILTER	IQUANT	1	Ach Filter
CABLEID	IQUANT	14	Cable ID
DCCALDATE	LABEL	5-7-2017	DC Calibration Date
ACCALDATE	LABEL	12/3/2015	AC Calibration Date
FRAMEWORKVERSION	QUANT	7.01	Framework Version
INSTRUMENTVERSION	LABEL	4.00	Instrument Version
CURVE	TABLE	71
	Pt	T	Vf	Im	Vu	Pwr	Sig	Ach	Temp	IERange	Over
	#	s	V	A	V	W	V	V	deg C	#	bits
	0	0.013333	8.45763E-001	-9.98209E-005	0.00000E+000	-8.44248E-005	-5.99601E-002	8.46121E-001	3.57790E+000	9	...........
	1	0.026667	8.32658E-001	-9.89207E-005	0.00000E+000	-8.23671E-005	-5.99601E-002	8.32971E-001	3.57790E+000	9	...........
	2	0.04	8.20155E-001	-9.82341E-005	0.00000E+000	-8.05672E-005	-5.99601E-002	8.20453E-001	3.57790E+000	9	...........
	3	0.053333	8.08019E-001	-9.89843E-005	0.00000E+000	-7.99812E-005	-5.99601E-002	8.08292E-001	3.57790E+000	9	...........
	4	0.066667	7.96143E-001	-9.73829E-005	0.00000E+000	-7.75307E-005	-5.99601E-002	7.96416E-001	3.57790E+000	9	...........
	5	0.08	7.84443E-001	-9.83321E-005	0.00000E+000	-7.71359E-005	-5.99601E-002	7.84729E-001	3.57790E+000	9	...........
	6	0.093333	7.72942E-001	-9.88072E-005	0.00000E+000	-7.63722E-005	-5.99601E-002	7.73225E-001	3.57790E+000	9	...........
	7	0.106667	7.61552E-001	-9.86332E-005	0.00000E+000	-7.51143E-005	-5.99601E-002	7.61811E-001	3.57790E+000	9	...........
	8	0.12	7.50271E-001	-9.88207E-005	0.00000E+000	-7.41423E-005	-5.99601E-002	7.50521E-001	3.57790E+000	9	...........
	9	0.133333	7.39078E-001	-9.91448E-005	0.00000E+000	-7.32757E-005	-5.99601E-002	7.39325E-001	3.57790E+000	9	...........
	10	0.146667	7.27995E-001	-9.89437E-005	0.00000E+000	-7.20305E-005	-5.99601E-002	7.28253E-001	3.57790E+000	9	...........
	11	0.16	7.16995E-001	-1.00545E-004	0.00000E+000	-7.20903E-005	-5.99601E-002	7.17264E-001	3.57790E+000	9	...........
	12	0.173333	7.06071E-001	-9.77861E-005	0.00000E+000	-6.90440E-005	-5.99601E-002	7.06342E-001	3.57790E+000	9	...........
	13	0.186667	6.95230E-001	-9.85540E-005	0.00000E+000	-6.85177E-005	-5.99601E-002	6.95519E-001	3.57790E+000	9	...........
	14	0.2	6.84448E-001	-9.88614E-005	0.00000E+000	-6.76655E-005	-5.99601E-002	6.84737E-001	3.57790E+000	9	...........
	15	0.213333	6.73762E-001	-9.87092E-005	0.00000E+000	-6.65065E-005	-5.99601E-002	6.74043E-001	3.57790E+000	9	...........
	16	0.226667	6.63073E-001	-9.93927E-005	0.00000E+000	-6.59046E-005	-5.99601E-002	6.63349E-001	3.57790E+000	9	...........
	17	0.24	6.52401E-001	-9.86457E-005	0.00000E+000	-6.43566E-005	-5.99601E-002	6.52673E-001	3.57790E+000	9	...........
	18	0.253333	6.41686E-001	-9.89510E-005	0.00000E+000	-6.34954E-005	-5.99601E-002	6.41937E-001	3.57790E+000	9	...........
	19	0.266667	6.30860E-001	-9.89958E-005	0.00000E+000	-6.24524E-005	-5.99601E-002	6.31097E-001	3.57790E+000	9	...........
	20	0.28	6.19921E-001	-1.00171E-004	0.00000E+000	-6.20981E-005	-5.99601E-002	6.20142E-001	3.57790E+000	9	...........
	21	0.293333	6.08708E-001	-9.87332E-005	0.00000E+000	-6.00996E-005	-5.99601E-002	6.08970E-001	3.57790E+000	9	...........
	22	0.306667	5.97381E-001	-9.87259E-005	0.00000E+000	-5.89770E-005	-5.99601E-002	5.97640E-001	3.57790E+000	9	...........
	23	0.32	5.85848E-001	-9.95302E-005	0.00000E+000	-5.83096E-005	-5.99601E-002	5.86075E-001	3.57790E+000	9	...........
	24	0.333333	5.74097E-001	-9.79445E-005	0.00000E+000	-5.62297E-005	-5.99601E-002	5.74327E-001	3.57715E+000	9	...........
	25	0.346667	5.62138E-001	-9.92979E-005	0.00000E+000	-5.58191E-005	-5.99601E-002	5.62386E-001	3.57640E+000	9	...........
	26	0.36	5.49993E-001	-9.85728E-005	0.00000E+000	-5.42144E-005	-5.99601E-002	5.50236E-001	3.57640E+000	9	...........
	27	0.373333	5.37700E-001	-9.89947E-005	0.00000E+000	-5.32295E-005	-5.99601E-002	5.37926E-001	3.57640E+000	9	...........
	28	0.386667	5.25222E-001	-9.92218E-005	0.00000E+000	-5.21135E-005	-5.99601E-002	5.25462E-001	3.57640E+000	9	...........
	29	0.4	5.12632E-001	-9.93802E-005	0.00000E+000	-5.09455E-005	-5.99601E-002	5.12851E-001	3.57640E+000	9	...........
	30	0.413333	4.99852E-001	-9.83071E-005	0.00000E+000	-4.91390E-005	-5.99601E-002	5.00123E-001	3.57640E+000	9	...........
	31	0.426667	4.87116E-001	-9.84894E-005	0.00000E+000	-4.79758E-005	-5.99601E-002	4.87289E-001	3.57640E+000	9	...........
	32	0.44	4.74398E-001	-9.91312E-005	0.00000E+000	-4.70277E-005	-5.99601E-002	4.74498E-001	3.57640E+000	9	...........
	33	0.453333	4.61355E-001	-9.92635E-005	0.00000E+000	-4.57957E-005	-5.99601E-002	4.61452E-001	3.57640E+000	9	...........
	34	0.466667	4.48246E-001	-9.94302E-005	0.00000E+000	-4.45692E-005	-5.99601E-002	4.48339E-001	3.57640E+000	9	...........
	35	0.48	4.35077E-001	-9.80081E-005	0.00000E+000	-4.26411E-005	-5.99601E-002	4.35173E-001	3.57640E+000	9	...........
	36	0.493333	4.21853E-001	-9.79330E-005	0.00000E+000	-4.13133E-005	-5.99601E-002	4.21940E-001	3.57640E+000	9	...........
	37	0.506667	4.08600E-001	-9.76017E-005	0.00000E+000	-3.98800E-005	-5.99601E-002	4.08681E-001	3.57640E+000	9	...........
	38	0.52	3.95314E-001	-1.01155E-004	0.00000E+000	-3.99878E-005	-5.99601E-002	3.95392E-001	3.57640E+000	9	...........
	39	0.533333	3.82025E-001	-9.82769E-005	0.00000E+000	-3.75442E-005	-5.99601E-002	3.82094E-001	3.57640E+000	9	...........
	40	0.546667	3.68734E-001	-9.84488E-005	0.00000E+000	-3.63014E-005	-5.99601E-002	3.68802E-001	3.57640E+000	9	...........
	41	0.56	3.55451E-001	-9.92750E-005	0.00000E+000	-3.52874E-005	-5.99601E-002	3.55514E-001	3.57640E+000	9	...........
	42	0.573333	3.42183E-001	-9.86457E-005	0.00000E+000	-3.37549E-005	-5.99601E-002	3.42254E-001	3.57640E+000	9	...........
	43	0.586667	3.28959E-001	-9.83165E-005	0.00000E+000	-3.23421E-005	-5.99601E-002	3.29023E-001	3.57640E+000	9	...........
	44	0.6	3.15772E-001	-9.82102E-005	0.00000E+000	-3.10120E-005	-5.99601E-002	3.15837E-001	3.57640E+000	9	...........
	45	0.613333	3.02619E-001	-9.81320E-005	0.00000E+000	-2.96966E-005	-5.99601E-002	3.02680E-001	3.57640E+000	9	...........
	46	0.626667	2.89514E-001	-9.97240E-005	0.00000E+000	-2.88715E-005	-5.99601E-002	2.89575E-001	3.57640E+000	9	...........
	47	0.64	2.76482E-001	-9.89843E-005	0.00000E+000	-2.73674E-005	-5.99601E-002	2.76547E-001	3.57640E+000	9	...........
	48	0.653333	2.63504E-001	-9.84665E-005	0.00000E+000	-2.59463E-005	-5.99601E-002	2.63558E-001	3.57640E+000	9	...........
	49	0.666667	2.50592E-001	-9.73287E-005	0.00000E+000	-2.43898E-005	-5.99601E-002	2.50644E-001	3.57640E+000	9	...........
	50	0.68	2.37744E-001	-1.00157E-004	0.00000E+000	-2.38119E-005	-5.99601E-002	2.37785E-001	3.57640E+000	9	...........
	51	0.693333	2.24961E-001	-9.83175E-005	0.00000E+000	-2.21176E-005	-5.99601E-002	2.25002E-001	3.57640E+000	9	...........
	52	0.706667	2.12237E-001	-9.78559E-005	0.00000E+000	-2.07687E-005	-5.99601E-002	2.12278E-001	3.57640E+000	9	...........
	53	0.72	1.99583E-001	-9.80872E-005	0.00000E+000	-1.95766E-005	-5.99601E-002	1.99621E-001	3.57640E+000	9	...........
	54	0.733333	1.87002E-001	-9.90322E-005	0.00000E+000	-1.85192E-005	-5.99601E-002	1.87043E-001	3.57640E+000	9	...........
	55	0.746667	1.74483E-001	-9.82508E-005	0.00000E+000	-1.71431E-005	-5.99601E-002	1.74520E-001	3.57640E+000	9	...........
	56	0.76	1.62040E-001	-9.88509E-005	0.00000E+000	-1.60178E-005	-5.99601E-002	1.62071E-001	3.57640E+000	9	...........
	57	0.773333	1.49656E-001	-9.76788E-005	0.00000E+000	-1.46182E-005	-5.99601E-002	1.49682E-001	3.57640E+000	9	...........
	58	0.786667	1.37328E-001	-9.90854E-005	0.00000E+000	-1.36072E-005	-5.99601E-002	1.37352E-001	3.57640E+000	9	...........
	59	0.8	1.25083E-001	-9.93719E-005	0.00000E+000	-1.24297E-005	-5.99601E-002	1.25111E-001	3.57640E+000	9	...........
	60	0.813333	1.12915E-001	-9.86967E-005	0.00000E+000	-1.11443E-005	-5.99601E-002	1.12934E-001	3.57640E+000	9	...........
	61	0.826667	1.00821E-001	-9.77684E-005	0.00000E+000	-9.85709E-006	-5.99601E-002	1.00839E-001	3.57640E+000	9	...........
	62	0.84	8.88137E-002	-9.94417E-005	0.00000E+000	-8.83178E-006	-5.99601E-002	8.88308E-002	3.57640E+000	9	...........
	63	0.853333	7.69278E-002	-9.90854E-005	0.00000E+000	-7.62242E-006	-5.99601E-002	7.69351E-002	3.57640E+000	9	...........
	64	0.866667	6.51401E-002	-1.00210E-004	0.00000E+000	-6.52766E-006	-5.99601E-002	6.51426E-002	3.57640E+000	9	...........
	65	0.88	5.34739E-002	-9.98116E-005	0.00000E+000	-5.33731E-006	-5.99601E-002	5.34790E-002	3.57640E+000	9	...........
	66	0.893333	4.19809E-002	-9.93229E-005	0.00000E+000	-4.16967E-006	-5.99601E-002	4.19844E-002	3.57640E+000	9	...........
	67	0.906667	3.05939E-002	-9.91312E-005	0.00000E+000	-3.03281E-006	-5.99601E-002	3.05912E-002	3.57640E+000	9	...........
	68	0.92	1.93673E-002	-9.78122E-005	0.00000E+000	-1.89436E-006	-5.99601E-002	1.93599E-002	3.57640E+000	9	...........
	69	0.933333	8.29600E-003	-9.83831E-005	0.00000E+000	-8.16186E-007	-5.99601E-002	8.27802E-003	3.57640E+000	9	...........
	70	0.938333	7.75187E-004	-9.97272E-005	0.00000E+000	-7.73072E-008	-5.99601E-002	7.60640E-004	3.57640E+000	9	...........
STARTTIMEOFFSET	QUANT	1269.769	Start Time Offset (s)
