EXPLAIN
TAG	PWR800_DISCHARGE
TITLE	LABEL	PWR Cyclic Charge Discharge (Cell) - Discharge Step	Test &Identifier
DATE	LABEL	12-7-2017	Date
TIME	LABEL	16:24:32	Time
NOTES	NOTES	2	&Notes...
	supercap test cell
	6M KOH
PSTAT	PSTAT	IFC5000-01520	Potentiostat
CAPACITY	QUANT	1.00000E-003	Capacity (A-hr)
CELLTYPE	SELECTOR	1	&Cell Type
WORKINGCONNECTION	SELECTOR	0	&Working Lead
MAXDISCHARGETIME	VARIABLEANDUNITS	1.00000E+002	s	1.00000E+002	second(s)	Max &Discharge Time
DISCHARGEMODE	MULTIPARAM	0	1.00000E-004	&Discharge Mode	Constant Current	Amp(s)
SAMPLETIME	QUANT	1.00000E-002	Sa&mple Period (s)
DISCHARGESTOPAT1	MULTIPARAM	3	0.00000E+000	Discharge Stop At &1	Voltage < Limit	V
DISCHARGESTOPAT2	MULTIPARAM	0	0.00000E+000	Discharge Stop At &2	None	N/A
AESBHCSELECTOR	TOGGLE	F	Save Both Half Cells
IRCOMP	TOGGLE	F	IR &Measure
EOC	QUANT	0	Open Circuit (V)
SEQUENCER	TOGGLE	TRUE	Run as Sequence
PSTATMODEL	IQUANT	53	Pstat Model
PSTATSECTION	LABEL	IFC5000-01520	Pstat Section
PSTATSERIALNO	LABEL	01520	Pstat Serial Number
CTRLMODE	IQUANT	0	Control Mode
ELECTROMETER	IQUANT	1	RE=0 or CS=1
IESTAB	IQUANT	0	I/E Stability
CASPEED	IQUANT	4	Control Amp Speed
CONVENTION	IQUANT	1	Current Convention
ICHRANGE	IQUANT	2	Ich Range
ICHRANGEMODE	TOGGLE	T	Ich Auto Range
ICHOFFSETENABLE	TOGGLE	F	Ich Offset Enable
ICHOFFSET	QUANT	0	Ich Offset (V)
ICHFILTER	IQUANT	1	Ich Filter
VCHRANGE	IQUANT	2	Vch Range
VCHRANGEMODE	TOGGLE	T	Vch Auto Range
VCHOFFSETENABLE	TOGGLE	F	Vch Offset Enable
VCHOFFSET	QUANT	0	Vch Offset (V)
VCHFILTER	IQUANT	1	Vch Filter
IERANGELOWERLIMIT	IQUANT	9	I/E Range Lower Limit
IERANGEMODE	TOGGLE	F	I/E AutoRange
IERANGE	IQUANT	9	I/E Range
ACHSELECT	IQUANT	1	Ach Select
ACHRANGE	IQUANT	2	Ach Range
ACHOFFSETENABLE	TOGGLE	F	Ach Offset Enable
ACHOFFSET	QUANT	0	Ach Offset (V)
ACHFILTER	IQUANT	1	Ach Filter
CABLEID	IQUANT	14	Cable ID
DCCALDATE	LABEL	5-7-2017	DC Calibration Date
ACCALDATE	LABEL	12/3/2015	AC Calibration Date
FRAMEWORKVERSION	QUANT	7.01	Framework Version
INSTRUMENTVERSION	LABEL	4.00	Instrument Version
CURVE	TABLE	71
	Pt	T	Vf	Im	Vu	Pwr	Sig	Ach	Temp	IERange	Over
	#	s	V	A	V	W	V	V	deg C	#	bits
	0	0.013333	8.46132E-001	-9.83738E-005	0.00000E+000	-8.32371E-005	-5.99601E-002	8.46458E-001	3.57710E+000	9	...........
	1	0.026667	8.33159E-001	-9.87447E-005	0.00000E+000	-8.22700E-005	-5.99601E-002	8.33471E-001	3.57687E+000	9	...........
	2	0.04	8.20799E-001	-9.90843E-005	0.00000E+000	-8.13283E-005	-5.99601E-002	8.21103E-001	3.57680E+000	9	...........
	3	0.053333	8.08798E-001	-9.83738E-005	0.00000E+000	-7.95645E-005	-5.99601E-002	8.09088E-001	3.57680E+000	9	...........
	4	0.066667	7.97097E-001	-9.84821E-005	0.00000E+000	-7.84998E-005	-5.99601E-002	7.97371E-001	3.57680E+000	9	...........
	5	0.08	7.85560E-001	-9.82654E-005	0.00000E+000	-7.71934E-005	-5.99601E-002	7.85835E-001	3.57680E+000	9	...........
	6	0.093333	7.74196E-001	-9.86894E-005	0.00000E+000	-7.64050E-005	-5.99601E-002	7.74502E-001	3.57680E+000	9	...........
	7	0.106667	7.62987E-001	-9.94125E-005	0.00000E+000	-7.58505E-005	-5.99601E-002	7.63272E-001	3.57680E+000	9	...........
	8	0.12	7.51894E-001	-9.84196E-005	0.00000E+000	-7.40011E-005	-5.99601E-002	7.52169E-001	3.57680E+000	9	...........
	9	0.133333	7.40902E-001	-9.83039E-005	0.00000E+000	-7.28335E-005	-5.99601E-002	7.41198E-001	3.57680E+000	9	...........
	10	0.146667	7.30030E-001	-9.88676E-005	0.00000E+000	-7.21763E-005	-5.99601E-002	7.30313E-001	3.57680E+000	9	...........
	11	0.16	7.19236E-001	-9.79007E-005	0.00000E+000	-7.04137E-005	-5.99601E-002	7.19501E-001	3.57680E+000	9	...........
	12	0.173333	7.08466E-001	-9.91448E-005	0.00000E+000	-7.02407E-005	-5.99601E-002	7.08750E-001	3.57680E+000	9	...........
	13	0.186667	6.97774E-001	-9.81810E-005	0.00000E+000	-6.85082E-005	-5.99601E-002	6.98072E-001	3.57680E+000	9	...........
	14	0.2	6.87074E-001	-1.00839E-004	0.00000E+000	-6.92838E-005	-5.99601E-002	6.87389E-001	3.57680E+000	9	...........
	15	0.213333	6.76378E-001	-9.86676E-005	0.00000E+000	-6.67365E-005	-5.99601E-002	6.76658E-001	3.57680E+000	9	...........
	16	0.226667	6.65604E-001	-9.81216E-005	0.00000E+000	-6.53101E-005	-5.99601E-002	6.65855E-001	3.57680E+000	9	...........
	17	0.24	6.54682E-001	-9.93271E-005	0.00000E+000	-6.50277E-005	-5.99601E-002	6.54929E-001	3.57680E+000	9	...........
	18	0.253333	6.43634E-001	-9.95188E-005	0.00000E+000	-6.40537E-005	-5.99601E-002	6.43876E-001	3.57680E+000	9	...........
	19	0.266667	6.32388E-001	-9.88791E-005	0.00000E+000	-6.25299E-005	-5.99601E-002	6.32641E-001	3.57680E+000	9	...........
	20	0.28	6.21023E-001	-9.78632E-005	0.00000E+000	-6.07754E-005	-5.99601E-002	6.21236E-001	3.57680E+000	9	...........
	21	0.293333	6.09395E-001	-9.92052E-005	0.00000E+000	-6.04552E-005	-5.99601E-002	6.09652E-001	3.57680E+000	9	...........
	22	0.306667	5.97657E-001	-9.90270E-005	0.00000E+000	-5.91842E-005	-5.99601E-002	5.97911E-001	3.57680E+000	9	...........
	23	0.32	5.85769E-001	-9.92489E-005	0.00000E+000	-5.81370E-005	-5.99601E-002	5.85991E-001	3.57680E+000	9	...........
	24	0.333333	5.73713E-001	-9.92698E-005	0.00000E+000	-5.69524E-005	-5.99601E-002	5.73957E-001	3.57680E+000	9	...........
	25	0.346667	5.61524E-001	-9.93615E-005	0.00000E+000	-5.57938E-005	-5.99601E-002	5.61767E-001	3.57680E+000	9	...........
	26	0.36	5.49226E-001	-9.83081E-005	0.00000E+000	-5.39933E-005	-5.99601E-002	5.49482E-001	3.57680E+000	9	...........
	27	0.373333	5.36801E-001	-9.87238E-005	0.00000E+000	-5.29951E-005	-5.99601E-002	5.37072E-001	3.57680E+000	9	...........
	28	0.386667	5.24299E-001	-9.92114E-005	0.00000E+000	-5.20164E-005	-5.99601E-002	5.24559E-001	3.57680E+000	9	...........
	29	0.4	5.11709E-001	-9.84113E-005	0.00000E+000	-5.03580E-005	-5.99601E-002	5.11963E-001	3.57680E+000	9	...........
	30	0.413333	4.99005E-001	-9.94146E-005	0.00000E+000	-4.96083E-005	-5.99601E-002	4.99291E-001	3.57680E+000	9	...........
	31	0.426667	4.86399E-001	-9.88259E-005	0.00000E+000	-4.80688E-005	-5.99601E-002	4.86599E-001	3.57680E+000	9	...........
	32	0.44	4.73835E-001	-9.82914E-005	0.00000E+000	-4.65739E-005	-5.99601E-002	4.73943E-001	3.57680E+000	9	...........
	33	0.453333	4.61003E-001	-9.89103E-005	0.00000E+000	-4.55979E-005	-5.99601E-002	4.61104E-001	3.57680E+000	9	...........
	34	0.466667	4.48136E-001	-9.84529E-005	0.00000E+000	-4.41203E-005	-5.99601E-002	4.48235E-001	3.57680E+000	9	...........
	35	0.48	4.35243E-001	-9.90051E-005	0.00000E+000	-4.30913E-005	-5.99601E-002	4.35342E-001	3.57680E+000	9	...........
	36	0.493333	4.22327E-001	-9.90708E-005	0.00000E+000	-4.18403E-005	-5.99601E-002	4.22426E-001	3.57680E+000	9	...........
	37	0.506667	4.09414E-001	-9.84936E-005	0.00000E+000	-4.03246E-005	-5.99601E-002	4.09502E-001	3.57680E+000	9	...........
	38	0.52	3.96497E-001	-9.88134E-005	0.00000E+000	-3.91792E-005	-5.99601E-002	3.96576E-001	3.57680E+000	9	...........
	39	0.533333	3.83578E-001	-9.88009E-005	0.00000E+000	-3.78978E-005	-5.99601E-002	3.83659E-001	3.57680E+000	9	...........
	40	0.546667	3.70697E-001	-9.85571E-005	0.00000E+000	-3.65348E-005	-5.99601E-002	3.70771E-001	3.57680E+000	9	...........
	41	0.56	3.57831E-001	-9.87155E-005	0.00000E+000	-3.53235E-005	-5.99601E-002	3.57905E-001	3.57680E+000	9	...........
	42	0.573333	3.44986E-001	-9.95500E-005	0.00000E+000	-3.43434E-005	-5.99601E-002	3.45060E-001	3.57680E+000	9	...........
	43	0.586667	3.32189E-001	-9.84665E-005	0.00000E+000	-3.27095E-005	-5.99601E-002	3.32259E-001	3.57680E+000	9	...........
	44	0.6	3.19424E-001	-9.85238E-005	0.00000E+000	-3.14709E-005	-5.99601E-002	3.19494E-001	3.57680E+000	9	...........
	45	0.613333	3.06694E-001	-9.92625E-005	0.00000E+000	-3.04432E-005	-5.99601E-002	3.06764E-001	3.57680E+000	9	...........
	46	0.626667	2.94003E-001	-9.92333E-005	0.00000E+000	-2.91749E-005	-5.99601E-002	2.94072E-001	3.57680E+000	9	...........
	47	0.64	2.81364E-001	-9.93604E-005	0.00000E+000	-2.79564E-005	-5.99601E-002	2.81424E-001	3.57680E+000	9	...........
	48	0.653333	2.68759E-001	-9.96344E-005	0.00000E+000	-2.67776E-005	-5.99601E-002	2.68824E-001	3.57680E+000	9	...........
	49	0.666667	2.56195E-001	-9.89947E-005	0.00000E+000	-2.53620E-005	-5.99601E-002	2.56259E-001	3.57680E+000	9	...........
	50	0.68	2.43686E-001	-9.86905E-005	0.00000E+000	-2.40495E-005	-5.99601E-002	2.43734E-001	3.57680E+000	9	...........
	51	0.693333	2.31209E-001	-9.90312E-005	0.00000E+000	-2.28969E-005	-5.99601E-002	2.31259E-001	3.57680E+000	9	...........
	52	0.706667	2.18762E-001	-9.91458E-005	0.00000E+000	-2.16893E-005	-5.99601E-002	2.18808E-001	3.57680E+000	9	...........
	53	0.72	2.06352E-001	-9.85853E-005	0.00000E+000	-2.03433E-005	-5.99601E-002	2.06398E-001	3.57680E+000	9	...........
	54	0.733333	1.93978E-001	-9.87863E-005	0.00000E+000	-1.91624E-005	-5.99601E-002	1.94021E-001	3.57680E+000	9	...........
	55	0.746667	1.81628E-001	-9.86196E-005	0.00000E+000	-1.79121E-005	-5.99601E-002	1.81672E-001	3.57680E+000	9	...........
	56	0.76	1.69320E-001	-9.85123E-005	0.00000E+000	-1.66801E-005	-5.99601E-002	1.69353E-001	3.57680E+000	9	...........
	57	0.773333	1.57048E-001	-9.83550E-005	0.00000E+000	-1.54464E-005	-5.99601E-002	1.57078E-001	3.57680E+000	9	...........
	58	0.786667	1.44824E-001	-9.91239E-005	0.00000E+000	-1.43555E-005	-5.99601E-002	1.44853E-001	3.57680E+000	9	...........
	59	0.8	1.32639E-001	-9.93771E-005	0.00000E+000	-1.31813E-005	-5.99601E-002	1.32669E-001	3.57680E+000	9	...........
	60	0.813333	1.20511E-001	-9.80195E-005	0.00000E+000	-1.18125E-005	-5.99601E-002	1.20538E-001	3.57680E+000	9	...........
	61	0.826667	1.08450E-001	-9.93719E-005	0.00000E+000	-1.07769E-005	-5.99601E-002	1.08470E-001	3.57680E+000	9	...........
	62	0.84	9.64499E-002	-9.90322E-005	0.00000E+000	-9.55165E-006	-5.99601E-002	9.64732E-002	3.57680E+000	9	...........
	63	0.853333	8.45390E-002	-9.82831E-005	0.00000E+000	-8.30876E-006	-5.99601E-002	8.45561E-002	3.57680E+000	9	...........
	64	0.866667	7.27051E-002	-9.95573E-005	0.00000E+000	-7.23832E-006	-5.99601E-002	7.27170E-002	3.57680E+000	9	...........
	65	0.88	6.09729E-002	-9.83654E-005	0.00000E+000	-5.99763E-006	-5.99601E-002	6.09759E-002	3.57680E+000	9	...........
	66	0.893333	4.93606E-002	-9.92687E-005	0.00000E+000	-4.89997E-006	-5.99601E-002	4.93621E-002	3.57680E+000	9	...........
	67	0.906667	3.78861E-002	-9.87363E-005	0.00000E+000	-3.74074E-006	-5.99601E-002	3.78898E-002	3.57680E+000	9	...........
	68	0.92	2.65125E-002	-9.92166E-005	0.00000E+000	-2.63048E-006	-5.99601E-002	2.65075E-002	3.57680E+000	9	...........
	69	0.933333	1.52773E-002	-9.87113E-005	0.00000E+000	-1.50805E-006	-5.99601E-002	1.52665E-002	3.57680E+000	9	...........
	70	0.946667	4.19356E-003	-9.86321E-005	0.00000E+000	-4.13620E-007	-5.99601E-002	4.17702E-003	3.57680E+000	9	...........
STARTTIMEOFFSET	QUANT	619.4116	Start Time Offset (s)
