EXPLAIN
TAG	PWR800_DISCHARGE
TITLE	LABEL	PWR Cyclic Charge Discharge (Cell) - Discharge Step	Test &Identifier
DATE	LABEL	12-7-2017	Date
TIME	LABEL	16:17:32	Time
NOTES	NOTES	2	&Notes...
	supercap test cell
	6M KOH
PSTAT	PSTAT	IFC5000-01520	Potentiostat
CAPACITY	QUANT	1.00000E-003	Capacity (A-hr)
CELLTYPE	SELECTOR	1	&Cell Type
WORKINGCONNECTION	SELECTOR	0	&Working Lead
MAXDISCHARGETIME	VARIABLEANDUNITS	1.00000E+002	s	1.00000E+002	second(s)	Max &Discharge Time
DISCHARGEMODE	MULTIPARAM	0	1.00000E-004	&Discharge Mode	Constant Current	Amp(s)
SAMPLETIME	QUANT	1.00000E-002	Sa&mple Period (s)
DISCHARGESTOPAT1	MULTIPARAM	3	0.00000E+000	Discharge Stop At &1	Voltage < Limit	V
DISCHARGESTOPAT2	MULTIPARAM	0	0.00000E+000	Discharge Stop At &2	None	N/A
AESBHCSELECTOR	TOGGLE	F	Save Both Half Cells
IRCOMP	TOGGLE	F	IR &Measure
EOC	QUANT	0	Open Circuit (V)
SEQUENCER	TOGGLE	TRUE	Run as Sequence
PSTATMODEL	IQUANT	53	Pstat Model
PSTATSECTION	LABEL	IFC5000-01520	Pstat Section
PSTATSERIALNO	LABEL	01520	Pstat Serial Number
CTRLMODE	IQUANT	0	Control Mode
ELECTROMETER	IQUANT	1	RE=0 or CS=1
IESTAB	IQUANT	0	I/E Stability
CASPEED	IQUANT	4	Control Amp Speed
CONVENTION	IQUANT	1	Current Convention
ICHRANGE	IQUANT	2	Ich Range
ICHRANGEMODE	TOGGLE	T	Ich Auto Range
ICHOFFSETENABLE	TOGGLE	F	Ich Offset Enable
ICHOFFSET	QUANT	0	Ich Offset (V)
ICHFILTER	IQUANT	1	Ich Filter
VCHRANGE	IQUANT	2	Vch Range
VCHRANGEMODE	TOGGLE	T	Vch Auto Range
VCHOFFSETENABLE	TOGGLE	F	Vch Offset Enable
VCHOFFSET	QUANT	0	Vch Offset (V)
VCHFILTER	IQUANT	1	Vch Filter
IERANGELOWERLIMIT	IQUANT	9	I/E Range Lower Limit
IERANGEMODE	TOGGLE	F	I/E AutoRange
IERANGE	IQUANT	9	I/E Range
ACHSELECT	IQUANT	1	Ach Select
ACHRANGE	IQUANT	2	Ach Range
ACHOFFSETENABLE	TOGGLE	F	Ach Offset Enable
ACHOFFSET	QUANT	0	Ach Offset (V)
ACHFILTER	IQUANT	1	Ach Filter
CABLEID	IQUANT	14	Cable ID
DCCALDATE	LABEL	5-7-2017	DC Calibration Date
ACCALDATE	LABEL	12/3/2015	AC Calibration Date
FRAMEWORKVERSION	QUANT	7.01	Framework Version
INSTRUMENTVERSION	LABEL	4.00	Instrument Version
CURVE	TABLE	72
	Pt	T	Vf	Im	Vu	Pwr	Sig	Ach	Temp	IERange	Over
	#	s	V	A	V	W	V	V	deg C	#	bits
	0	0.013333	8.38097E-001	-9.92760E-005	0.00000E+000	-8.32030E-005	-5.99601E-002	8.38437E-001	3.57730E+000	9	...........
	1	0.026667	8.25181E-001	-9.87426E-005	0.00000E+000	-8.14805E-005	-5.99601E-002	8.25503E-001	3.57730E+000	9	...........
	2	0.04	8.12826E-001	-9.81133E-005	0.00000E+000	-7.97490E-005	-5.99601E-002	8.13141E-001	3.57730E+000	9	...........
	3	0.053333	8.00889E-001	-9.90499E-005	0.00000E+000	-7.93280E-005	-5.99601E-002	8.01180E-001	3.57730E+000	9	...........
	4	0.066667	7.89222E-001	-9.92323E-005	0.00000E+000	-7.83163E-005	-5.99601E-002	7.89490E-001	3.57730E+000	9	...........
	5	0.08	7.77760E-001	-9.81935E-005	0.00000E+000	-7.63710E-005	-5.99601E-002	7.78015E-001	3.57730E+000	9	...........
	6	0.093333	7.66470E-001	-9.94698E-005	0.00000E+000	-7.62406E-005	-5.99601E-002	7.66735E-001	3.57730E+000	9	...........
	7	0.106667	7.55338E-001	-9.88666E-005	0.00000E+000	-7.46777E-005	-5.99601E-002	7.55571E-001	3.57730E+000	9	...........
	8	0.12	7.44296E-001	-9.89030E-005	0.00000E+000	-7.36132E-005	-5.99601E-002	7.44550E-001	3.57730E+000	9	...........
	9	0.133333	7.33351E-001	-9.90718E-005	0.00000E+000	-7.26544E-005	-5.99601E-002	7.33608E-001	3.57730E+000	9	...........
	10	0.146667	7.22465E-001	-9.89499E-005	0.00000E+000	-7.14878E-005	-5.99601E-002	7.22699E-001	3.57730E+000	9	...........
	11	0.16	7.11531E-001	-9.95448E-005	0.00000E+000	-7.08292E-005	-5.99601E-002	7.11791E-001	3.57730E+000	9	...........
	12	0.173333	7.00597E-001	-9.94063E-005	0.00000E+000	-6.96437E-005	-5.99601E-002	7.00863E-001	3.57730E+000	9	...........
	13	0.186667	6.89585E-001	-9.83279E-005	0.00000E+000	-6.78055E-005	-5.99601E-002	6.89838E-001	3.57730E+000	9	...........
	14	0.2	6.78481E-001	-9.87134E-005	0.00000E+000	-6.69752E-005	-5.99601E-002	6.78742E-001	3.57730E+000	9	...........
	15	0.213333	6.67228E-001	-9.79612E-005	0.00000E+000	-6.53624E-005	-5.99601E-002	6.67502E-001	3.57730E+000	9	...........
	16	0.226667	6.55829E-001	-9.87707E-005	0.00000E+000	-6.47767E-005	-5.99601E-002	6.56090E-001	3.57730E+000	9	...........
	17	0.24	6.44308E-001	-9.86832E-005	0.00000E+000	-6.35824E-005	-5.99601E-002	6.44579E-001	3.57730E+000	9	...........
	18	0.253333	6.32649E-001	-9.91843E-005	0.00000E+000	-6.27489E-005	-5.99601E-002	6.32899E-001	3.57730E+000	9	...........
	19	0.266667	6.20892E-001	-9.96094E-005	0.00000E+000	-6.18467E-005	-5.99601E-002	6.21123E-001	3.57730E+000	9	...........
	20	0.28	6.08958E-001	-9.88030E-005	0.00000E+000	-6.01669E-005	-5.99601E-002	6.09237E-001	3.57730E+000	9	...........
	21	0.293333	5.96992E-001	-9.83758E-005	0.00000E+000	-5.87296E-005	-5.99601E-002	5.97262E-001	3.57730E+000	9	...........
	22	0.306667	5.84925E-001	-9.92656E-005	0.00000E+000	-5.80629E-005	-5.99601E-002	5.85191E-001	3.57730E+000	9	...........
	23	0.32	5.72777E-001	-9.90145E-005	0.00000E+000	-5.67132E-005	-5.99601E-002	5.73052E-001	3.57730E+000	9	...........
	24	0.333333	5.60561E-001	-9.82008E-005	0.00000E+000	-5.50475E-005	-5.99601E-002	5.60845E-001	3.57730E+000	9	...........
	25	0.346667	5.48304E-001	-9.80112E-005	0.00000E+000	-5.37399E-005	-5.99601E-002	5.48574E-001	3.57730E+000	9	...........
	26	0.36	5.35996E-001	-9.81820E-005	0.00000E+000	-5.26252E-005	-5.99601E-002	5.36264E-001	3.57730E+000	9	...........
	27	0.373333	5.23646E-001	-9.85457E-005	0.00000E+000	-5.16031E-005	-5.99601E-002	5.23899E-001	3.57730E+000	9	...........
	28	0.386667	5.11263E-001	-9.86676E-005	0.00000E+000	-5.04451E-005	-5.99601E-002	5.11519E-001	3.57730E+000	9	...........
	29	0.4	4.98853E-001	-9.88749E-005	0.00000E+000	-4.93241E-005	-5.99601E-002	4.99106E-001	3.57730E+000	9	...........
	30	0.413333	4.86555E-001	-9.92573E-005	0.00000E+000	-4.82942E-005	-5.99601E-002	4.86768E-001	3.57730E+000	9	...........
	31	0.426667	4.74378E-001	-9.95032E-005	0.00000E+000	-4.72021E-005	-5.99601E-002	4.74486E-001	3.57730E+000	9	...........
	32	0.44	4.61951E-001	-9.88853E-005	0.00000E+000	-4.56802E-005	-5.99601E-002	4.62052E-001	3.57730E+000	9	...........
	33	0.453333	4.49519E-001	-9.90083E-005	0.00000E+000	-4.45061E-005	-5.99601E-002	4.49620E-001	3.57730E+000	9	...........
	34	0.466667	4.37100E-001	-9.84279E-005	0.00000E+000	-4.30229E-005	-5.99601E-002	4.37197E-001	3.57730E+000	9	...........
	35	0.48	4.24700E-001	-9.82446E-005	0.00000E+000	-4.17244E-005	-5.99601E-002	4.24786E-001	3.57730E+000	9	...........
	36	0.493333	4.12305E-001	-9.88322E-005	0.00000E+000	-4.07490E-005	-5.99601E-002	4.12397E-001	3.57730E+000	9	...........
	37	0.506667	3.99928E-001	-9.85686E-005	0.00000E+000	-3.94204E-005	-5.99601E-002	4.00016E-001	3.57730E+000	9	...........
	38	0.52	3.87584E-001	-9.82185E-005	0.00000E+000	-3.80679E-005	-5.99601E-002	3.87662E-001	3.57730E+000	9	...........
	39	0.533333	3.75256E-001	-9.88134E-005	0.00000E+000	-3.70804E-005	-5.99601E-002	3.75337E-001	3.57730E+000	9	...........
	40	0.546667	3.62954E-001	-9.85071E-005	0.00000E+000	-3.57535E-005	-5.99601E-002	3.63036E-001	3.57730E+000	9	...........
	41	0.56	3.50676E-001	-9.90333E-005	0.00000E+000	-3.47286E-005	-5.99601E-002	3.50750E-001	3.57730E+000	9	...........
	42	0.573333	3.38414E-001	-9.85623E-005	0.00000E+000	-3.33548E-005	-5.99601E-002	3.38490E-001	3.57730E+000	9	...........
	43	0.586667	3.26182E-001	-9.86853E-005	0.00000E+000	-3.21893E-005	-5.99601E-002	3.26253E-001	3.57730E+000	9	...........
	44	0.6	3.13979E-001	-9.84009E-005	0.00000E+000	-3.08958E-005	-5.99601E-002	3.14046E-001	3.57730E+000	9	...........
	45	0.613333	3.01786E-001	-9.88041E-005	0.00000E+000	-2.98177E-005	-5.99601E-002	3.01850E-001	3.57730E+000	9	...........
	46	0.626667	2.89601E-001	-9.95407E-005	0.00000E+000	-2.88271E-005	-5.99601E-002	2.89666E-001	3.57730E+000	9	...........
	47	0.64	2.77440E-001	-9.88395E-005	0.00000E+000	-2.74221E-005	-5.99601E-002	2.77498E-001	3.57730E+000	9	...........
	48	0.653333	2.65282E-001	-9.89478E-005	0.00000E+000	-2.62491E-005	-5.99601E-002	2.65340E-001	3.57730E+000	9	...........
	49	0.666667	2.53130E-001	-9.88832E-005	0.00000E+000	-2.50303E-005	-5.99601E-002	2.53190E-001	3.57730E+000	9	...........
	50	0.68	2.40982E-001	-9.83227E-005	0.00000E+000	-2.36940E-005	-5.99601E-002	2.41034E-001	3.57730E+000	9	...........
	51	0.693333	2.28836E-001	-9.84779E-005	0.00000E+000	-2.25353E-005	-5.99601E-002	2.28879E-001	3.57730E+000	9	...........
	52	0.706667	2.16693E-001	-9.85061E-005	0.00000E+000	-2.13456E-005	-5.99601E-002	2.16738E-001	3.57730E+000	9	...........
	53	0.72	2.04570E-001	-9.94792E-005	0.00000E+000	-2.03505E-005	-5.99601E-002	2.04612E-001	3.57730E+000	9	...........
	54	0.733333	1.92459E-001	-9.83477E-005	0.00000E+000	-1.89279E-005	-5.99601E-002	1.92495E-001	3.57730E+000	9	...........
	55	0.746667	1.80354E-001	-9.91395E-005	0.00000E+000	-1.78803E-005	-5.99601E-002	1.80387E-001	3.57730E+000	9	...........
	56	0.76	1.68269E-001	-9.84540E-005	0.00000E+000	-1.65668E-005	-5.99601E-002	1.68302E-001	3.57740E+000	9	...........
	57	0.773333	1.56216E-001	-9.83383E-005	0.00000E+000	-1.53621E-005	-5.99601E-002	1.56247E-001	3.57850E+000	9	...........
	58	0.786667	1.44183E-001	-9.85363E-005	0.00000E+000	-1.42073E-005	-5.99601E-002	1.44213E-001	3.57850E+000	9	...........
	59	0.8	1.32181E-001	-9.88322E-005	0.00000E+000	-1.30637E-005	-5.99601E-002	1.32206E-001	3.57850E+000	9	...........
	60	0.813333	1.20217E-001	-9.91145E-005	0.00000E+000	-1.19153E-005	-5.99601E-002	1.20238E-001	3.57850E+000	9	...........
	61	0.826667	1.08309E-001	-9.86811E-005	0.00000E+000	-1.06880E-005	-5.99601E-002	1.08330E-001	3.57850E+000	9	...........
	62	0.84	9.64557E-002	-9.93396E-005	0.00000E+000	-9.58187E-006	-5.99601E-002	9.64771E-002	3.57850E+000	9	...........
	63	0.853333	8.46629E-002	-9.84675E-005	0.00000E+000	-8.33654E-006	-5.99601E-002	8.46790E-002	3.57850E+000	9	...........
	64	0.866667	7.29517E-002	-9.82925E-005	0.00000E+000	-7.17061E-006	-5.99601E-002	7.29626E-002	3.57850E+000	9	...........
	65	0.88	6.13275E-002	-9.96730E-005	0.00000E+000	-6.11270E-006	-5.99601E-002	6.13313E-002	3.57850E+000	9	...........
	66	0.893333	4.98080E-002	-9.90906E-005	0.00000E+000	-4.93550E-006	-5.99601E-002	4.98155E-002	3.57850E+000	9	...........
	67	0.906667	3.84133E-002	-9.77236E-005	0.00000E+000	-3.75388E-006	-5.99601E-002	3.84166E-002	3.57850E+000	9	...........
	68	0.92	2.71151E-002	-9.82008E-005	0.00000E+000	-2.66272E-006	-5.99601E-002	2.71090E-002	3.57850E+000	9	...........
	69	0.933333	1.59468E-002	-9.86394E-005	0.00000E+000	-1.57298E-006	-5.99601E-002	1.59340E-002	3.57850E+000	9	...........
	70	0.946667	4.92330E-003	-9.92969E-005	0.00000E+000	-4.88869E-007	-5.99601E-002	4.90095E-003	3.57850E+000	9	...........
	71	0.948333	-1.20927E-003	-9.94521E-005	0.00000E+000	1.20264E-007	-5.99601E-002	-1.23525E-003	3.57850E+000	9	...........
STARTTIMEOFFSET	QUANT	319.9299	Start Time Offset (s)
