EXPLAIN
TAG	PWR800_DISCHARGE
TITLE	LABEL	PWR Cyclic Charge Discharge (Cell) - Discharge Step	Test &Identifier
DATE	LABEL	12-7-2017	Date
TIME	LABEL	16:11:17	Time
NOTES	NOTES	2	&Notes...
	supercap test cell
	6M KOH
PSTAT	PSTAT	IFC5000-01520	Potentiostat
CAPACITY	QUANT	1.00000E-003	Capacity (A-hr)
CELLTYPE	SELECTOR	1	&Cell Type
WORKINGCONNECTION	SELECTOR	0	&Working Lead
MAXDISCHARGETIME	VARIABLEANDUNITS	1.00000E+002	s	1.00000E+002	second(s)	Max &Discharge Time
DISCHARGEMODE	MULTIPARAM	0	1.00000E-004	&Discharge Mode	Constant Current	Amp(s)
SAMPLETIME	QUANT	1.00000E-002	Sa&mple Period (s)
DISCHARGESTOPAT1	MULTIPARAM	3	0.00000E+000	Discharge Stop At &1	Voltage < Limit	V
DISCHARGESTOPAT2	MULTIPARAM	0	0.00000E+000	Discharge Stop At &2	None	N/A
AESBHCSELECTOR	TOGGLE	F	Save Both Half Cells
IRCOMP	TOGGLE	F	IR &Measure
EOC	QUANT	0	Open Circuit (V)
SEQUENCER	TOGGLE	TRUE	Run as Sequence
PSTATMODEL	IQUANT	53	Pstat Model
PSTATSECTION	LABEL	IFC5000-01520	Pstat Section
PSTATSERIALNO	LABEL	01520	Pstat Serial Number
CTRLMODE	IQUANT	0	Control Mode
ELECTROMETER	IQUANT	1	RE=0 or CS=1
IESTAB	IQUANT	0	I/E Stability
CASPEED	IQUANT	4	Control Amp Speed
CONVENTION	IQUANT	1	Current Convention
ICHRANGE	IQUANT	2	Ich Range
ICHRANGEMODE	TOGGLE	T	Ich Auto Range
ICHOFFSETENABLE	TOGGLE	F	Ich Offset Enable
ICHOFFSET	QUANT	0	Ich Offset (V)
ICHFILTER	IQUANT	1	Ich Filter
VCHRANGE	IQUANT	2	Vch Range
VCHRANGEMODE	TOGGLE	T	Vch Auto Range
VCHOFFSETENABLE	TOGGLE	F	Vch Offset Enable
VCHOFFSET	QUANT	0	Vch Offset (V)
VCHFILTER	IQUANT	1	Vch Filter
IERANGELOWERLIMIT	IQUANT	9	I/E Range Lower Limit
IERANGEMODE	TOGGLE	F	I/E AutoRange
IERANGE	IQUANT	9	I/E Range
ACHSELECT	IQUANT	1	Ach Select
ACHRANGE	IQUANT	2	Ach Range
ACHOFFSETENABLE	TOGGLE	F	Ach Offset Enable
ACHOFFSET	QUANT	0	Ach Offset (V)
ACHFILTER	IQUANT	1	Ach Filter
CABLEID	IQUANT	14	Cable ID
DCCALDATE	LABEL	5-7-2017	DC Calibration Date
ACCALDATE	LABEL	12/3/2015	AC Calibration Date
FRAMEWORKVERSION	QUANT	7.01	Framework Version
INSTRUMENTVERSION	LABEL	4.00	Instrument Version
CURVE	TABLE	74
	Pt	T	Vf	Im	Vu	Pwr	Sig	Ach	Temp	IERange	Over
	#	s	V	A	V	W	V	V	deg C	#	bits
	0	0.013333	8.33538E-001	-9.87009E-005	0.00000E+000	-8.22710E-005	-5.99601E-002	8.33870E-001	3.57720E+000	9	...........
	1	0.026667	8.20226E-001	-9.89687E-005	0.00000E+000	-8.11767E-005	-5.99601E-002	8.20541E-001	3.57720E+000	9	...........
	2	0.04	8.07446E-001	-9.87353E-005	0.00000E+000	-7.97234E-005	-5.99601E-002	8.07763E-001	3.57720E+000	9	...........
	3	0.053333	7.95043E-001	-9.85769E-005	0.00000E+000	-7.83729E-005	-5.99601E-002	7.95351E-001	3.57720E+000	9	...........
	4	0.066667	7.82845E-001	-9.84415E-005	0.00000E+000	-7.70644E-005	-5.99601E-002	7.83131E-001	3.57720E+000	9	...........
	5	0.08	7.70788E-001	-9.88822E-005	0.00000E+000	-7.62172E-005	-5.99601E-002	7.71069E-001	3.57720E+000	9	...........
	6	0.093333	7.58821E-001	-9.91979E-005	0.00000E+000	-7.52734E-005	-5.99601E-002	7.59077E-001	3.57720E+000	9	...........
	7	0.106667	7.46857E-001	-9.88791E-005	0.00000E+000	-7.38486E-005	-5.99601E-002	7.47125E-001	3.57720E+000	9	...........
	8	0.12	7.34947E-001	-9.87228E-005	0.00000E+000	-7.25560E-005	-5.99601E-002	7.35183E-001	3.57720E+000	9	...........
	9	0.133333	7.23067E-001	-9.86592E-005	0.00000E+000	-7.13373E-005	-5.99601E-002	7.23304E-001	3.57720E+000	9	...........
	10	0.146667	7.11129E-001	-9.84321E-005	0.00000E+000	-6.99979E-005	-5.99601E-002	7.11385E-001	3.57720E+000	9	...........
	11	0.16	6.99232E-001	-9.87790E-005	0.00000E+000	-6.90695E-005	-5.99601E-002	6.99488E-001	3.57720E+000	9	...........
	12	0.173333	6.87342E-001	-9.82050E-005	0.00000E+000	-6.75004E-005	-5.99601E-002	6.87578E-001	3.57720E+000	9	...........
	13	0.186667	6.75491E-001	-9.88186E-005	0.00000E+000	-6.67511E-005	-5.99601E-002	6.75709E-001	3.57720E+000	9	...........
	14	0.2	6.63625E-001	-9.81487E-005	0.00000E+000	-6.51340E-005	-5.99601E-002	6.63825E-001	3.57720E+000	9	...........
	15	0.213333	6.51751E-001	-9.91854E-005	0.00000E+000	-6.46442E-005	-5.99601E-002	6.51979E-001	3.57720E+000	9	...........
	16	0.226667	6.39937E-001	-9.90614E-005	0.00000E+000	-6.33930E-005	-5.99601E-002	6.40169E-001	3.57720E+000	9	...........
	17	0.24	6.28117E-001	-9.89885E-005	0.00000E+000	-6.21764E-005	-5.99601E-002	6.28346E-001	3.57720E+000	9	...........
	18	0.253333	6.16334E-001	-9.83425E-005	0.00000E+000	-6.06118E-005	-5.99601E-002	6.16586E-001	3.57720E+000	9	...........
	19	0.266667	6.04555E-001	-9.90354E-005	0.00000E+000	-5.98723E-005	-5.99601E-002	6.04842E-001	3.57720E+000	9	...........
	20	0.28	5.92878E-001	-9.85050E-005	0.00000E+000	-5.84015E-005	-5.99601E-002	5.93130E-001	3.57720E+000	9	...........
	21	0.293333	5.81186E-001	-9.85363E-005	0.00000E+000	-5.72679E-005	-5.99601E-002	5.81445E-001	3.57720E+000	9	...........
	22	0.306667	5.69592E-001	-9.91750E-005	0.00000E+000	-5.64893E-005	-5.99601E-002	5.69843E-001	3.57720E+000	9	...........
	23	0.32	5.57981E-001	-9.87895E-005	0.00000E+000	-5.51227E-005	-5.99601E-002	5.58240E-001	3.57720E+000	9	...........
	24	0.333333	5.46461E-001	-9.94146E-005	0.00000E+000	-5.43262E-005	-5.99601E-002	5.46705E-001	3.57720E+000	9	...........
	25	0.346667	5.34977E-001	-9.83321E-005	0.00000E+000	-5.26054E-005	-5.99601E-002	5.35226E-001	3.57720E+000	9	...........
	26	0.36	5.23562E-001	-9.94031E-005	0.00000E+000	-5.20437E-005	-5.99601E-002	5.23776E-001	3.57720E+000	9	...........
	27	0.373333	5.12162E-001	-9.87009E-005	0.00000E+000	-5.05509E-005	-5.99601E-002	5.12393E-001	3.57720E+000	9	...........
	28	0.386667	5.00810E-001	-9.79278E-005	0.00000E+000	-4.90433E-005	-5.99601E-002	5.01060E-001	3.57720E+000	9	...........
	29	0.4	4.89534E-001	-9.80101E-005	0.00000E+000	-4.79793E-005	-5.99601E-002	4.89765E-001	3.57720E+000	9	...........
	30	0.413333	4.78618E-001	-9.89218E-005	0.00000E+000	-4.73458E-005	-5.99601E-002	4.78720E-001	3.57720E+000	9	...........
	31	0.426667	4.67405E-001	-9.82321E-005	0.00000E+000	-4.59141E-005	-5.99601E-002	4.67503E-001	3.57720E+000	9	...........
	32	0.44	4.56229E-001	-9.82477E-005	0.00000E+000	-4.48235E-005	-5.99601E-002	4.56325E-001	3.57720E+000	9	...........
	33	0.453333	4.45077E-001	-9.91635E-005	0.00000E+000	-4.41353E-005	-5.99601E-002	4.45175E-001	3.57720E+000	9	...........
	34	0.466667	4.33951E-001	-9.87957E-005	0.00000E+000	-4.28725E-005	-5.99601E-002	4.34037E-001	3.57720E+000	9	...........
	35	0.48	4.22832E-001	-9.83821E-005	0.00000E+000	-4.15991E-005	-5.99601E-002	4.22924E-001	3.57720E+000	9	...........
	36	0.493333	4.11735E-001	-9.79935E-005	0.00000E+000	-4.03474E-005	-5.99601E-002	4.11818E-001	3.57720E+000	9	...........
	37	0.506667	4.00646E-001	-9.87582E-005	0.00000E+000	-3.95671E-005	-5.99601E-002	4.00720E-001	3.57720E+000	9	...........
	38	0.52	3.89550E-001	-9.84529E-005	0.00000E+000	-3.83524E-005	-5.99601E-002	3.89621E-001	3.57720E+000	9	...........
	39	0.533333	3.78435E-001	-9.85519E-005	0.00000E+000	-3.72955E-005	-5.99601E-002	3.78511E-001	3.57720E+000	9	...........
	40	0.546667	3.67319E-001	-9.88478E-005	0.00000E+000	-3.63087E-005	-5.99601E-002	3.67393E-001	3.57720E+000	9	...........
	41	0.56	3.56179E-001	-9.89780E-005	0.00000E+000	-3.52539E-005	-5.99601E-002	3.56245E-001	3.57720E+000	9	...........
	42	0.573333	3.45021E-001	-9.92917E-005	0.00000E+000	-3.42577E-005	-5.99601E-002	3.45085E-001	3.57720E+000	9	...........
	43	0.586667	3.33847E-001	-9.87270E-005	0.00000E+000	-3.29597E-005	-5.99601E-002	3.33912E-001	3.57720E+000	9	...........
	44	0.6	3.22662E-001	-9.85186E-005	0.00000E+000	-3.17882E-005	-5.99601E-002	3.22725E-001	3.57720E+000	9	...........
	45	0.613333	3.11450E-001	-9.81133E-005	0.00000E+000	-3.05573E-005	-5.99601E-002	3.11507E-001	3.57720E+000	9	...........
	46	0.626667	3.00211E-001	-9.88749E-005	0.00000E+000	-2.96834E-005	-5.99601E-002	3.00273E-001	3.57720E+000	9	...........
	47	0.64	2.88960E-001	-9.89749E-005	0.00000E+000	-2.85998E-005	-5.99601E-002	2.89012E-001	3.57720E+000	9	...........
	48	0.653333	2.77688E-001	-9.81925E-005	0.00000E+000	-2.72669E-005	-5.99601E-002	2.77744E-001	3.57720E+000	9	...........
	49	0.666667	2.66386E-001	-9.86103E-005	0.00000E+000	-2.62684E-005	-5.99601E-002	2.66444E-001	3.57720E+000	9	...........
	50	0.68	2.55075E-001	-9.89228E-005	0.00000E+000	-2.52327E-005	-5.99601E-002	2.55131E-001	3.57720E+000	9	...........
	51	0.693333	2.43751E-001	-9.82425E-005	0.00000E+000	-2.39467E-005	-5.99601E-002	2.43797E-001	3.57720E+000	9	...........
	52	0.706667	2.32413E-001	-9.87301E-005	0.00000E+000	-2.29461E-005	-5.99601E-002	2.32457E-001	3.57720E+000	9	...........
	53	0.72	2.21062E-001	-9.83383E-005	0.00000E+000	-2.17388E-005	-5.99601E-002	2.21096E-001	3.57720E+000	9	...........
	54	0.733333	2.09700E-001	-9.89833E-005	0.00000E+000	-2.07568E-005	-5.99601E-002	2.09735E-001	3.57720E+000	9	...........
	55	0.746667	1.98338E-001	-9.86926E-005	0.00000E+000	-1.95745E-005	-5.99601E-002	1.98377E-001	3.57720E+000	9	...........
	56	0.76	1.86987E-001	-9.80393E-005	0.00000E+000	-1.83320E-005	-5.99601E-002	1.87020E-001	3.57720E+000	9	...........
	57	0.773333	1.75641E-001	-9.87561E-005	0.00000E+000	-1.73456E-005	-5.99601E-002	1.75673E-001	3.57720E+000	9	...........
	58	0.786667	1.64311E-001	-9.89635E-005	0.00000E+000	-1.62608E-005	-5.99601E-002	1.64340E-001	3.57720E+000	9	...........
	59	0.8	1.53003E-001	-9.80935E-005	0.00000E+000	-1.50086E-005	-5.99601E-002	1.53037E-001	3.57720E+000	9	...........
	60	0.813333	1.41734E-001	-9.86030E-005	0.00000E+000	-1.39754E-005	-5.99601E-002	1.41756E-001	3.57720E+000	9	...........
	61	0.826667	1.30489E-001	-9.91927E-005	0.00000E+000	-1.29435E-005	-5.99601E-002	1.30521E-001	3.57720E+000	9	...........
	62	0.84	1.19309E-001	-9.86738E-005	0.00000E+000	-1.17727E-005	-5.99601E-002	1.19329E-001	3.57720E+000	9	...........
	63	0.853333	1.08179E-001	-9.86248E-005	0.00000E+000	-1.06691E-005	-5.99601E-002	1.08197E-001	3.57720E+000	9	...........
	64	0.866667	9.71043E-002	-9.84144E-005	0.00000E+000	-9.55646E-006	-5.99601E-002	9.71233E-002	3.57720E+000	9	...........
	65	0.88	8.61003E-002	-9.93437E-005	0.00000E+000	-8.55353E-006	-5.99601E-002	8.61175E-002	3.57720E+000	9	...........
	66	0.893333	7.51984E-002	-9.85457E-005	0.00000E+000	-7.41047E-006	-5.99601E-002	7.52049E-002	3.57720E+000	9	...........
	67	0.906667	6.43830E-002	-9.77632E-005	0.00000E+000	-6.29429E-006	-5.99601E-002	6.43883E-002	3.57720E+000	9	...........
	68	0.92	5.36654E-002	-9.86978E-005	0.00000E+000	-5.29665E-006	-5.99601E-002	5.36651E-002	3.57720E+000	9	...........
	69	0.933333	4.30926E-002	-9.88093E-005	0.00000E+000	-4.25795E-006	-5.99601E-002	4.30934E-002	3.57720E+000	9	...........
	70	0.946667	3.26175E-002	-9.85092E-005	0.00000E+000	-3.21313E-006	-5.99601E-002	3.26164E-002	3.57720E+000	9	...........
	71	0.96	2.22747E-002	-9.79976E-005	0.00000E+000	-2.18287E-006	-5.99601E-002	2.22626E-002	3.57720E+000	9	...........
	72	0.97333	1.20745E-002	-9.85436E-005	0.00000E+000	-1.18987E-006	-5.99601E-002	1.20566E-002	3.57720E+000	9	...........
	73	0.985	2.65332E-003	-9.89818E-005	0.00000E+000	-2.62630E-007	-5.99601E-002	2.62753E-003	3.57726E+000	9	...........
STARTTIMEOFFSET	QUANT	51.38334	Start Time Offset (s)
