EXPLAIN
TAG	PWR800_DISCHARGE
TITLE	LABEL	PWR Cyclic Charge Discharge (Cell) - Discharge Step	Test &Identifier
DATE	LABEL	12-7-2017	Date
TIME	LABEL	16:35:43	Time
NOTES	NOTES	2	&Notes...
	supercap test cell
	6M KOH
PSTAT	PSTAT	IFC5000-01520	Potentiostat
CAPACITY	QUANT	1.00000E-003	Capacity (A-hr)
CELLTYPE	SELECTOR	1	&Cell Type
WORKINGCONNECTION	SELECTOR	0	&Working Lead
MAXDISCHARGETIME	VARIABLEANDUNITS	1.00000E+002	s	1.00000E+002	second(s)	Max &Discharge Time
DISCHARGEMODE	MULTIPARAM	0	1.00000E-004	&Discharge Mode	Constant Current	Amp(s)
SAMPLETIME	QUANT	1.00000E-002	Sa&mple Period (s)
DISCHARGESTOPAT1	MULTIPARAM	3	0.00000E+000	Discharge Stop At &1	Voltage < Limit	V
DISCHARGESTOPAT2	MULTIPARAM	0	0.00000E+000	Discharge Stop At &2	None	N/A
AESBHCSELECTOR	TOGGLE	F	Save Both Half Cells
IRCOMP	TOGGLE	F	IR &Measure
EOC	QUANT	0	Open Circuit (V)
SEQUENCER	TOGGLE	TRUE	Run as Sequence
PSTATMODEL	IQUANT	53	Pstat Model
PSTATSECTION	LABEL	IFC5000-01520	Pstat Section
PSTATSERIALNO	LABEL	01520	Pstat Serial Number
CTRLMODE	IQUANT	0	Control Mode
ELECTROMETER	IQUANT	1	RE=0 or CS=1
IESTAB	IQUANT	0	I/E Stability
CASPEED	IQUANT	4	Control Amp Speed
CONVENTION	IQUANT	1	Current Convention
ICHRANGE	IQUANT	2	Ich Range
ICHRANGEMODE	TOGGLE	T	Ich Auto Range
ICHOFFSETENABLE	TOGGLE	F	Ich Offset Enable
ICHOFFSET	QUANT	0	Ich Offset (V)
ICHFILTER	IQUANT	1	Ich Filter
VCHRANGE	IQUANT	2	Vch Range
VCHRANGEMODE	TOGGLE	T	Vch Auto Range
VCHOFFSETENABLE	TOGGLE	F	Vch Offset Enable
VCHOFFSET	QUANT	0	Vch Offset (V)
VCHFILTER	IQUANT	1	Vch Filter
IERANGELOWERLIMIT	IQUANT	9	I/E Range Lower Limit
IERANGEMODE	TOGGLE	F	I/E AutoRange
IERANGE	IQUANT	9	I/E Range
ACHSELECT	IQUANT	1	Ach Select
ACHRANGE	IQUANT	2	Ach Range
ACHOFFSETENABLE	TOGGLE	F	Ach Offset Enable
ACHOFFSET	QUANT	0	Ach Offset (V)
ACHFILTER	IQUANT	1	Ach Filter
CABLEID	IQUANT	14	Cable ID
DCCALDATE	LABEL	5-7-2017	DC Calibration Date
ACCALDATE	LABEL	12/3/2015	AC Calibration Date
FRAMEWORKVERSION	QUANT	7.01	Framework Version
INSTRUMENTVERSION	LABEL	4.00	Instrument Version
CURVE	TABLE	71
	Pt	T	Vf	Im	Vu	Pwr	Sig	Ach	Temp	IERange	Over
	#	s	V	A	V	W	V	V	deg C	#	bits
	0	0.013333	8.44585E-001	-9.88999E-005	0.00000E+000	-8.35294E-005	-5.99601E-002	8.44897E-001	3.57680E+000	9	...........
	1	0.026667	8.31540E-001	-9.94396E-005	0.00000E+000	-8.26880E-005	-5.99601E-002	8.31837E-001	3.57680E+000	9	...........
	2	0.04	8.19084E-001	-9.88332E-005	0.00000E+000	-8.09527E-005	-5.99601E-002	8.19366E-001	3.57680E+000	9	...........
	3	0.053333	8.06991E-001	-9.84519E-005	0.00000E+000	-7.94498E-005	-5.99601E-002	8.07281E-001	3.57680E+000	9	...........
	4	0.066667	7.95193E-001	-9.84561E-005	0.00000E+000	-7.82916E-005	-5.99601E-002	7.95441E-001	3.57680E+000	9	...........
	5	0.08	7.83550E-001	-9.85550E-005	0.00000E+000	-7.72228E-005	-5.99601E-002	7.83817E-001	3.57680E+000	9	...........
	6	0.093333	7.72087E-001	-9.75538E-005	0.00000E+000	-7.53200E-005	-5.99601E-002	7.72352E-001	3.57680E+000	9	...........
	7	0.106667	7.60745E-001	-9.90801E-005	0.00000E+000	-7.53747E-005	-5.99601E-002	7.60997E-001	3.57680E+000	9	...........
	8	0.12	7.49520E-001	-9.88009E-005	0.00000E+000	-7.40532E-005	-5.99601E-002	7.49772E-001	3.57680E+000	9	...........
	9	0.133333	7.38391E-001	-9.91708E-005	0.00000E+000	-7.32268E-005	-5.99601E-002	7.38646E-001	3.57680E+000	9	...........
	10	0.146667	7.27379E-001	-9.83290E-005	0.00000E+000	-7.15224E-005	-5.99601E-002	7.27655E-001	3.57680E+000	9	...........
	11	0.16	7.16429E-001	-9.81935E-005	0.00000E+000	-7.03486E-005	-5.99601E-002	7.16703E-001	3.57680E+000	9	...........
	12	0.173333	7.05586E-001	-9.88989E-005	0.00000E+000	-6.97817E-005	-5.99601E-002	7.05844E-001	3.57680E+000	9	...........
	13	0.186667	6.94801E-001	-9.84467E-005	0.00000E+000	-6.84008E-005	-5.99601E-002	6.95067E-001	3.57680E+000	9	...........
	14	0.2	6.84090E-001	-9.94459E-005	0.00000E+000	-6.80300E-005	-5.99601E-002	6.84348E-001	3.57680E+000	9	...........
	15	0.213333	6.73433E-001	-9.77684E-005	0.00000E+000	-6.58405E-005	-5.99601E-002	6.73717E-001	3.57680E+000	9	...........
	16	0.226667	6.62770E-001	-9.93771E-005	0.00000E+000	-6.58642E-005	-5.99601E-002	6.63034E-001	3.57680E+000	9	...........
	17	0.24	6.52140E-001	-9.78466E-005	0.00000E+000	-6.38097E-005	-5.99601E-002	6.52392E-001	3.57680E+000	9	...........
	18	0.253333	6.41392E-001	-9.79653E-005	0.00000E+000	-6.28342E-005	-5.99601E-002	6.41636E-001	3.57680E+000	9	...........
	19	0.266667	6.30531E-001	-9.95917E-005	0.00000E+000	-6.27956E-005	-5.99601E-002	6.30771E-001	3.57680E+000	9	...........
	20	0.28	6.19542E-001	-9.95292E-005	0.00000E+000	-6.16625E-005	-5.99601E-002	6.19739E-001	3.57680E+000	9	...........
	21	0.293333	6.08290E-001	-9.84352E-005	0.00000E+000	-5.98772E-005	-5.99601E-002	6.08547E-001	3.57680E+000	9	...........
	22	0.306667	5.96910E-001	-9.95563E-005	0.00000E+000	-5.94261E-005	-5.99601E-002	5.97162E-001	3.57680E+000	9	...........
	23	0.32	5.85311E-001	-9.78914E-005	0.00000E+000	-5.72969E-005	-5.99601E-002	5.85557E-001	3.57680E+000	9	...........
	24	0.333333	5.73503E-001	-9.86571E-005	0.00000E+000	-5.65802E-005	-5.99601E-002	5.73742E-001	3.57680E+000	9	...........
	25	0.346667	5.61545E-001	-9.90312E-005	0.00000E+000	-5.56105E-005	-5.99601E-002	5.61764E-001	3.57680E+000	9	...........
	26	0.36	5.49368E-001	-9.91823E-005	0.00000E+000	-5.44876E-005	-5.99601E-002	5.49606E-001	3.57680E+000	9	...........
	27	0.373333	5.37035E-001	-9.98439E-005	0.00000E+000	-5.36196E-005	-5.99601E-002	5.37264E-001	3.57680E+000	9	...........
	28	0.386667	5.24564E-001	-9.84654E-005	0.00000E+000	-5.16514E-005	-5.99601E-002	5.24796E-001	3.57680E+000	9	...........
	29	0.4	5.11986E-001	-9.89666E-005	0.00000E+000	-5.06695E-005	-5.99601E-002	5.12210E-001	3.57680E+000	9	...........
	30	0.413333	4.99253E-001	-9.86988E-005	0.00000E+000	-4.92757E-005	-5.99601E-002	4.99468E-001	3.57680E+000	9	...........
	31	0.426667	4.86525E-001	-9.91416E-005	0.00000E+000	-4.82349E-005	-5.99601E-002	4.86695E-001	3.57680E+000	9	...........
	32	0.44	4.73843E-001	-9.82102E-005	0.00000E+000	-4.65362E-005	-5.99601E-002	4.73944E-001	3.57680E+000	9	...........
	33	0.453333	4.60851E-001	-9.88634E-005	0.00000E+000	-4.55613E-005	-5.99601E-002	4.60943E-001	3.57680E+000	9	...........
	34	0.466667	4.47785E-001	-9.84519E-005	0.00000E+000	-4.40853E-005	-5.99601E-002	4.47880E-001	3.57680E+000	9	...........
	35	0.48	4.34668E-001	-1.00094E-004	0.00000E+000	-4.35076E-005	-5.99601E-002	4.34758E-001	3.57680E+000	9	...........
	36	0.493333	4.21507E-001	-9.80591E-005	0.00000E+000	-4.13326E-005	-5.99601E-002	4.21605E-001	3.57680E+000	9	...........
	37	0.506667	4.08328E-001	-9.88489E-005	0.00000E+000	-4.03627E-005	-5.99601E-002	4.08413E-001	3.57680E+000	9	...........
	38	0.52	3.95120E-001	-9.77070E-005	0.00000E+000	-3.86060E-005	-5.99601E-002	3.95200E-001	3.57680E+000	9	...........
	39	0.533333	3.81902E-001	-9.91385E-005	0.00000E+000	-3.78612E-005	-5.99601E-002	3.81979E-001	3.57680E+000	9	...........
	40	0.546667	3.68689E-001	-9.87145E-005	0.00000E+000	-3.63949E-005	-5.99601E-002	3.68766E-001	3.57680E+000	9	...........
	41	0.56	3.55488E-001	-9.91125E-005	0.00000E+000	-3.52333E-005	-5.99601E-002	3.55559E-001	3.57680E+000	9	...........
	42	0.573333	3.42309E-001	-9.88238E-005	0.00000E+000	-3.38283E-005	-5.99601E-002	3.42378E-001	3.57680E+000	9	...........
	43	0.586667	3.29167E-001	-9.85259E-005	0.00000E+000	-3.24314E-005	-5.99601E-002	3.29234E-001	3.57680E+000	9	...........
	44	0.6	3.16063E-001	-9.82404E-005	0.00000E+000	-3.10502E-005	-5.99601E-002	3.16128E-001	3.57680E+000	9	...........
	45	0.613333	3.02998E-001	-9.84925E-005	0.00000E+000	-2.98430E-005	-5.99601E-002	3.03062E-001	3.57680E+000	9	...........
	46	0.626667	2.89988E-001	-9.85050E-005	0.00000E+000	-2.85653E-005	-5.99601E-002	2.90058E-001	3.57680E+000	9	...........
	47	0.64	2.77039E-001	-9.95782E-005	0.00000E+000	-2.75871E-005	-5.99601E-002	2.77096E-001	3.57680E+000	9	...........
	48	0.653333	2.64147E-001	-9.87092E-005	0.00000E+000	-2.60737E-005	-5.99601E-002	2.64212E-001	3.57680E+000	9	...........
	49	0.666667	2.51316E-001	-9.87613E-005	0.00000E+000	-2.48203E-005	-5.99601E-002	2.51370E-001	3.57680E+000	9	...........
	50	0.68	2.38553E-001	-9.76246E-005	0.00000E+000	-2.32887E-005	-5.99601E-002	2.38604E-001	3.57680E+000	9	...........
	51	0.693333	2.25844E-001	-9.94406E-005	0.00000E+000	-2.24581E-005	-5.99601E-002	2.25895E-001	3.57680E+000	9	...........
	52	0.706667	2.13201E-001	-9.72152E-005	0.00000E+000	-2.07263E-005	-5.99601E-002	2.13245E-001	3.57680E+000	9	...........
	53	0.72	2.00621E-001	-9.72881E-005	0.00000E+000	-1.95180E-005	-5.99601E-002	2.00667E-001	3.57680E+000	9	...........
	54	0.733333	1.88104E-001	-9.96657E-005	0.00000E+000	-1.87475E-005	-5.99601E-002	1.88145E-001	3.57680E+000	9	...........
	55	0.746667	1.75645E-001	-9.81508E-005	0.00000E+000	-1.72397E-005	-5.99601E-002	1.75679E-001	3.57680E+000	9	...........
	56	0.76	1.63244E-001	-9.92937E-005	0.00000E+000	-1.62091E-005	-5.99601E-002	1.63276E-001	3.57680E+000	9	...........
	57	0.773333	1.50902E-001	-9.91739E-005	0.00000E+000	-1.49655E-005	-5.99601E-002	1.50930E-001	3.57680E+000	9	...........
	58	0.786667	1.38622E-001	-9.89051E-005	0.00000E+000	-1.37105E-005	-5.99601E-002	1.38642E-001	3.57680E+000	9	...........
	59	0.8	1.26398E-001	-9.90520E-005	0.00000E+000	-1.25200E-005	-5.99601E-002	1.26432E-001	3.57680E+000	9	...........
	60	0.813333	1.14258E-001	-9.95803E-005	0.00000E+000	-1.13778E-005	-5.99601E-002	1.14280E-001	3.57680E+000	9	...........
	61	0.826667	1.02195E-001	-9.87895E-005	0.00000E+000	-1.00958E-005	-5.99601E-002	1.02215E-001	3.57680E+000	9	...........
	62	0.84	9.02132E-002	-9.87030E-005	0.00000E+000	-8.90432E-006	-5.99601E-002	9.02298E-002	3.57680E+000	9	...........
	63	0.853333	7.83389E-002	-9.86384E-005	0.00000E+000	-7.72722E-006	-5.99601E-002	7.83517E-002	3.57761E+000	9	...........
	64	0.866667	6.65698E-002	-9.88999E-005	0.00000E+000	-6.58375E-006	-5.99601E-002	6.65716E-002	3.57810E+000	9	...........
	65	0.88	5.49145E-002	-9.85853E-005	0.00000E+000	-5.41376E-006	-5.99601E-002	5.49170E-002	3.57810E+000	9	...........
	66	0.893333	4.34126E-002	-9.89603E-005	0.00000E+000	-4.29613E-006	-5.99601E-002	4.34192E-002	3.57810E+000	9	...........
	67	0.906667	3.20360E-002	-9.86707E-005	0.00000E+000	-3.16102E-006	-5.99601E-002	3.20354E-002	3.57810E+000	9	...........
	68	0.92	2.07979E-002	-9.91093E-005	0.00000E+000	-2.06126E-006	-5.99601E-002	2.07884E-002	3.57810E+000	9	...........
	69	0.933333	9.71076E-003	-9.90437E-005	0.00000E+000	-9.61789E-007	-5.99601E-002	9.69533E-003	3.57810E+000	9	...........
	70	0.94	1.49974E-003	-9.93479E-005	0.00000E+000	-1.48996E-007	-5.99601E-002	1.47395E-003	3.57810E+000	9	...........
STARTTIMEOFFSET	QUANT	1097.044	Start Time Offset (s)
