EXPLAIN
TAG	PWR800_DISCHARGE
TITLE	LABEL	PWR Cyclic Charge Discharge (Cell) - Discharge Step	Test &Identifier
DATE	LABEL	12-7-2017	Date
TIME	LABEL	16:44:49	Time
NOTES	NOTES	2	&Notes...
	supercap test cell
	6M KOH
PSTAT	PSTAT	IFC5000-01520	Potentiostat
CAPACITY	QUANT	1.00000E-003	Capacity (A-hr)
CELLTYPE	SELECTOR	1	&Cell Type
WORKINGCONNECTION	SELECTOR	0	&Working Lead
MAXDISCHARGETIME	VARIABLEANDUNITS	1.00000E+002	s	1.00000E+002	second(s)	Max &Discharge Time
DISCHARGEMODE	MULTIPARAM	0	1.00000E-004	&Discharge Mode	Constant Current	Amp(s)
SAMPLETIME	QUANT	1.00000E-002	Sa&mple Period (s)
DISCHARGESTOPAT1	MULTIPARAM	3	0.00000E+000	Discharge Stop At &1	Voltage < Limit	V
DISCHARGESTOPAT2	MULTIPARAM	0	0.00000E+000	Discharge Stop At &2	None	N/A
AESBHCSELECTOR	TOGGLE	F	Save Both Half Cells
IRCOMP	TOGGLE	F	IR &Measure
EOC	QUANT	0	Open Circuit (V)
SEQUENCER	TOGGLE	TRUE	Run as Sequence
PSTATMODEL	IQUANT	53	Pstat Model
PSTATSECTION	LABEL	IFC5000-01520	Pstat Section
PSTATSERIALNO	LABEL	01520	Pstat Serial Number
CTRLMODE	IQUANT	0	Control Mode
ELECTROMETER	IQUANT	1	RE=0 or CS=1
IESTAB	IQUANT	0	I/E Stability
CASPEED	IQUANT	4	Control Amp Speed
CONVENTION	IQUANT	1	Current Convention
ICHRANGE	IQUANT	2	Ich Range
ICHRANGEMODE	TOGGLE	T	Ich Auto Range
ICHOFFSETENABLE	TOGGLE	F	Ich Offset Enable
ICHOFFSET	QUANT	0	Ich Offset (V)
ICHFILTER	IQUANT	1	Ich Filter
VCHRANGE	IQUANT	2	Vch Range
VCHRANGEMODE	TOGGLE	T	Vch Auto Range
VCHOFFSETENABLE	TOGGLE	F	Vch Offset Enable
VCHOFFSET	QUANT	0	Vch Offset (V)
VCHFILTER	IQUANT	1	Vch Filter
IERANGELOWERLIMIT	IQUANT	9	I/E Range Lower Limit
IERANGEMODE	TOGGLE	F	I/E AutoRange
IERANGE	IQUANT	9	I/E Range
ACHSELECT	IQUANT	1	Ach Select
ACHRANGE	IQUANT	2	Ach Range
ACHOFFSETENABLE	TOGGLE	F	Ach Offset Enable
ACHOFFSET	QUANT	0	Ach Offset (V)
ACHFILTER	IQUANT	1	Ach Filter
CABLEID	IQUANT	14	Cable ID
DCCALDATE	LABEL	5-7-2017	DC Calibration Date
ACCALDATE	LABEL	12/3/2015	AC Calibration Date
FRAMEWORKVERSION	QUANT	7.01	Framework Version
INSTRUMENTVERSION	LABEL	4.00	Instrument Version
CURVE	TABLE	71
	Pt	T	Vf	Im	Vu	Pwr	Sig	Ach	Temp	IERange	Over
	#	s	V	A	V	W	V	V	deg C	#	bits
	0	0.013333	8.46988E-001	-9.84915E-005	0.00000E+000	-8.34211E-005	-5.99601E-002	8.47267E-001	3.57790E+000	9	...........
	1	0.026667	8.33818E-001	-9.96417E-005	0.00000E+000	-8.30831E-005	-5.99601E-002	8.34087E-001	3.57790E+000	9	...........
	2	0.04	8.21269E-001	-9.90645E-005	0.00000E+000	-8.13586E-005	-5.99601E-002	8.21520E-001	3.57790E+000	9	...........
	3	0.053333	8.09057E-001	-9.84623E-005	0.00000E+000	-7.96616E-005	-5.99601E-002	8.09308E-001	3.57790E+000	9	...........
	4	0.066667	7.97147E-001	-9.83696E-005	0.00000E+000	-7.84150E-005	-5.99601E-002	7.97402E-001	3.57790E+000	9	...........
	5	0.08	7.85385E-001	-9.78288E-005	0.00000E+000	-7.68333E-005	-5.99601E-002	7.85650E-001	3.57790E+000	9	...........
	6	0.093333	7.73812E-001	-9.95990E-005	0.00000E+000	-7.70710E-005	-5.99601E-002	7.74067E-001	3.57790E+000	9	...........
	7	0.106667	7.62354E-001	-9.85863E-005	0.00000E+000	-7.51577E-005	-5.99601E-002	7.62571E-001	3.57790E+000	9	...........
	8	0.12	7.51005E-001	-9.85665E-005	0.00000E+000	-7.40240E-005	-5.99601E-002	7.51257E-001	3.57790E+000	9	...........
	9	0.133333	7.39755E-001	-1.00605E-004	0.00000E+000	-7.44234E-005	-5.99601E-002	7.39975E-001	3.57790E+000	9	...........
	10	0.146667	7.28609E-001	-9.94021E-005	0.00000E+000	-7.24253E-005	-5.99601E-002	7.28844E-001	3.57790E+000	9	...........
	11	0.16	7.17513E-001	-9.79789E-005	0.00000E+000	-7.03011E-005	-5.99601E-002	7.17786E-001	3.57790E+000	9	...........
	12	0.173333	7.06501E-001	-9.87770E-005	0.00000E+000	-6.97861E-005	-5.99601E-002	7.06776E-001	3.57790E+000	9	...........
	13	0.186667	6.95607E-001	-9.89270E-005	0.00000E+000	-6.88143E-005	-5.99601E-002	6.95878E-001	3.57790E+000	9	...........
	14	0.2	6.84758E-001	-9.87613E-005	0.00000E+000	-6.76276E-005	-5.99601E-002	6.85040E-001	3.57790E+000	9	...........
	15	0.213333	6.73994E-001	-9.89676E-005	0.00000E+000	-6.67036E-005	-5.99601E-002	6.74255E-001	3.57790E+000	9	...........
	16	0.226667	6.63262E-001	-9.86134E-005	0.00000E+000	-6.54065E-005	-5.99601E-002	6.63528E-001	3.57790E+000	9	...........
	17	0.24	6.52536E-001	-9.88228E-005	0.00000E+000	-6.44855E-005	-5.99601E-002	6.52808E-001	3.57790E+000	9	...........
	18	0.253333	6.41815E-001	-9.77455E-005	0.00000E+000	-6.27345E-005	-5.99601E-002	6.42047E-001	3.57790E+000	9	...........
	19	0.266667	6.30988E-001	-9.75402E-005	0.00000E+000	-6.15468E-005	-5.99601E-002	6.31217E-001	3.57790E+000	9	...........
	20	0.28	6.20064E-001	-9.83394E-005	0.00000E+000	-6.09767E-005	-5.99601E-002	6.20283E-001	3.57790E+000	9	...........
	21	0.293333	6.08909E-001	-9.90760E-005	0.00000E+000	-6.03283E-005	-5.99601E-002	6.09161E-001	3.57790E+000	9	...........
	22	0.306667	5.97589E-001	-9.88718E-005	0.00000E+000	-5.90846E-005	-5.99601E-002	5.97821E-001	3.57790E+000	9	...........
	23	0.32	5.86087E-001	-9.85853E-005	0.00000E+000	-5.77795E-005	-5.99601E-002	5.86298E-001	3.57790E+000	9	...........
	24	0.333333	5.74347E-001	-9.99001E-005	0.00000E+000	-5.73774E-005	-5.99601E-002	5.74560E-001	3.57790E+000	9	...........
	25	0.346667	5.62412E-001	-9.82404E-005	0.00000E+000	-5.52516E-005	-5.99601E-002	5.62625E-001	3.57790E+000	9	...........
	26	0.36	5.50269E-001	-9.95990E-005	0.00000E+000	-5.48062E-005	-5.99601E-002	5.50497E-001	3.57790E+000	9	...........
	27	0.373333	5.37959E-001	-9.86717E-005	0.00000E+000	-5.30813E-005	-5.99601E-002	5.38164E-001	3.57790E+000	9	...........
	28	0.386667	5.25476E-001	-9.99095E-005	0.00000E+000	-5.25000E-005	-5.99601E-002	5.25675E-001	3.57790E+000	9	...........
	29	0.4	5.12813E-001	-9.83300E-005	0.00000E+000	-5.04249E-005	-5.99601E-002	5.13043E-001	3.57790E+000	9	...........
	30	0.413333	5.00030E-001	-9.85175E-005	0.00000E+000	-4.92617E-005	-5.99601E-002	5.00271E-001	3.57790E+000	9	...........
	31	0.426667	4.87241E-001	-9.94854E-005	0.00000E+000	-4.84734E-005	-5.99601E-002	4.87431E-001	3.57790E+000	9	...........
	32	0.44	4.74447E-001	-1.00268E-004	0.00000E+000	-4.75718E-005	-5.99601E-002	4.74549E-001	3.57790E+000	9	...........
	33	0.453333	4.61344E-001	-9.84779E-005	0.00000E+000	-4.54322E-005	-5.99601E-002	4.61447E-001	3.57790E+000	9	...........
	34	0.466667	4.48166E-001	-9.96073E-005	0.00000E+000	-4.46406E-005	-5.99601E-002	4.48262E-001	3.57790E+000	9	...........
	35	0.48	4.34922E-001	-9.88186E-005	0.00000E+000	-4.29784E-005	-5.99601E-002	4.35014E-001	3.57790E+000	9	...........
	36	0.493333	4.21625E-001	-9.86821E-005	0.00000E+000	-4.16068E-005	-5.99601E-002	4.21709E-001	3.57790E+000	9	...........
	37	0.506667	4.08295E-001	-9.86353E-005	0.00000E+000	-4.02723E-005	-5.99601E-002	4.08374E-001	3.57790E+000	9	...........
	38	0.52	3.94931E-001	-9.77695E-005	0.00000E+000	-3.86122E-005	-5.99601E-002	3.95010E-001	3.57790E+000	9	...........
	39	0.533333	3.81544E-001	-9.79778E-005	0.00000E+000	-3.73829E-005	-5.99601E-002	3.81620E-001	3.57790E+000	9	...........
	40	0.546667	3.68169E-001	-9.89958E-005	0.00000E+000	-3.64472E-005	-5.99601E-002	3.68237E-001	3.57790E+000	9	...........
	41	0.56	3.54796E-001	-9.82748E-005	0.00000E+000	-3.48675E-005	-5.99601E-002	3.54867E-001	3.57790E+000	9	...........
	42	0.573333	3.41445E-001	-9.78653E-005	0.00000E+000	-3.34156E-005	-5.99601E-002	3.41512E-001	3.57668E+000	9	...........
	43	0.586667	3.28118E-001	-9.82404E-005	0.00000E+000	-3.22345E-005	-5.99601E-002	3.28187E-001	3.57660E+000	9	...........
	44	0.6	3.14835E-001	-9.88864E-005	0.00000E+000	-3.11328E-005	-5.99601E-002	3.14898E-001	3.57660E+000	9	...........
	45	0.613333	3.01592E-001	-9.85217E-005	0.00000E+000	-2.97133E-005	-5.99601E-002	3.01650E-001	3.57660E+000	9	...........
	46	0.626667	2.88399E-001	-9.90468E-005	0.00000E+000	-2.85650E-005	-5.99601E-002	2.88459E-001	3.57660E+000	9	...........
	47	0.64	2.75274E-001	-9.82133E-005	0.00000E+000	-2.70356E-005	-5.99601E-002	2.75326E-001	3.57660E+000	9	...........
	48	0.653333	2.62199E-001	-9.95959E-005	0.00000E+000	-2.61139E-005	-5.99601E-002	2.62261E-001	3.57660E+000	9	...........
	49	0.666667	2.49209E-001	-9.76246E-005	0.00000E+000	-2.43290E-005	-5.99601E-002	2.49256E-001	3.57660E+000	9	...........
	50	0.68	2.36281E-001	-9.85269E-005	0.00000E+000	-2.32801E-005	-5.99601E-002	2.36324E-001	3.57660E+000	9	...........
	51	0.693333	2.23424E-001	-9.92958E-005	0.00000E+000	-2.21851E-005	-5.99601E-002	2.23462E-001	3.57660E+000	9	...........
	52	0.706667	2.10631E-001	-9.80404E-005	0.00000E+000	-2.06504E-005	-5.99601E-002	2.10668E-001	3.57660E+000	9	...........
	53	0.72	1.97898E-001	-9.90593E-005	0.00000E+000	-1.96037E-005	-5.99601E-002	1.97941E-001	3.57660E+000	9	...........
	54	0.733333	1.85255E-001	-9.81904E-005	0.00000E+000	-1.81902E-005	-5.99601E-002	1.85293E-001	3.57660E+000	9	...........
	55	0.746667	1.72680E-001	-9.83592E-005	0.00000E+000	-1.69847E-005	-5.99601E-002	1.72714E-001	3.57660E+000	9	...........
	56	0.76	1.60181E-001	-9.79195E-005	0.00000E+000	-1.56849E-005	-5.99601E-002	1.60207E-001	3.57660E+000	9	...........
	57	0.773333	1.47741E-001	-1.00119E-004	0.00000E+000	-1.47916E-005	-5.99601E-002	1.47768E-001	3.57660E+000	9	...........
	58	0.786667	1.35375E-001	-9.78736E-005	0.00000E+000	-1.32497E-005	-5.99601E-002	1.35402E-001	3.57660E+000	9	...........
	59	0.8	1.23085E-001	-9.94948E-005	0.00000E+000	-1.22463E-005	-5.99601E-002	1.23110E-001	3.57660E+000	9	...........
	60	0.813333	1.10881E-001	-9.88478E-005	0.00000E+000	-1.09603E-005	-5.99601E-002	1.10904E-001	3.57660E+000	9	...........
	61	0.826667	9.87625E-002	-9.97949E-005	0.00000E+000	-9.85599E-006	-5.99601E-002	9.87860E-002	3.57660E+000	9	...........
	62	0.84	8.67448E-002	-9.85457E-005	0.00000E+000	-8.54832E-006	-5.99601E-002	8.67571E-002	3.57660E+000	9	...........
	63	0.853333	7.48396E-002	-9.93052E-005	0.00000E+000	-7.43196E-006	-5.99601E-002	7.48479E-002	3.57660E+000	9	...........
	64	0.866667	6.30474E-002	-9.79393E-005	0.00000E+000	-6.17482E-006	-5.99601E-002	6.30507E-002	3.57660E+000	9	...........
	65	0.88	5.13844E-002	-9.78580E-005	0.00000E+000	-5.02837E-006	-5.99601E-002	5.13898E-002	3.57660E+000	9	...........
	66	0.893333	3.98857E-002	-9.89864E-005	0.00000E+000	-3.94814E-006	-5.99601E-002	3.98858E-002	3.57660E+000	9	...........
	67	0.906667	2.85009E-002	-9.82279E-005	0.00000E+000	-2.79959E-006	-5.99601E-002	2.85025E-002	3.57660E+000	9	...........
	68	0.92	1.72818E-002	-9.82352E-005	0.00000E+000	-1.69768E-006	-5.99601E-002	1.72763E-002	3.57660E+000	9	...........
	69	0.933333	6.22937E-003	-9.74163E-005	0.00000E+000	-6.06842E-007	-5.99601E-002	6.21473E-003	3.57660E+000	9	...........
	70	0.936667	-5.98394E-004	-9.73142E-005	0.00000E+000	5.82322E-008	-5.99601E-002	-6.15619E-004	3.57660E+000	9	...........
STARTTIMEOFFSET	QUANT	1482.264	Start Time Offset (s)
