EXPLAIN
TAG	PWR800_DISCHARGE
TITLE	LABEL	PWR Cyclic Charge Discharge (Cell) - Discharge Step	Test &Identifier
DATE	LABEL	12-7-2017	Date
TIME	LABEL	16:26:23	Time
NOTES	NOTES	2	&Notes...
	supercap test cell
	6M KOH
PSTAT	PSTAT	IFC5000-01520	Potentiostat
CAPACITY	QUANT	1.00000E-003	Capacity (A-hr)
CELLTYPE	SELECTOR	1	&Cell Type
WORKINGCONNECTION	SELECTOR	0	&Working Lead
MAXDISCHARGETIME	VARIABLEANDUNITS	1.00000E+002	s	1.00000E+002	second(s)	Max &Discharge Time
DISCHARGEMODE	MULTIPARAM	0	1.00000E-004	&Discharge Mode	Constant Current	Amp(s)
SAMPLETIME	QUANT	1.00000E-002	Sa&mple Period (s)
DISCHARGESTOPAT1	MULTIPARAM	3	0.00000E+000	Discharge Stop At &1	Voltage < Limit	V
DISCHARGESTOPAT2	MULTIPARAM	0	0.00000E+000	Discharge Stop At &2	None	N/A
AESBHCSELECTOR	TOGGLE	F	Save Both Half Cells
IRCOMP	TOGGLE	F	IR &Measure
EOC	QUANT	0	Open Circuit (V)
SEQUENCER	TOGGLE	TRUE	Run as Sequence
PSTATMODEL	IQUANT	53	Pstat Model
PSTATSECTION	LABEL	IFC5000-01520	Pstat Section
PSTATSERIALNO	LABEL	01520	Pstat Serial Number
CTRLMODE	IQUANT	0	Control Mode
ELECTROMETER	IQUANT	1	RE=0 or CS=1
IESTAB	IQUANT	0	I/E Stability
CASPEED	IQUANT	4	Control Amp Speed
CONVENTION	IQUANT	1	Current Convention
ICHRANGE	IQUANT	2	Ich Range
ICHRANGEMODE	TOGGLE	T	Ich Auto Range
ICHOFFSETENABLE	TOGGLE	F	Ich Offset Enable
ICHOFFSET	QUANT	0	Ich Offset (V)
ICHFILTER	IQUANT	1	Ich Filter
VCHRANGE	IQUANT	2	Vch Range
VCHRANGEMODE	TOGGLE	T	Vch Auto Range
VCHOFFSETENABLE	TOGGLE	F	Vch Offset Enable
VCHOFFSET	QUANT	0	Vch Offset (V)
VCHFILTER	IQUANT	1	Vch Filter
IERANGELOWERLIMIT	IQUANT	9	I/E Range Lower Limit
IERANGEMODE	TOGGLE	F	I/E AutoRange
IERANGE	IQUANT	9	I/E Range
ACHSELECT	IQUANT	1	Ach Select
ACHRANGE	IQUANT	2	Ach Range
ACHOFFSETENABLE	TOGGLE	F	Ach Offset Enable
ACHOFFSET	QUANT	0	Ach Offset (V)
ACHFILTER	IQUANT	1	Ach Filter
CABLEID	IQUANT	14	Cable ID
DCCALDATE	LABEL	5-7-2017	DC Calibration Date
ACCALDATE	LABEL	12/3/2015	AC Calibration Date
FRAMEWORKVERSION	QUANT	7.01	Framework Version
INSTRUMENTVERSION	LABEL	4.00	Instrument Version
CURVE	TABLE	71
	Pt	T	Vf	Im	Vu	Pwr	Sig	Ach	Temp	IERange	Over
	#	s	V	A	V	W	V	V	deg C	#	bits
	0	0.013333	8.45763E-001	-9.93667E-005	0.00000E+000	-8.40406E-005	-5.99601E-002	8.46071E-001	3.57820E+000	9	...........
	1	0.026667	8.32803E-001	-9.81195E-005	0.00000E+000	-8.17142E-005	-5.99601E-002	8.33077E-001	3.57820E+000	9	...........
	2	0.04	8.20428E-001	-9.73006E-005	0.00000E+000	-7.98282E-005	-5.99601E-002	8.20723E-001	3.57820E+000	9	...........
	3	0.053333	8.08425E-001	-9.86769E-005	0.00000E+000	-7.97729E-005	-5.99601E-002	8.08716E-001	3.57820E+000	9	...........
	4	0.066667	7.96708E-001	-9.78903E-005	0.00000E+000	-7.79900E-005	-5.99601E-002	7.97009E-001	3.57820E+000	9	...........
	5	0.08	7.85149E-001	-9.90426E-005	0.00000E+000	-7.77632E-005	-5.99601E-002	7.85464E-001	3.57820E+000	9	...........
	6	0.093333	7.73807E-001	-9.91197E-005	0.00000E+000	-7.66996E-005	-5.99601E-002	7.74082E-001	3.57820E+000	9	...........
	7	0.106667	7.62568E-001	-9.84488E-005	0.00000E+000	-7.50739E-005	-5.99601E-002	7.62855E-001	3.57820E+000	9	...........
	8	0.12	7.51477E-001	-9.85373E-005	0.00000E+000	-7.40485E-005	-5.99601E-002	7.51750E-001	3.57820E+000	9	...........
	9	0.133333	7.40484E-001	-9.85092E-005	0.00000E+000	-7.29445E-005	-5.99601E-002	7.40729E-001	3.57820E+000	9	...........
	10	0.146667	7.29584E-001	-9.89687E-005	0.00000E+000	-7.22059E-005	-5.99601E-002	7.29814E-001	3.57820E+000	9	...........
	11	0.16	7.18778E-001	-9.87238E-005	0.00000E+000	-7.09606E-005	-5.99601E-002	7.19011E-001	3.57820E+000	9	...........
	12	0.173333	7.08027E-001	-9.84373E-005	0.00000E+000	-6.96963E-005	-5.99601E-002	7.08239E-001	3.57820E+000	9	...........
	13	0.186667	6.97353E-001	-9.94292E-005	0.00000E+000	-6.93372E-005	-5.99601E-002	6.97550E-001	3.57820E+000	9	...........
	14	0.2	6.86666E-001	-9.85300E-005	0.00000E+000	-6.76573E-005	-5.99601E-002	6.86888E-001	3.57820E+000	9	...........
	15	0.213333	6.76025E-001	-9.92135E-005	0.00000E+000	-6.70708E-005	-5.99601E-002	6.76232E-001	3.57820E+000	9	...........
	16	0.226667	6.65282E-001	-9.99210E-005	0.00000E+000	-6.64756E-005	-5.99601E-002	6.65523E-001	3.57820E+000	9	...........
	17	0.24	6.54470E-001	-9.88645E-005	0.00000E+000	-6.47038E-005	-5.99601E-002	6.54687E-001	3.57820E+000	9	...........
	18	0.253333	6.43519E-001	-9.79393E-005	0.00000E+000	-6.30258E-005	-5.99601E-002	6.43756E-001	3.57820E+000	9	...........
	19	0.266667	6.32408E-001	-9.89103E-005	0.00000E+000	-6.25516E-005	-5.99601E-002	6.32647E-001	3.57820E+000	9	...........
	20	0.28	6.21108E-001	-9.78038E-005	0.00000E+000	-6.07468E-005	-5.99601E-002	6.21351E-001	3.57820E+000	9	...........
	21	0.293333	6.09588E-001	-9.90895E-005	0.00000E+000	-6.04038E-005	-5.99601E-002	6.09896E-001	3.57820E+000	9	...........
	22	0.306667	5.97974E-001	-9.80633E-005	0.00000E+000	-5.86393E-005	-5.99601E-002	5.98241E-001	3.57820E+000	9	...........
	23	0.32	5.86157E-001	-9.84061E-005	0.00000E+000	-5.76814E-005	-5.99601E-002	5.86400E-001	3.57820E+000	9	...........
	24	0.333333	5.74174E-001	-9.93177E-005	0.00000E+000	-5.70256E-005	-5.99601E-002	5.74411E-001	3.57820E+000	9	...........
	25	0.346667	5.62045E-001	-9.78184E-005	0.00000E+000	-5.49784E-005	-5.99601E-002	5.62285E-001	3.57820E+000	9	...........
	26	0.36	5.49781E-001	-9.92250E-005	0.00000E+000	-5.45520E-005	-5.99601E-002	5.50020E-001	3.57820E+000	9	...........
	27	0.373333	5.37404E-001	-9.89072E-005	0.00000E+000	-5.31531E-005	-5.99601E-002	5.37656E-001	3.57820E+000	9	...........
	28	0.386667	5.24904E-001	-9.86363E-005	0.00000E+000	-5.17746E-005	-5.99601E-002	5.25126E-001	3.57820E+000	9	...........
	29	0.4	5.12311E-001	-9.92823E-005	0.00000E+000	-5.08634E-005	-5.99601E-002	5.12535E-001	3.57820E+000	9	...........
	30	0.413333	4.99615E-001	-9.84727E-005	0.00000E+000	-4.91984E-005	-5.99601E-002	4.99843E-001	3.57820E+000	9	...........
	31	0.426667	4.86938E-001	-9.97324E-005	0.00000E+000	-4.85635E-005	-5.99601E-002	4.87159E-001	3.57820E+000	9	...........
	32	0.44	4.74365E-001	-9.93521E-005	0.00000E+000	-4.71292E-005	-5.99601E-002	4.74469E-001	3.57820E+000	9	...........
	33	0.453333	4.61493E-001	-9.99397E-005	0.00000E+000	-4.61215E-005	-5.99601E-002	4.61592E-001	3.57820E+000	9	...........
	34	0.466667	4.48578E-001	-9.82602E-005	0.00000E+000	-4.40774E-005	-5.99601E-002	4.48673E-001	3.57820E+000	9	...........
	35	0.48	4.35627E-001	-9.97907E-005	0.00000E+000	-4.34716E-005	-5.99601E-002	4.35721E-001	3.57795E+000	9	...........
	36	0.493333	4.22655E-001	-9.79508E-005	0.00000E+000	-4.13994E-005	-5.99601E-002	4.22748E-001	3.57770E+000	9	...........
	37	0.506667	4.09676E-001	-9.90906E-005	0.00000E+000	-4.05950E-005	-5.99601E-002	4.09764E-001	3.57770E+000	9	...........
	38	0.52	3.96699E-001	-9.83769E-005	0.00000E+000	-3.90260E-005	-5.99601E-002	3.96776E-001	3.57770E+000	9	...........
	39	0.533333	3.83716E-001	-9.84050E-005	0.00000E+000	-3.77596E-005	-5.99601E-002	3.83796E-001	3.57770E+000	9	...........
	40	0.546667	3.70750E-001	-9.81362E-005	0.00000E+000	-3.63840E-005	-5.99601E-002	3.70829E-001	3.57770E+000	9	...........
	41	0.56	3.57810E-001	-9.95886E-005	0.00000E+000	-3.56338E-005	-5.99601E-002	3.57883E-001	3.57770E+000	9	...........
	42	0.573333	3.44886E-001	-9.87926E-005	0.00000E+000	-3.40721E-005	-5.99601E-002	3.44960E-001	3.57770E+000	9	...........
	43	0.586667	3.32013E-001	-9.83863E-005	0.00000E+000	-3.26655E-005	-5.99601E-002	3.32077E-001	3.57770E+000	9	...........
	44	0.6	3.19170E-001	-9.93667E-005	0.00000E+000	-3.17148E-005	-5.99601E-002	3.19238E-001	3.57770E+000	9	...........
	45	0.613333	3.06376E-001	-9.78080E-005	0.00000E+000	-2.99660E-005	-5.99601E-002	3.06439E-001	3.57770E+000	9	...........
	46	0.626667	2.93623E-001	-9.83925E-005	0.00000E+000	-2.88903E-005	-5.99601E-002	2.93682E-001	3.57770E+000	9	...........
	47	0.64	2.80915E-001	-9.90791E-005	0.00000E+000	-2.78328E-005	-5.99601E-002	2.80973E-001	3.57770E+000	9	...........
	48	0.653333	2.68246E-001	-1.00159E-004	0.00000E+000	-2.68671E-005	-5.99601E-002	2.68306E-001	3.57770E+000	9	...........
	49	0.666667	2.55632E-001	-9.89457E-005	0.00000E+000	-2.52937E-005	-5.99601E-002	2.55693E-001	3.57770E+000	9	...........
	50	0.68	2.43069E-001	-9.96282E-005	0.00000E+000	-2.42165E-005	-5.99601E-002	2.43124E-001	3.57770E+000	9	...........
	51	0.693333	2.30549E-001	-9.85082E-005	0.00000E+000	-2.27109E-005	-5.99601E-002	2.30595E-001	3.57770E+000	9	...........
	52	0.706667	2.18068E-001	-9.85780E-005	0.00000E+000	-2.14967E-005	-5.99601E-002	2.18113E-001	3.57770E+000	9	...........
	53	0.72	2.05630E-001	-9.97136E-005	0.00000E+000	-2.05041E-005	-5.99601E-002	2.05678E-001	3.57770E+000	9	...........
	54	0.733333	1.93238E-001	-9.96990E-005	0.00000E+000	-1.92656E-005	-5.99601E-002	1.93282E-001	3.57770E+000	9	...........
	55	0.746667	1.80874E-001	-9.89926E-005	0.00000E+000	-1.79052E-005	-5.99601E-002	1.80911E-001	3.57770E+000	9	...........
	56	0.76	1.68551E-001	-9.78007E-005	0.00000E+000	-1.64844E-005	-5.99601E-002	1.68588E-001	3.57770E+000	9	...........
	57	0.773333	1.56271E-001	-9.88447E-005	0.00000E+000	-1.54465E-005	-5.99601E-002	1.56305E-001	3.57770E+000	9	...........
	58	0.786667	1.44042E-001	-9.83154E-005	0.00000E+000	-1.41615E-005	-5.99601E-002	1.44066E-001	3.57770E+000	9	...........
	59	0.8	1.31856E-001	-9.90385E-005	0.00000E+000	-1.30588E-005	-5.99601E-002	1.31883E-001	3.57770E+000	9	...........
	60	0.813333	1.19730E-001	-9.77684E-005	0.00000E+000	-1.17059E-005	-5.99601E-002	1.19757E-001	3.57770E+000	9	...........
	61	0.826667	1.07668E-001	-9.77674E-005	0.00000E+000	-1.05264E-005	-5.99601E-002	1.07692E-001	3.57770E+000	9	...........
	62	0.84	9.56892E-002	-9.87936E-005	0.00000E+000	-9.45348E-006	-5.99601E-002	9.57143E-002	3.57770E+000	9	...........
	63	0.853333	8.37967E-002	-9.82685E-005	0.00000E+000	-8.23458E-006	-5.99601E-002	8.38144E-002	3.57770E+000	9	...........
	64	0.866667	7.19903E-002	-9.81143E-005	0.00000E+000	-7.06328E-006	-5.99601E-002	7.19981E-002	3.57770E+000	9	...........
	65	0.88	6.02757E-002	-9.90072E-005	0.00000E+000	-5.96773E-006	-5.99601E-002	6.02809E-002	3.57770E+000	9	...........
	66	0.893333	4.86882E-002	-9.90166E-005	0.00000E+000	-4.82094E-006	-5.99601E-002	4.86958E-002	3.57770E+000	9	...........
	67	0.906667	3.72377E-002	-9.87905E-005	0.00000E+000	-3.67873E-006	-5.99601E-002	3.72407E-002	3.57770E+000	9	...........
	68	0.92	2.58958E-002	-9.88436E-005	0.00000E+000	-2.55964E-006	-5.99601E-002	2.58919E-002	3.57770E+000	9	...........
	69	0.933333	1.46978E-002	-9.90854E-005	0.00000E+000	-1.45633E-006	-5.99601E-002	1.46879E-002	3.57770E+000	9	...........
	70	0.946667	3.64456E-003	-9.93802E-005	0.00000E+000	-3.62197E-007	-5.99601E-002	3.62828E-003	3.57770E+000	9	...........
STARTTIMEOFFSET	QUANT	698.138	Start Time Offset (s)
