EXPLAIN
TAG	PWR800_DISCHARGE
TITLE	LABEL	PWR Cyclic Charge Discharge (Cell) - Discharge Step	Test &Identifier
DATE	LABEL	12-7-2017	Date
TIME	LABEL	16:39:15	Time
NOTES	NOTES	2	&Notes...
	supercap test cell
	6M KOH
PSTAT	PSTAT	IFC5000-01520	Potentiostat
CAPACITY	QUANT	1.00000E-003	Capacity (A-hr)
CELLTYPE	SELECTOR	1	&Cell Type
WORKINGCONNECTION	SELECTOR	0	&Working Lead
MAXDISCHARGETIME	VARIABLEANDUNITS	1.00000E+002	s	1.00000E+002	second(s)	Max &Discharge Time
DISCHARGEMODE	MULTIPARAM	0	1.00000E-004	&Discharge Mode	Constant Current	Amp(s)
SAMPLETIME	QUANT	1.00000E-002	Sa&mple Period (s)
DISCHARGESTOPAT1	MULTIPARAM	3	0.00000E+000	Discharge Stop At &1	Voltage < Limit	V
DISCHARGESTOPAT2	MULTIPARAM	0	0.00000E+000	Discharge Stop At &2	None	N/A
AESBHCSELECTOR	TOGGLE	F	Save Both Half Cells
IRCOMP	TOGGLE	F	IR &Measure
EOC	QUANT	0	Open Circuit (V)
SEQUENCER	TOGGLE	TRUE	Run as Sequence
PSTATMODEL	IQUANT	53	Pstat Model
PSTATSECTION	LABEL	IFC5000-01520	Pstat Section
PSTATSERIALNO	LABEL	01520	Pstat Serial Number
CTRLMODE	IQUANT	0	Control Mode
ELECTROMETER	IQUANT	1	RE=0 or CS=1
IESTAB	IQUANT	0	I/E Stability
CASPEED	IQUANT	4	Control Amp Speed
CONVENTION	IQUANT	1	Current Convention
ICHRANGE	IQUANT	2	Ich Range
ICHRANGEMODE	TOGGLE	T	Ich Auto Range
ICHOFFSETENABLE	TOGGLE	F	Ich Offset Enable
ICHOFFSET	QUANT	0	Ich Offset (V)
ICHFILTER	IQUANT	1	Ich Filter
VCHRANGE	IQUANT	2	Vch Range
VCHRANGEMODE	TOGGLE	T	Vch Auto Range
VCHOFFSETENABLE	TOGGLE	F	Vch Offset Enable
VCHOFFSET	QUANT	0	Vch Offset (V)
VCHFILTER	IQUANT	1	Vch Filter
IERANGELOWERLIMIT	IQUANT	9	I/E Range Lower Limit
IERANGEMODE	TOGGLE	F	I/E AutoRange
IERANGE	IQUANT	9	I/E Range
ACHSELECT	IQUANT	1	Ach Select
ACHRANGE	IQUANT	2	Ach Range
ACHOFFSETENABLE	TOGGLE	F	Ach Offset Enable
ACHOFFSET	QUANT	0	Ach Offset (V)
ACHFILTER	IQUANT	1	Ach Filter
CABLEID	IQUANT	14	Cable ID
DCCALDATE	LABEL	5-7-2017	DC Calibration Date
ACCALDATE	LABEL	12/3/2015	AC Calibration Date
FRAMEWORKVERSION	QUANT	7.01	Framework Version
INSTRUMENTVERSION	LABEL	4.00	Instrument Version
CURVE	TABLE	71
	Pt	T	Vf	Im	Vu	Pwr	Sig	Ach	Temp	IERange	Over
	#	s	V	A	V	W	V	V	deg C	#	bits
	0	0.013333	8.45028E-001	-9.86582E-005	0.00000E+000	-8.33689E-005	-5.99601E-002	8.45349E-001	3.57670E+000	9	...........
	1	0.026667	8.31925E-001	-9.94386E-005	0.00000E+000	-8.27254E-005	-5.99601E-002	8.32242E-001	3.57670E+000	9	...........
	2	0.04	8.19451E-001	-9.93760E-005	0.00000E+000	-8.14338E-005	-5.99601E-002	8.19752E-001	3.57670E+000	9	...........
	3	0.053333	8.07321E-001	-9.88822E-005	0.00000E+000	-7.98297E-005	-5.99601E-002	8.07627E-001	3.57670E+000	9	...........
	4	0.066667	7.95462E-001	-9.88499E-005	0.00000E+000	-7.86313E-005	-5.99601E-002	7.95731E-001	3.57670E+000	9	...........
	5	0.08	7.83794E-001	-9.90020E-005	0.00000E+000	-7.75971E-005	-5.99601E-002	7.84056E-001	3.57670E+000	9	...........
	6	0.093333	7.72262E-001	-9.81289E-005	0.00000E+000	-7.57812E-005	-5.99601E-002	7.72541E-001	3.57648E+000	9	...........
	7	0.106667	7.60896E-001	-9.79601E-005	0.00000E+000	-7.45375E-005	-5.99601E-002	7.61147E-001	3.57640E+000	9	...........
	8	0.12	7.49596E-001	-9.90239E-005	0.00000E+000	-7.42279E-005	-5.99601E-002	7.49864E-001	3.57640E+000	9	...........
	9	0.133333	7.38412E-001	-9.79747E-005	0.00000E+000	-7.23457E-005	-5.99601E-002	7.38668E-001	3.57640E+000	9	...........
	10	0.146667	7.27331E-001	-9.87853E-005	0.00000E+000	-7.18497E-005	-5.99601E-002	7.27579E-001	3.57640E+000	9	...........
	11	0.16	7.16335E-001	-9.83196E-005	0.00000E+000	-7.04297E-005	-5.99601E-002	7.16573E-001	3.57640E+000	9	...........
	12	0.173333	7.05402E-001	-9.99824E-005	0.00000E+000	-7.05278E-005	-5.99601E-002	7.05660E-001	3.57640E+000	9	...........
	13	0.186667	6.94604E-001	-9.79310E-005	0.00000E+000	-6.80233E-005	-5.99601E-002	6.94817E-001	3.57640E+000	9	...........
	14	0.2	6.83820E-001	-9.85050E-005	0.00000E+000	-6.73598E-005	-5.99601E-002	6.84050E-001	3.57640E+000	9	...........
	15	0.213333	6.73134E-001	-9.91239E-005	0.00000E+000	-6.67237E-005	-5.99601E-002	6.73318E-001	3.57640E+000	9	...........
	16	0.226667	6.62431E-001	-9.86905E-005	0.00000E+000	-6.53757E-005	-5.99601E-002	6.62655E-001	3.57640E+000	9	...........
	17	0.24	6.51754E-001	-9.93479E-005	0.00000E+000	-6.47504E-005	-5.99601E-002	6.51953E-001	3.57640E+000	9	...........
	18	0.253333	6.40998E-001	-9.82550E-005	0.00000E+000	-6.29813E-005	-5.99601E-002	6.41208E-001	3.57640E+000	9	...........
	19	0.266667	6.30156E-001	-9.92958E-005	0.00000E+000	-6.25718E-005	-5.99601E-002	6.30329E-001	3.57640E+000	9	...........
	20	0.28	6.19159E-001	-9.99022E-005	0.00000E+000	-6.18554E-005	-5.99601E-002	6.19342E-001	3.57640E+000	9	...........
	21	0.293333	6.07927E-001	-9.88207E-005	0.00000E+000	-6.00758E-005	-5.99601E-002	6.08141E-001	3.57640E+000	9	...........
	22	0.306667	5.96586E-001	-9.81237E-005	0.00000E+000	-5.85392E-005	-5.99601E-002	5.96810E-001	3.57640E+000	9	...........
	23	0.32	5.85000E-001	-9.85425E-005	0.00000E+000	-5.76474E-005	-5.99601E-002	5.85232E-001	3.57640E+000	9	...........
	24	0.333333	5.73215E-001	-9.82508E-005	0.00000E+000	-5.63188E-005	-5.99601E-002	5.73436E-001	3.57640E+000	9	...........
	25	0.346667	5.61254E-001	-9.88561E-005	0.00000E+000	-5.54834E-005	-5.99601E-002	5.61457E-001	3.57640E+000	9	...........
	26	0.36	5.49078E-001	-1.00464E-004	0.00000E+000	-5.51625E-005	-5.99601E-002	5.49324E-001	3.57640E+000	9	...........
	27	0.373333	5.36739E-001	-9.84394E-005	0.00000E+000	-5.28362E-005	-5.99601E-002	5.36969E-001	3.57640E+000	9	...........
	28	0.386667	5.24248E-001	-9.81998E-005	0.00000E+000	-5.14810E-005	-5.99601E-002	5.24499E-001	3.57640E+000	9	...........
	29	0.4	5.11629E-001	-9.92541E-005	0.00000E+000	-5.07813E-005	-5.99601E-002	5.11876E-001	3.57640E+000	9	...........
	30	0.413333	4.98863E-001	-9.89593E-005	0.00000E+000	-4.93672E-005	-5.99601E-002	4.99098E-001	3.57640E+000	9	...........
	31	0.426667	4.86120E-001	-9.91031E-005	0.00000E+000	-4.81760E-005	-5.99601E-002	4.86269E-001	3.57640E+000	9	...........
	32	0.44	4.73348E-001	-9.92667E-005	0.00000E+000	-4.69877E-005	-5.99601E-002	4.73447E-001	3.57640E+000	9	...........
	33	0.453333	4.60297E-001	-9.85780E-005	0.00000E+000	-4.53752E-005	-5.99601E-002	4.60391E-001	3.57640E+000	9	...........
	34	0.466667	4.47173E-001	-1.00806E-004	0.00000E+000	-4.50775E-005	-5.99601E-002	4.47266E-001	3.57640E+000	9	...........
	35	0.48	4.33986E-001	-9.86280E-005	0.00000E+000	-4.28032E-005	-5.99601E-002	4.34078E-001	3.57640E+000	9	...........
	36	0.493333	4.20755E-001	-9.85290E-005	0.00000E+000	-4.14565E-005	-5.99601E-002	4.20843E-001	3.57640E+000	9	...........
	37	0.506667	4.07495E-001	-9.88020E-005	0.00000E+000	-4.02613E-005	-5.99601E-002	4.07577E-001	3.57640E+000	9	...........
	38	0.52	3.94207E-001	-9.85603E-005	0.00000E+000	-3.88531E-005	-5.99601E-002	3.94285E-001	3.57640E+000	9	...........
	39	0.533333	3.80905E-001	-9.82914E-005	0.00000E+000	-3.74397E-005	-5.99601E-002	3.80979E-001	3.57640E+000	9	...........
	40	0.546667	3.67603E-001	-9.86769E-005	0.00000E+000	-3.62740E-005	-5.99601E-002	3.67674E-001	3.57640E+000	9	...........
	41	0.56	3.54316E-001	-9.89312E-005	0.00000E+000	-3.50529E-005	-5.99601E-002	3.54388E-001	3.57640E+000	9	...........
	42	0.573333	3.41057E-001	-9.88489E-005	0.00000E+000	-3.37131E-005	-5.99601E-002	3.41126E-001	3.57640E+000	9	...........
	43	0.586667	3.27825E-001	-9.89291E-005	0.00000E+000	-3.24314E-005	-5.99601E-002	3.27893E-001	3.57640E+000	9	...........
	44	0.6	3.14640E-001	-9.83446E-005	0.00000E+000	-3.09431E-005	-5.99601E-002	3.14700E-001	3.57640E+000	9	...........
	45	0.613333	3.01495E-001	-9.83029E-005	0.00000E+000	-2.96378E-005	-5.99601E-002	3.01560E-001	3.57640E+000	9	...........
	46	0.626667	2.88412E-001	-9.78018E-005	0.00000E+000	-2.82072E-005	-5.99601E-002	2.88470E-001	3.57640E+000	9	...........
	47	0.64	2.75378E-001	-9.81998E-005	0.00000E+000	-2.70420E-005	-5.99601E-002	2.75434E-001	3.57640E+000	9	...........
	48	0.653333	2.62406E-001	-9.91614E-005	0.00000E+000	-2.60205E-005	-5.99601E-002	2.62464E-001	3.57640E+000	9	...........
	49	0.666667	2.49501E-001	-9.94427E-005	0.00000E+000	-2.48111E-005	-5.99601E-002	2.49551E-001	3.57640E+000	9	...........
	50	0.68	2.36652E-001	-9.82706E-005	0.00000E+000	-2.32560E-005	-5.99601E-002	2.36700E-001	3.57640E+000	9	...........
	51	0.693333	2.23877E-001	-9.84706E-005	0.00000E+000	-2.20453E-005	-5.99601E-002	2.23919E-001	3.57640E+000	9	...........
	52	0.706667	2.11163E-001	-9.96407E-005	0.00000E+000	-2.10405E-005	-5.99601E-002	2.11207E-001	3.57640E+000	9	...........
	53	0.72	1.98515E-001	-9.83258E-005	0.00000E+000	-1.95192E-005	-5.99601E-002	1.98556E-001	3.57640E+000	9	...........
	54	0.733333	1.85936E-001	-9.96126E-005	0.00000E+000	-1.85216E-005	-5.99601E-002	1.85974E-001	3.57640E+000	9	...........
	55	0.746667	1.73419E-001	-9.81581E-005	0.00000E+000	-1.70225E-005	-5.99601E-002	1.73457E-001	3.57640E+000	9	...........
	56	0.76	1.60974E-001	-9.82321E-005	0.00000E+000	-1.58128E-005	-5.99601E-002	1.61004E-001	3.57640E+000	9	...........
	57	0.773333	1.48583E-001	-9.97282E-005	0.00000E+000	-1.48179E-005	-5.99601E-002	1.48613E-001	3.57640E+000	9	...........
	58	0.786667	1.36259E-001	-9.90041E-005	0.00000E+000	-1.34902E-005	-5.99601E-002	1.36282E-001	3.57640E+000	9	...........
	59	0.8	1.24009E-001	-9.90927E-005	0.00000E+000	-1.22884E-005	-5.99601E-002	1.24029E-001	3.57640E+000	9	...........
	60	0.813333	1.11823E-001	-9.75882E-005	0.00000E+000	-1.09126E-005	-5.99601E-002	1.11849E-001	3.57640E+000	9	...........
	61	0.826667	9.97269E-002	-9.88561E-005	0.00000E+000	-9.85862E-006	-5.99601E-002	9.97509E-002	3.57640E+000	9	...........
	62	0.84	8.77293E-002	-9.69860E-005	0.00000E+000	-8.50851E-006	-5.99601E-002	8.77472E-002	3.57640E+000	9	...........
	63	0.853333	7.58347E-002	-9.92114E-005	0.00000E+000	-7.52367E-006	-5.99601E-002	7.58424E-002	3.57640E+000	9	...........
	64	0.866667	6.40551E-002	-9.78153E-005	0.00000E+000	-6.26557E-006	-5.99601E-002	6.40641E-002	3.57640E+000	9	...........
	65	0.88	5.23872E-002	-1.00321E-004	0.00000E+000	-5.25554E-006	-5.99601E-002	5.23891E-002	3.57640E+000	9	...........
	66	0.893333	4.08984E-002	-9.87332E-005	0.00000E+000	-4.03803E-006	-5.99601E-002	4.09022E-002	3.57640E+000	9	...........
	67	0.906667	2.95148E-002	-9.83592E-005	0.00000E+000	-2.90305E-006	-5.99601E-002	2.95102E-002	3.57640E+000	9	...........
	68	0.92	1.82829E-002	-9.82685E-005	0.00000E+000	-1.79664E-006	-5.99601E-002	1.82763E-002	3.57640E+000	9	...........
	69	0.933333	7.21943E-003	-9.80904E-005	0.00000E+000	-7.08157E-007	-5.99601E-002	7.20305E-003	3.57640E+000	9	...........
	70	0.936667	3.93299E-004	-9.62056E-005	0.00000E+000	-3.78376E-008	-5.99601E-002	3.73866E-004	3.57640E+000	9	...........
STARTTIMEOFFSET	QUANT	1246.524	Start Time Offset (s)
