EXPLAIN
TAG	PWR800_DISCHARGE
TITLE	LABEL	PWR Cyclic Charge Discharge (Cell) - Discharge Step	Test &Identifier
DATE	LABEL	12-7-2017	Date
TIME	LABEL	16:42:29	Time
NOTES	NOTES	2	&Notes...
	supercap test cell
	6M KOH
PSTAT	PSTAT	IFC5000-01520	Potentiostat
CAPACITY	QUANT	1.00000E-003	Capacity (A-hr)
CELLTYPE	SELECTOR	1	&Cell Type
WORKINGCONNECTION	SELECTOR	0	&Working Lead
MAXDISCHARGETIME	VARIABLEANDUNITS	1.00000E+002	s	1.00000E+002	second(s)	Max &Discharge Time
DISCHARGEMODE	MULTIPARAM	0	1.00000E-004	&Discharge Mode	Constant Current	Amp(s)
SAMPLETIME	QUANT	1.00000E-002	Sa&mple Period (s)
DISCHARGESTOPAT1	MULTIPARAM	3	0.00000E+000	Discharge Stop At &1	Voltage < Limit	V
DISCHARGESTOPAT2	MULTIPARAM	0	0.00000E+000	Discharge Stop At &2	None	N/A
AESBHCSELECTOR	TOGGLE	F	Save Both Half Cells
IRCOMP	TOGGLE	F	IR &Measure
EOC	QUANT	0	Open Circuit (V)
SEQUENCER	TOGGLE	TRUE	Run as Sequence
PSTATMODEL	IQUANT	53	Pstat Model
PSTATSECTION	LABEL	IFC5000-01520	Pstat Section
PSTATSERIALNO	LABEL	01520	Pstat Serial Number
CTRLMODE	IQUANT	0	Control Mode
ELECTROMETER	IQUANT	1	RE=0 or CS=1
IESTAB	IQUANT	0	I/E Stability
CASPEED	IQUANT	4	Control Amp Speed
CONVENTION	IQUANT	1	Current Convention
ICHRANGE	IQUANT	2	Ich Range
ICHRANGEMODE	TOGGLE	T	Ich Auto Range
ICHOFFSETENABLE	TOGGLE	F	Ich Offset Enable
ICHOFFSET	QUANT	0	Ich Offset (V)
ICHFILTER	IQUANT	1	Ich Filter
VCHRANGE	IQUANT	2	Vch Range
VCHRANGEMODE	TOGGLE	T	Vch Auto Range
VCHOFFSETENABLE	TOGGLE	F	Vch Offset Enable
VCHOFFSET	QUANT	0	Vch Offset (V)
VCHFILTER	IQUANT	1	Vch Filter
IERANGELOWERLIMIT	IQUANT	9	I/E Range Lower Limit
IERANGEMODE	TOGGLE	F	I/E AutoRange
IERANGE	IQUANT	9	I/E Range
ACHSELECT	IQUANT	1	Ach Select
ACHRANGE	IQUANT	2	Ach Range
ACHOFFSETENABLE	TOGGLE	F	Ach Offset Enable
ACHOFFSET	QUANT	0	Ach Offset (V)
ACHFILTER	IQUANT	1	Ach Filter
CABLEID	IQUANT	14	Cable ID
DCCALDATE	LABEL	5-7-2017	DC Calibration Date
ACCALDATE	LABEL	12/3/2015	AC Calibration Date
FRAMEWORKVERSION	QUANT	7.01	Framework Version
INSTRUMENTVERSION	LABEL	4.00	Instrument Version
CURVE	TABLE	71
	Pt	T	Vf	Im	Vu	Pwr	Sig	Ach	Temp	IERange	Over
	#	s	V	A	V	W	V	V	deg C	#	bits
	0	0.013333	8.46598E-001	-9.88770E-005	0.00000E+000	-8.37091E-005	-5.99601E-002	8.46851E-001	3.57650E+000	9	...........
	1	0.026667	8.33444E-001	-9.80643E-005	0.00000E+000	-8.17312E-005	-5.99601E-002	8.33696E-001	3.57650E+000	9	...........
	2	0.04	8.20900E-001	-9.93406E-005	0.00000E+000	-8.15487E-005	-5.99601E-002	8.21122E-001	3.57650E+000	9	...........
	3	0.053333	8.08725E-001	-9.89312E-005	0.00000E+000	-8.00081E-005	-5.99601E-002	8.08937E-001	3.57650E+000	9	...........
	4	0.066667	7.96822E-001	-9.94198E-005	0.00000E+000	-7.92199E-005	-5.99601E-002	7.97036E-001	3.57650E+000	9	...........
	5	0.08	7.85084E-001	-9.76965E-005	0.00000E+000	-7.67000E-005	-5.99601E-002	7.85304E-001	3.57650E+000	9	...........
	6	0.093333	7.73510E-001	-9.92489E-005	0.00000E+000	-7.67700E-005	-5.99601E-002	7.73756E-001	3.57650E+000	9	...........
	7	0.106667	7.62076E-001	-9.95209E-005	0.00000E+000	-7.58424E-005	-5.99601E-002	7.62311E-001	3.57650E+000	9	...........
	8	0.12	7.50748E-001	-9.89009E-005	0.00000E+000	-7.42497E-005	-5.99601E-002	7.50994E-001	3.57650E+000	9	...........
	9	0.133333	7.39501E-001	-9.84456E-005	0.00000E+000	-7.28006E-005	-5.99601E-002	7.39756E-001	3.57650E+000	9	...........
	10	0.146667	7.28368E-001	-9.82477E-005	0.00000E+000	-7.15605E-005	-5.99601E-002	7.28624E-001	3.57650E+000	9	...........
	11	0.16	7.17309E-001	-9.92125E-005	0.00000E+000	-7.11660E-005	-5.99601E-002	7.17576E-001	3.57650E+000	9	...........
	12	0.173333	7.06345E-001	-9.82862E-005	0.00000E+000	-6.94240E-005	-5.99601E-002	7.06609E-001	3.57650E+000	9	...........
	13	0.186667	6.95480E-001	-9.93385E-005	0.00000E+000	-6.90879E-005	-5.99601E-002	6.95717E-001	3.57650E+000	9	...........
	14	0.2	6.84644E-001	-9.91791E-005	0.00000E+000	-6.79024E-005	-5.99601E-002	6.84907E-001	3.57650E+000	9	...........
	15	0.213333	6.73910E-001	-9.89843E-005	0.00000E+000	-6.67066E-005	-5.99601E-002	6.74155E-001	3.57650E+000	9	...........
	16	0.226667	6.63182E-001	-9.82904E-005	0.00000E+000	-6.51844E-005	-5.99601E-002	6.63447E-001	3.57650E+000	9	...........
	17	0.24	6.52466E-001	-9.80456E-005	0.00000E+000	-6.39714E-005	-5.99601E-002	6.52708E-001	3.57650E+000	9	...........
	18	0.253333	6.41721E-001	-9.84727E-005	0.00000E+000	-6.31920E-005	-5.99601E-002	6.41954E-001	3.57650E+000	9	...........
	19	0.266667	6.30856E-001	-9.87290E-005	0.00000E+000	-6.22838E-005	-5.99601E-002	6.31116E-001	3.57650E+000	9	...........
	20	0.28	6.19908E-001	-9.94636E-005	0.00000E+000	-6.16583E-005	-5.99601E-002	6.20138E-001	3.57650E+000	9	...........
	21	0.293333	6.08678E-001	-9.87207E-005	0.00000E+000	-6.00891E-005	-5.99601E-002	6.08987E-001	3.57650E+000	9	...........
	22	0.306667	5.97356E-001	-9.85634E-005	0.00000E+000	-5.88774E-005	-5.99601E-002	5.97583E-001	3.57650E+000	9	...........
	23	0.32	5.85773E-001	-9.85029E-005	0.00000E+000	-5.77004E-005	-5.99601E-002	5.86025E-001	3.57650E+000	9	...........
	24	0.333333	5.74022E-001	-9.92489E-005	0.00000E+000	-5.69711E-005	-5.99601E-002	5.74250E-001	3.57650E+000	9	...........
	25	0.346667	5.62043E-001	-9.89947E-005	0.00000E+000	-5.56393E-005	-5.99601E-002	5.62270E-001	3.57650E+000	9	...........
	26	0.36	5.49865E-001	-9.89812E-005	0.00000E+000	-5.44262E-005	-5.99601E-002	5.50100E-001	3.57650E+000	9	...........
	27	0.373333	5.37530E-001	-9.78861E-005	0.00000E+000	-5.26167E-005	-5.99601E-002	5.37754E-001	3.57650E+000	9	...........
	28	0.386667	5.25017E-001	-9.92062E-005	0.00000E+000	-5.20849E-005	-5.99601E-002	5.25254E-001	3.57650E+000	9	...........
	29	0.4	5.12388E-001	-9.91468E-005	0.00000E+000	-5.08017E-005	-5.99601E-002	5.12588E-001	3.57650E+000	9	...........
	30	0.413333	4.99579E-001	-9.92979E-005	0.00000E+000	-4.96071E-005	-5.99601E-002	4.99789E-001	3.57650E+000	9	...........
	31	0.426667	4.86786E-001	-9.96928E-005	0.00000E+000	-4.85290E-005	-5.99601E-002	4.86926E-001	3.57650E+000	9	...........
	32	0.44	4.73979E-001	-9.96636E-005	0.00000E+000	-4.72384E-005	-5.99601E-002	4.74076E-001	3.57650E+000	9	...........
	33	0.453333	4.60886E-001	-9.91520E-005	0.00000E+000	-4.56977E-005	-5.99601E-002	4.60982E-001	3.57650E+000	9	...........
	34	0.466667	4.47717E-001	-9.86915E-005	0.00000E+000	-4.41859E-005	-5.99601E-002	4.47813E-001	3.57650E+000	9	...........
	35	0.48	4.34484E-001	-9.85009E-005	0.00000E+000	-4.27970E-005	-5.99601E-002	4.34570E-001	3.57650E+000	9	...........
	36	0.493333	4.21193E-001	-9.88770E-005	0.00000E+000	-4.16463E-005	-5.99601E-002	4.21276E-001	3.57650E+000	9	...........
	37	0.506667	4.07869E-001	-9.87540E-005	0.00000E+000	-4.02787E-005	-5.99601E-002	4.07960E-001	3.57650E+000	9	...........
	38	0.52	3.94526E-001	-9.83144E-005	0.00000E+000	-3.87876E-005	-5.99601E-002	3.94606E-001	3.57650E+000	9	...........
	39	0.533333	3.81162E-001	-9.86842E-005	0.00000E+000	-3.76147E-005	-5.99601E-002	3.81238E-001	3.57650E+000	9	...........
	40	0.546667	3.67803E-001	-9.71016E-005	0.00000E+000	-3.57142E-005	-5.99601E-002	3.67879E-001	3.57650E+000	9	...........
	41	0.56	3.54449E-001	-9.89697E-005	0.00000E+000	-3.50797E-005	-5.99601E-002	3.54527E-001	3.57650E+000	9	...........
	42	0.573333	3.41121E-001	-9.80570E-005	0.00000E+000	-3.34493E-005	-5.99601E-002	3.41192E-001	3.57650E+000	9	...........
	43	0.586667	3.27828E-001	-9.90249E-005	0.00000E+000	-3.24631E-005	-5.99601E-002	3.27900E-001	3.57650E+000	9	...........
	44	0.6	3.14571E-001	-9.86019E-005	0.00000E+000	-3.10173E-005	-5.99601E-002	3.14637E-001	3.57650E+000	9	...........
	45	0.613333	3.01355E-001	-9.80466E-005	0.00000E+000	-2.95469E-005	-5.99601E-002	3.01422E-001	3.57650E+000	9	...........
	46	0.626667	2.88187E-001	-9.93948E-005	0.00000E+000	-2.86442E-005	-5.99601E-002	2.88251E-001	3.57650E+000	9	...........
	47	0.64	2.75080E-001	-9.82477E-005	0.00000E+000	-2.70260E-005	-5.99601E-002	2.75142E-001	3.57650E+000	9	...........
	48	0.653333	2.62025E-001	-9.98147E-005	0.00000E+000	-2.61539E-005	-5.99601E-002	2.62082E-001	3.57650E+000	9	...........
	49	0.666667	2.49050E-001	-9.78257E-005	0.00000E+000	-2.43635E-005	-5.99601E-002	2.49103E-001	3.57650E+000	9	...........
	50	0.68	2.36136E-001	-9.92271E-005	0.00000E+000	-2.34311E-005	-5.99601E-002	2.36178E-001	3.57650E+000	9	...........
	51	0.693333	2.23289E-001	-9.84915E-005	0.00000E+000	-2.19921E-005	-5.99601E-002	2.23326E-001	3.57650E+000	9	...........
	52	0.706667	2.10502E-001	-9.89916E-005	0.00000E+000	-2.08379E-005	-5.99601E-002	2.10540E-001	3.57650E+000	9	...........
	53	0.72	1.97792E-001	-9.91187E-005	0.00000E+000	-1.96049E-005	-5.99601E-002	1.97830E-001	3.57650E+000	9	...........
	54	0.733333	1.85151E-001	-9.79695E-005	0.00000E+000	-1.81391E-005	-5.99601E-002	1.85184E-001	3.57650E+000	9	...........
	55	0.746667	1.72573E-001	-9.90885E-005	0.00000E+000	-1.71000E-005	-5.99601E-002	1.72613E-001	3.57650E+000	9	...........
	56	0.76	1.60075E-001	-9.86738E-005	0.00000E+000	-1.57952E-005	-5.99601E-002	1.60102E-001	3.57650E+000	9	...........
	57	0.773333	1.47638E-001	-9.83842E-005	0.00000E+000	-1.45252E-005	-5.99601E-002	1.47666E-001	3.57650E+000	9	...........
	58	0.786667	1.35270E-001	-9.94000E-005	0.00000E+000	-1.34458E-005	-5.99601E-002	1.35291E-001	3.57650E+000	9	...........
	59	0.8	1.22971E-001	-9.80935E-005	0.00000E+000	-1.20627E-005	-5.99601E-002	1.22994E-001	3.57650E+000	9	...........
	60	0.813333	1.10754E-001	-9.91364E-005	0.00000E+000	-1.09798E-005	-5.99601E-002	1.10776E-001	3.57650E+000	9	...........
	61	0.826667	9.86264E-002	-9.94657E-005	0.00000E+000	-9.80994E-006	-5.99601E-002	9.86419E-002	3.57650E+000	9	...........
	62	0.84	8.65914E-002	-9.87540E-005	0.00000E+000	-8.55125E-006	-5.99601E-002	8.66069E-002	3.57650E+000	9	...........
	63	0.853333	7.46693E-002	-9.82383E-005	0.00000E+000	-7.33538E-006	-5.99601E-002	7.46801E-002	3.57720E+000	9	...........
	64	0.866667	6.28566E-002	-9.89093E-005	0.00000E+000	-6.21710E-006	-5.99601E-002	6.28676E-002	3.57790E+000	9	...........
	65	0.88	5.11828E-002	-9.81987E-005	0.00000E+000	-5.02609E-006	-5.99601E-002	5.11842E-002	3.57790E+000	9	...........
	66	0.893333	3.96709E-002	-9.60889E-005	0.00000E+000	-3.81193E-006	-5.99601E-002	3.96735E-002	3.57790E+000	9	...........
	67	0.906667	2.82634E-002	-9.90270E-005	0.00000E+000	-2.79884E-006	-5.99601E-002	2.82597E-002	3.57790E+000	9	...........
	68	0.92	1.70205E-002	-9.94969E-005	0.00000E+000	-1.69349E-006	-5.99601E-002	1.70069E-002	3.57790E+000	9	...........
	69	0.933333	5.95114E-003	-9.92198E-005	0.00000E+000	-5.90470E-007	-5.99601E-002	5.93088E-003	3.57790E+000	9	...........
	70	0.935	-2.00856E-004	-9.71683E-005	0.00000E+000	1.95168E-008	-5.99601E-002	-2.34351E-004	3.57790E+000	9	...........
STARTTIMEOFFSET	QUANT	1383.863	Start Time Offset (s)
