EXPLAIN
TAG	PWR800_DISCHARGE
TITLE	LABEL	PWR Cyclic Charge Discharge (Cell) - Discharge Step	Test &Identifier
DATE	LABEL	12-7-2017	Date
TIME	LABEL	16:49:09	Time
NOTES	NOTES	2	&Notes...
	supercap test cell
	6M KOH
PSTAT	PSTAT	IFC5000-01520	Potentiostat
CAPACITY	QUANT	1.00000E-003	Capacity (A-hr)
CELLTYPE	SELECTOR	1	&Cell Type
WORKINGCONNECTION	SELECTOR	0	&Working Lead
MAXDISCHARGETIME	VARIABLEANDUNITS	1.00000E+002	s	1.00000E+002	second(s)	Max &Discharge Time
DISCHARGEMODE	MULTIPARAM	0	1.00000E-004	&Discharge Mode	Constant Current	Amp(s)
SAMPLETIME	QUANT	1.00000E-002	Sa&mple Period (s)
DISCHARGESTOPAT1	MULTIPARAM	3	0.00000E+000	Discharge Stop At &1	Voltage < Limit	V
DISCHARGESTOPAT2	MULTIPARAM	0	0.00000E+000	Discharge Stop At &2	None	N/A
AESBHCSELECTOR	TOGGLE	F	Save Both Half Cells
IRCOMP	TOGGLE	F	IR &Measure
EOC	QUANT	0	Open Circuit (V)
SEQUENCER	TOGGLE	TRUE	Run as Sequence
PSTATMODEL	IQUANT	53	Pstat Model
PSTATSECTION	LABEL	IFC5000-01520	Pstat Section
PSTATSERIALNO	LABEL	01520	Pstat Serial Number
CTRLMODE	IQUANT	0	Control Mode
ELECTROMETER	IQUANT	1	RE=0 or CS=1
IESTAB	IQUANT	0	I/E Stability
CASPEED	IQUANT	4	Control Amp Speed
CONVENTION	IQUANT	1	Current Convention
ICHRANGE	IQUANT	2	Ich Range
ICHRANGEMODE	TOGGLE	T	Ich Auto Range
ICHOFFSETENABLE	TOGGLE	F	Ich Offset Enable
ICHOFFSET	QUANT	0	Ich Offset (V)
ICHFILTER	IQUANT	1	Ich Filter
VCHRANGE	IQUANT	2	Vch Range
VCHRANGEMODE	TOGGLE	T	Vch Auto Range
VCHOFFSETENABLE	TOGGLE	F	Vch Offset Enable
VCHOFFSET	QUANT	0	Vch Offset (V)
VCHFILTER	IQUANT	1	Vch Filter
IERANGELOWERLIMIT	IQUANT	9	I/E Range Lower Limit
IERANGEMODE	TOGGLE	F	I/E AutoRange
IERANGE	IQUANT	9	I/E Range
ACHSELECT	IQUANT	1	Ach Select
ACHRANGE	IQUANT	2	Ach Range
ACHOFFSETENABLE	TOGGLE	F	Ach Offset Enable
ACHOFFSET	QUANT	0	Ach Offset (V)
ACHFILTER	IQUANT	1	Ach Filter
CABLEID	IQUANT	14	Cable ID
DCCALDATE	LABEL	5-7-2017	DC Calibration Date
ACCALDATE	LABEL	12/3/2015	AC Calibration Date
FRAMEWORKVERSION	QUANT	7.01	Framework Version
INSTRUMENTVERSION	LABEL	4.00	Instrument Version
CURVE	TABLE	70
	Pt	T	Vf	Im	Vu	Pwr	Sig	Ach	Temp	IERange	Over
	#	s	V	A	V	W	V	V	deg C	#	bits
	0	0.013333	8.44022E-001	-9.90812E-005	0.00000E+000	-8.36267E-005	-5.99601E-002	8.44287E-001	3.57810E+000	9	...........
	1	0.026667	8.30870E-001	-9.82185E-005	0.00000E+000	-8.16068E-005	-5.99601E-002	8.31095E-001	3.57810E+000	9	...........
	2	0.04	8.18271E-001	-9.87051E-005	0.00000E+000	-8.07675E-005	-5.99601E-002	8.18503E-001	3.57810E+000	9	...........
	3	0.053333	8.06041E-001	-9.96365E-005	0.00000E+000	-8.03111E-005	-5.99601E-002	8.06285E-001	3.57810E+000	9	...........
	4	0.066667	7.94077E-001	-9.87884E-005	0.00000E+000	-7.84457E-005	-5.99601E-002	7.94322E-001	3.57810E+000	9	...........
	5	0.08	7.82287E-001	-9.84665E-005	0.00000E+000	-7.70290E-005	-5.99601E-002	7.82530E-001	3.57810E+000	9	...........
	6	0.093333	7.70660E-001	-9.77392E-005	0.00000E+000	-7.53237E-005	-5.99601E-002	7.70927E-001	3.57810E+000	9	...........
	7	0.106667	7.59153E-001	-9.80977E-005	0.00000E+000	-7.44712E-005	-5.99601E-002	7.59420E-001	3.57810E+000	9	...........
	8	0.12	7.47783E-001	-9.94448E-005	0.00000E+000	-7.43631E-005	-5.99601E-002	7.48046E-001	3.57810E+000	9	...........
	9	0.133333	7.36480E-001	-9.76726E-005	0.00000E+000	-7.19339E-005	-5.99601E-002	7.36735E-001	3.57810E+000	9	...........
	10	0.146667	7.25298E-001	-9.69464E-005	0.00000E+000	-7.03150E-005	-5.99601E-002	7.25534E-001	3.57810E+000	9	...........
	11	0.16	7.14154E-001	-9.75778E-005	0.00000E+000	-6.96856E-005	-5.99601E-002	7.14409E-001	3.57810E+000	9	...........
	12	0.173333	7.03126E-001	-9.90760E-005	0.00000E+000	-6.96629E-005	-5.99601E-002	7.03363E-001	3.57810E+000	9	...........
	13	0.186667	6.92175E-001	-9.86155E-005	0.00000E+000	-6.82591E-005	-5.99601E-002	6.92405E-001	3.57810E+000	9	...........
	14	0.2	6.81297E-001	-9.84040E-005	0.00000E+000	-6.70423E-005	-5.99601E-002	6.81514E-001	3.57810E+000	9	...........
	15	0.213333	6.70498E-001	-9.93229E-005	0.00000E+000	-6.65958E-005	-5.99601E-002	6.70713E-001	3.57810E+000	9	...........
	16	0.226667	6.59723E-001	-9.87322E-005	0.00000E+000	-6.51358E-005	-5.99601E-002	6.59953E-001	3.57810E+000	9	...........
	17	0.24	6.48981E-001	-9.91593E-005	0.00000E+000	-6.43525E-005	-5.99601E-002	6.49209E-001	3.57810E+000	9	...........
	18	0.253333	6.38205E-001	-9.86967E-005	0.00000E+000	-6.29887E-005	-5.99601E-002	6.38432E-001	3.57810E+000	9	...........
	19	0.266667	6.27361E-001	-9.99345E-005	0.00000E+000	-6.26950E-005	-5.99601E-002	6.27581E-001	3.57754E+000	9	...........
	20	0.28	6.16368E-001	-9.73860E-005	0.00000E+000	-6.00256E-005	-5.99601E-002	6.16594E-001	3.57660E+000	9	...........
	21	0.293333	6.05179E-001	-9.72277E-005	0.00000E+000	-5.88401E-005	-5.99601E-002	6.05428E-001	3.57660E+000	9	...........
	22	0.306667	5.93848E-001	-9.98105E-005	0.00000E+000	-5.92723E-005	-5.99601E-002	5.94071E-001	3.57660E+000	9	...........
	23	0.32	5.82258E-001	-9.92990E-005	0.00000E+000	-5.78176E-005	-5.99601E-002	5.82487E-001	3.57660E+000	9	...........
	24	0.333333	5.70482E-001	-9.87040E-005	0.00000E+000	-5.63089E-005	-5.99601E-002	5.70721E-001	3.57660E+000	9	...........
	25	0.346667	5.58473E-001	-9.92021E-005	0.00000E+000	-5.54016E-005	-5.99601E-002	5.58727E-001	3.57660E+000	9	...........
	26	0.36	5.46316E-001	-9.73590E-005	0.00000E+000	-5.31887E-005	-5.99601E-002	5.46524E-001	3.57660E+000	9	...........
	27	0.373333	5.33896E-001	-9.82373E-005	0.00000E+000	-5.24485E-005	-5.99601E-002	5.34139E-001	3.57660E+000	9	...........
	28	0.386667	5.21369E-001	-9.86405E-005	0.00000E+000	-5.14281E-005	-5.99601E-002	5.21594E-001	3.57660E+000	9	...........
	29	0.4	5.08662E-001	-9.93771E-005	0.00000E+000	-5.05493E-005	-5.99601E-002	5.08910E-001	3.57660E+000	9	...........
	30	0.413333	4.95820E-001	-9.77549E-005	0.00000E+000	-4.84688E-005	-5.99601E-002	4.96066E-001	3.57660E+000	9	...........
	31	0.426667	4.83069E-001	-9.80904E-005	0.00000E+000	-4.73845E-005	-5.99601E-002	4.83186E-001	3.57660E+000	9	...........
	32	0.44	4.70107E-001	-1.00002E-004	0.00000E+000	-4.70117E-005	-5.99601E-002	4.70211E-001	3.57660E+000	9	...........
	33	0.453333	4.56954E-001	-9.93021E-005	0.00000E+000	-4.53764E-005	-5.99601E-002	4.57044E-001	3.57660E+000	9	...........
	34	0.466667	4.43717E-001	-9.90270E-005	0.00000E+000	-4.39400E-005	-5.99601E-002	4.43813E-001	3.57660E+000	9	...........
	35	0.48	4.30421E-001	-9.84061E-005	0.00000E+000	-4.23561E-005	-5.99601E-002	4.30511E-001	3.57660E+000	9	...........
	36	0.493333	4.17064E-001	-9.83988E-005	0.00000E+000	-4.10386E-005	-5.99601E-002	4.17149E-001	3.57660E+000	9	...........
	37	0.506667	4.03681E-001	-9.83373E-005	0.00000E+000	-3.96969E-005	-5.99601E-002	4.03764E-001	3.57660E+000	9	...........
	38	0.52	3.90270E-001	-9.81175E-005	0.00000E+000	-3.82923E-005	-5.99601E-002	3.90350E-001	3.57660E+000	9	...........
	39	0.533333	3.76844E-001	-9.90791E-005	0.00000E+000	-3.73373E-005	-5.99601E-002	3.76919E-001	3.57660E+000	9	...........
	40	0.546667	3.63413E-001	-9.82196E-005	0.00000E+000	-3.56943E-005	-5.99601E-002	3.63488E-001	3.57660E+000	9	...........
	41	0.56	3.49995E-001	-9.81414E-005	0.00000E+000	-3.43490E-005	-5.99601E-002	3.50069E-001	3.57660E+000	9	...........
	42	0.573333	3.36600E-001	-9.85134E-005	0.00000E+000	-3.31596E-005	-5.99601E-002	3.36664E-001	3.57660E+000	9	...........
	43	0.586667	3.23235E-001	-9.86311E-005	0.00000E+000	-3.18810E-005	-5.99601E-002	3.23302E-001	3.57660E+000	9	...........
	44	0.6	3.09911E-001	-9.82164E-005	0.00000E+000	-3.04383E-005	-5.99601E-002	3.09979E-001	3.57660E+000	9	...........
	45	0.613333	2.96635E-001	-9.89343E-005	0.00000E+000	-2.93474E-005	-5.99601E-002	2.96696E-001	3.57660E+000	9	...........
	46	0.626667	2.83411E-001	-9.83310E-005	0.00000E+000	-2.78681E-005	-5.99601E-002	2.83475E-001	3.57660E+000	9	...........
	47	0.64	2.70250E-001	-9.82717E-005	0.00000E+000	-2.65580E-005	-5.99601E-002	2.70309E-001	3.57660E+000	9	...........
	48	0.653333	2.57149E-001	-9.94031E-005	0.00000E+000	-2.55614E-005	-5.99601E-002	2.57206E-001	3.57660E+000	9	...........
	49	0.666667	2.44125E-001	-9.76226E-005	0.00000E+000	-2.38321E-005	-5.99601E-002	2.44174E-001	3.57660E+000	9	...........
	50	0.68	2.31162E-001	-9.91052E-005	0.00000E+000	-2.29093E-005	-5.99601E-002	2.31208E-001	3.57660E+000	9	...........
	51	0.693333	2.18277E-001	-9.90437E-005	0.00000E+000	-2.16189E-005	-5.99601E-002	2.18315E-001	3.57660E+000	9	...........
	52	0.706667	2.05466E-001	-9.83810E-005	0.00000E+000	-2.02140E-005	-5.99601E-002	2.05504E-001	3.57660E+000	9	...........
	53	0.72	1.92734E-001	-9.88655E-005	0.00000E+000	-1.90547E-005	-5.99601E-002	1.92772E-001	3.57660E+000	9	...........
	54	0.733333	1.80075E-001	-9.96209E-005	0.00000E+000	-1.79392E-005	-5.99601E-002	1.80107E-001	3.57660E+000	9	...........
	55	0.746667	1.67489E-001	-9.99387E-005	0.00000E+000	-1.67386E-005	-5.99601E-002	1.67521E-001	3.57660E+000	9	...........
	56	0.76	1.54983E-001	-9.90510E-005	0.00000E+000	-1.53512E-005	-5.99601E-002	1.55008E-001	3.57660E+000	9	...........
	57	0.773333	1.42543E-001	-9.82050E-005	0.00000E+000	-1.39985E-005	-5.99601E-002	1.42576E-001	3.57660E+000	9	...........
	58	0.786667	1.30184E-001	-9.88728E-005	0.00000E+000	-1.28716E-005	-5.99601E-002	1.30206E-001	3.57660E+000	9	...........
	59	0.8	1.17902E-001	-1.00125E-004	0.00000E+000	-1.18050E-005	-5.99601E-002	1.17925E-001	3.57660E+000	9	...........
	60	0.813333	1.05713E-001	-9.83842E-005	0.00000E+000	-1.04005E-005	-5.99601E-002	1.05733E-001	3.57660E+000	9	...........
	61	0.826667	9.36177E-002	-9.95094E-005	0.00000E+000	-9.31584E-006	-5.99601E-002	9.36365E-002	3.57660E+000	9	...........
	62	0.84	8.16315E-002	-9.92302E-005	0.00000E+000	-8.10030E-006	-5.99601E-002	8.16464E-002	3.57660E+000	9	...........
	63	0.853333	6.97626E-002	-9.84144E-005	0.00000E+000	-6.86564E-006	-5.99601E-002	6.97679E-002	3.57660E+000	9	...........
	64	0.866667	5.80120E-002	-9.94500E-005	0.00000E+000	-5.76930E-006	-5.99601E-002	5.80128E-002	3.57660E+000	9	...........
	65	0.88	4.64168E-002	-9.85259E-005	0.00000E+000	-4.57326E-006	-5.99601E-002	4.64192E-002	3.57660E+000	9	...........
	66	0.893333	3.49670E-002	-9.80779E-005	0.00000E+000	-3.42948E-006	-5.99601E-002	3.49668E-002	3.57660E+000	9	...........
	67	0.906667	2.36541E-002	-9.94344E-005	0.00000E+000	-2.35203E-006	-5.99601E-002	2.36455E-002	3.57660E+000	9	...........
	68	0.92	1.25007E-002	-9.88113E-005	0.00000E+000	-1.23522E-006	-5.99601E-002	1.24873E-002	3.57660E+000	9	...........
	69	0.93	2.88600E-003	-9.87242E-005	0.00000E+000	-2.84918E-007	-5.99601E-002	2.86396E-003	3.57660E+000	9	...........
STARTTIMEOFFSET	QUANT	1667	Start Time Offset (s)
