EXPLAIN
TAG	PWR800_DISCHARGE
TITLE	LABEL	PWR Cyclic Charge Discharge (Cell) - Discharge Step	Test &Identifier
DATE	LABEL	12-7-2017	Date
TIME	LABEL	16:35:30	Time
NOTES	NOTES	2	&Notes...
	supercap test cell
	6M KOH
PSTAT	PSTAT	IFC5000-01520	Potentiostat
CAPACITY	QUANT	1.00000E-003	Capacity (A-hr)
CELLTYPE	SELECTOR	1	&Cell Type
WORKINGCONNECTION	SELECTOR	0	&Working Lead
MAXDISCHARGETIME	VARIABLEANDUNITS	1.00000E+002	s	1.00000E+002	second(s)	Max &Discharge Time
DISCHARGEMODE	MULTIPARAM	0	1.00000E-004	&Discharge Mode	Constant Current	Amp(s)
SAMPLETIME	QUANT	1.00000E-002	Sa&mple Period (s)
DISCHARGESTOPAT1	MULTIPARAM	3	0.00000E+000	Discharge Stop At &1	Voltage < Limit	V
DISCHARGESTOPAT2	MULTIPARAM	0	0.00000E+000	Discharge Stop At &2	None	N/A
AESBHCSELECTOR	TOGGLE	F	Save Both Half Cells
IRCOMP	TOGGLE	F	IR &Measure
EOC	QUANT	0	Open Circuit (V)
SEQUENCER	TOGGLE	TRUE	Run as Sequence
PSTATMODEL	IQUANT	53	Pstat Model
PSTATSECTION	LABEL	IFC5000-01520	Pstat Section
PSTATSERIALNO	LABEL	01520	Pstat Serial Number
CTRLMODE	IQUANT	0	Control Mode
ELECTROMETER	IQUANT	1	RE=0 or CS=1
IESTAB	IQUANT	0	I/E Stability
CASPEED	IQUANT	4	Control Amp Speed
CONVENTION	IQUANT	1	Current Convention
ICHRANGE	IQUANT	2	Ich Range
ICHRANGEMODE	TOGGLE	T	Ich Auto Range
ICHOFFSETENABLE	TOGGLE	F	Ich Offset Enable
ICHOFFSET	QUANT	0	Ich Offset (V)
ICHFILTER	IQUANT	1	Ich Filter
VCHRANGE	IQUANT	2	Vch Range
VCHRANGEMODE	TOGGLE	T	Vch Auto Range
VCHOFFSETENABLE	TOGGLE	F	Vch Offset Enable
VCHOFFSET	QUANT	0	Vch Offset (V)
VCHFILTER	IQUANT	1	Vch Filter
IERANGELOWERLIMIT	IQUANT	9	I/E Range Lower Limit
IERANGEMODE	TOGGLE	F	I/E AutoRange
IERANGE	IQUANT	9	I/E Range
ACHSELECT	IQUANT	1	Ach Select
ACHRANGE	IQUANT	2	Ach Range
ACHOFFSETENABLE	TOGGLE	F	Ach Offset Enable
ACHOFFSET	QUANT	0	Ach Offset (V)
ACHFILTER	IQUANT	1	Ach Filter
CABLEID	IQUANT	14	Cable ID
DCCALDATE	LABEL	5-7-2017	DC Calibration Date
ACCALDATE	LABEL	12/3/2015	AC Calibration Date
FRAMEWORKVERSION	QUANT	7.01	Framework Version
INSTRUMENTVERSION	LABEL	4.00	Instrument Version
CURVE	TABLE	71
	Pt	T	Vf	Im	Vu	Pwr	Sig	Ach	Temp	IERange	Over
	#	s	V	A	V	W	V	V	deg C	#	bits
	0	0.013333	8.43996E-001	-9.90031E-005	0.00000E+000	-8.35582E-005	-5.99601E-002	8.44298E-001	3.57670E+000	9	...........
	1	0.026667	8.30951E-001	-9.85696E-005	0.00000E+000	-8.19065E-005	-5.99601E-002	8.31265E-001	3.57670E+000	9	...........
	2	0.04	8.18488E-001	-9.87228E-005	0.00000E+000	-8.08034E-005	-5.99601E-002	8.18781E-001	3.57670E+000	9	...........
	3	0.053333	8.06412E-001	-9.98480E-005	0.00000E+000	-8.05186E-005	-5.99601E-002	8.06682E-001	3.57670E+000	9	...........
	4	0.066667	7.94600E-001	-9.89864E-005	0.00000E+000	-7.86546E-005	-5.99601E-002	7.94872E-001	3.57670E+000	9	...........
	5	0.08	7.82988E-001	-9.90249E-005	0.00000E+000	-7.75354E-005	-5.99601E-002	7.83242E-001	3.57670E+000	9	...........
	6	0.093333	7.71523E-001	-9.86738E-005	0.00000E+000	-7.61291E-005	-5.99601E-002	7.71802E-001	3.57670E+000	9	...........
	7	0.106667	7.60187E-001	-9.96032E-005	0.00000E+000	-7.57171E-005	-5.99601E-002	7.60471E-001	3.57670E+000	9	...........
	8	0.12	7.49007E-001	-9.95823E-005	0.00000E+000	-7.45879E-005	-5.99601E-002	7.49263E-001	3.57670E+000	9	...........
	9	0.133333	7.37885E-001	-9.98553E-005	0.00000E+000	-7.36818E-005	-5.99601E-002	7.38129E-001	3.57670E+000	9	...........
	10	0.146667	7.26911E-001	-9.80403E-005	0.00000E+000	-7.12666E-005	-5.99601E-002	7.27140E-001	3.57670E+000	9	...........
	11	0.16	7.15964E-001	-9.88916E-005	0.00000E+000	-7.08028E-005	-5.99601E-002	7.16200E-001	3.57670E+000	9	...........
	12	0.173333	7.05136E-001	-9.91614E-005	0.00000E+000	-6.99223E-005	-5.99601E-002	7.05368E-001	3.57670E+000	9	...........
	13	0.186667	6.94372E-001	-9.84529E-005	0.00000E+000	-6.83629E-005	-5.99601E-002	6.94605E-001	3.57670E+000	9	...........
	14	0.2	6.83694E-001	-9.81727E-005	0.00000E+000	-6.71201E-005	-5.99601E-002	6.83909E-001	3.57670E+000	9	...........
	15	0.213333	6.73036E-001	-9.94521E-005	0.00000E+000	-6.69349E-005	-5.99601E-002	6.73277E-001	3.57670E+000	9	...........
	16	0.226667	6.62391E-001	-9.87186E-005	0.00000E+000	-6.53903E-005	-5.99601E-002	6.62615E-001	3.57670E+000	9	...........
	17	0.24	6.51741E-001	-9.95761E-005	0.00000E+000	-6.48978E-005	-5.99601E-002	6.51961E-001	3.57670E+000	9	...........
	18	0.253333	6.40968E-001	-9.97136E-005	0.00000E+000	-6.39133E-005	-5.99601E-002	6.41224E-001	3.57670E+000	9	...........
	19	0.266667	6.30146E-001	-9.93198E-005	0.00000E+000	-6.25859E-005	-5.99601E-002	6.30372E-001	3.57670E+000	9	...........
	20	0.28	6.19159E-001	-9.88228E-005	0.00000E+000	-6.11870E-005	-5.99601E-002	6.19379E-001	3.57670E+000	9	...........
	21	0.293333	6.07900E-001	-9.88968E-005	0.00000E+000	-6.01193E-005	-5.99601E-002	6.08172E-001	3.57670E+000	9	...........
	22	0.306667	5.96527E-001	-9.89478E-005	0.00000E+000	-5.90250E-005	-5.99601E-002	5.96807E-001	3.57670E+000	9	...........
	23	0.32	5.84951E-001	-9.92948E-005	0.00000E+000	-5.80826E-005	-5.99601E-002	5.85197E-001	3.57670E+000	9	...........
	24	0.333333	5.73177E-001	-9.84123E-005	0.00000E+000	-5.64077E-005	-5.99601E-002	5.73403E-001	3.57670E+000	9	...........
	25	0.346667	5.61174E-001	-9.94761E-005	0.00000E+000	-5.58234E-005	-5.99601E-002	5.61416E-001	3.57670E+000	9	...........
	26	0.36	5.49038E-001	-9.90447E-005	0.00000E+000	-5.43793E-005	-5.99601E-002	5.49246E-001	3.57670E+000	9	...........
	27	0.373333	5.36696E-001	-9.94511E-005	0.00000E+000	-5.33750E-005	-5.99601E-002	5.36927E-001	3.57670E+000	9	...........
	28	0.386667	5.24241E-001	-9.82227E-005	0.00000E+000	-5.14924E-005	-5.99601E-002	5.24469E-001	3.57670E+000	9	...........
	29	0.4	5.11653E-001	-9.89478E-005	0.00000E+000	-5.06270E-005	-5.99601E-002	5.11901E-001	3.57670E+000	9	...........
	30	0.413333	4.98932E-001	-9.91010E-005	0.00000E+000	-4.94447E-005	-5.99601E-002	4.99183E-001	3.57670E+000	9	...........
	31	0.426667	4.86270E-001	-9.78945E-005	0.00000E+000	-4.76031E-005	-5.99601E-002	4.86439E-001	3.57670E+000	9	...........
	32	0.44	4.73555E-001	-1.00213E-004	0.00000E+000	-4.74563E-005	-5.99601E-002	4.73659E-001	3.57670E+000	9	...........
	33	0.453333	4.60570E-001	-9.95928E-005	0.00000E+000	-4.58694E-005	-5.99601E-002	4.60669E-001	3.57670E+000	9	...........
	34	0.466667	4.47514E-001	-9.89853E-005	0.00000E+000	-4.42973E-005	-5.99601E-002	4.47614E-001	3.57670E+000	9	...........
	35	0.48	4.34410E-001	-9.83321E-005	0.00000E+000	-4.27164E-005	-5.99601E-002	4.34511E-001	3.57670E+000	9	...........
	36	0.493333	4.21264E-001	-9.88884E-005	0.00000E+000	-4.16581E-005	-5.99601E-002	4.21363E-001	3.57670E+000	9	...........
	37	0.506667	4.08089E-001	-9.78882E-005	0.00000E+000	-3.99471E-005	-5.99601E-002	4.08175E-001	3.57670E+000	9	...........
	38	0.52	3.94891E-001	-9.89843E-005	0.00000E+000	-3.90880E-005	-5.99601E-002	3.94974E-001	3.57670E+000	9	...........
	39	0.533333	3.81688E-001	-9.91010E-005	0.00000E+000	-3.78256E-005	-5.99601E-002	3.81763E-001	3.57670E+000	9	...........
	40	0.546667	3.68490E-001	-9.87145E-005	0.00000E+000	-3.63753E-005	-5.99601E-002	3.68563E-001	3.57670E+000	9	...........
	41	0.56	3.55310E-001	-9.97230E-005	0.00000E+000	-3.54326E-005	-5.99601E-002	3.55376E-001	3.57670E+000	9	...........
	42	0.573333	3.42144E-001	-9.82310E-005	0.00000E+000	-3.36091E-005	-5.99601E-002	3.42217E-001	3.57680E+000	9	...........
	43	0.586667	3.29015E-001	-9.99710E-005	0.00000E+000	-3.28920E-005	-5.99601E-002	3.29083E-001	3.57750E+000	9	...........
	44	0.6	3.15929E-001	-9.98834E-005	0.00000E+000	-3.15561E-005	-5.99601E-002	3.15993E-001	3.57750E+000	9	...........
	45	0.613333	3.02873E-001	-9.90301E-005	0.00000E+000	-2.99936E-005	-5.99601E-002	3.02941E-001	3.57750E+000	9	...........
	46	0.626667	2.89883E-001	-9.99095E-005	0.00000E+000	-2.89621E-005	-5.99601E-002	2.89941E-001	3.57750E+000	9	...........
	47	0.64	2.76946E-001	-9.89958E-005	0.00000E+000	-2.74165E-005	-5.99601E-002	2.77006E-001	3.57750E+000	9	...........
	48	0.653333	2.64067E-001	-1.00228E-004	0.00000E+000	-2.64670E-005	-5.99601E-002	2.64124E-001	3.57750E+000	9	...........
	49	0.666667	2.51248E-001	-9.90083E-005	0.00000E+000	-2.48756E-005	-5.99601E-002	2.51300E-001	3.57750E+000	9	...........
	50	0.68	2.38494E-001	-9.84134E-005	0.00000E+000	-2.34710E-005	-5.99601E-002	2.38540E-001	3.57750E+000	9	...........
	51	0.693333	2.25806E-001	-9.86999E-005	0.00000E+000	-2.22870E-005	-5.99601E-002	2.25854E-001	3.57750E+000	9	...........
	52	0.706667	2.13185E-001	-9.85207E-005	0.00000E+000	-2.10031E-005	-5.99601E-002	2.13229E-001	3.57750E+000	9	...........
	53	0.72	2.00625E-001	-9.77195E-005	0.00000E+000	-1.96050E-005	-5.99601E-002	2.00664E-001	3.57750E+000	9	...........
	54	0.733333	1.88115E-001	-9.93583E-005	0.00000E+000	-1.86908E-005	-5.99601E-002	1.88159E-001	3.57750E+000	9	...........
	55	0.746667	1.75671E-001	-9.84206E-005	0.00000E+000	-1.72897E-005	-5.99601E-002	1.75706E-001	3.57750E+000	9	...........
	56	0.76	1.63282E-001	-9.84748E-005	0.00000E+000	-1.60791E-005	-5.99601E-002	1.63309E-001	3.57750E+000	9	...........
	57	0.773333	1.50950E-001	-9.81404E-005	0.00000E+000	-1.48143E-005	-5.99601E-002	1.50980E-001	3.57750E+000	9	...........
	58	0.786667	1.38681E-001	-9.81456E-005	0.00000E+000	-1.36109E-005	-5.99601E-002	1.38701E-001	3.57750E+000	9	...........
	59	0.8	1.26477E-001	-9.86780E-005	0.00000E+000	-1.24805E-005	-5.99601E-002	1.26495E-001	3.57750E+000	9	...........
	60	0.813333	1.14338E-001	-9.89635E-005	0.00000E+000	-1.13152E-005	-5.99601E-002	1.14357E-001	3.57750E+000	9	...........
	61	0.826667	1.02290E-001	-9.85207E-005	0.00000E+000	-1.00777E-005	-5.99601E-002	1.02312E-001	3.57750E+000	9	...........
	62	0.84	9.03311E-002	-9.84509E-005	0.00000E+000	-8.89317E-006	-5.99601E-002	9.03483E-002	3.57750E+000	9	...........
	63	0.853333	7.84663E-002	-9.92156E-005	0.00000E+000	-7.78508E-006	-5.99601E-002	7.84738E-002	3.57750E+000	9	...........
	64	0.866667	6.67075E-002	-9.96396E-005	0.00000E+000	-6.64671E-006	-5.99601E-002	6.67107E-002	3.57750E+000	9	...........
	65	0.88	5.50686E-002	-9.91072E-005	0.00000E+000	-5.45769E-006	-5.99601E-002	5.50734E-002	3.57750E+000	9	...........
	66	0.893333	4.35780E-002	-9.86749E-005	0.00000E+000	-4.30005E-006	-5.99601E-002	4.35762E-002	3.57750E+000	9	...........
	67	0.906667	3.22011E-002	-9.79580E-005	0.00000E+000	-3.15436E-006	-5.99601E-002	3.21970E-002	3.57750E+000	9	...........
	68	0.92	2.09634E-002	-9.82675E-005	0.00000E+000	-2.06002E-006	-5.99601E-002	2.09530E-002	3.57750E+000	9	...........
	69	0.933333	9.88532E-003	-9.81675E-005	0.00000E+000	-9.70417E-007	-5.99601E-002	9.87185E-003	3.57750E+000	9	...........
	70	0.94	1.68622E-003	-9.94208E-005	0.00000E+000	-1.67646E-007	-5.99601E-002	1.66258E-003	3.57750E+000	9	...........
STARTTIMEOFFSET	QUANT	1087.307	Start Time Offset (s)
