EXPLAIN
TAG	PWR800_DISCHARGE
TITLE	LABEL	PWR Cyclic Charge Discharge (Cell) - Discharge Step	Test &Identifier
DATE	LABEL	12-7-2017	Date
TIME	LABEL	16:11:20	Time
NOTES	NOTES	2	&Notes...
	supercap test cell
	6M KOH
PSTAT	PSTAT	IFC5000-01520	Potentiostat
CAPACITY	QUANT	1.00000E-003	Capacity (A-hr)
CELLTYPE	SELECTOR	1	&Cell Type
WORKINGCONNECTION	SELECTOR	0	&Working Lead
MAXDISCHARGETIME	VARIABLEANDUNITS	1.00000E+002	s	1.00000E+002	second(s)	Max &Discharge Time
DISCHARGEMODE	MULTIPARAM	0	1.00000E-004	&Discharge Mode	Constant Current	Amp(s)
SAMPLETIME	QUANT	1.00000E-002	Sa&mple Period (s)
DISCHARGESTOPAT1	MULTIPARAM	3	0.00000E+000	Discharge Stop At &1	Voltage < Limit	V
DISCHARGESTOPAT2	MULTIPARAM	0	0.00000E+000	Discharge Stop At &2	None	N/A
AESBHCSELECTOR	TOGGLE	F	Save Both Half Cells
IRCOMP	TOGGLE	F	IR &Measure
EOC	QUANT	0	Open Circuit (V)
SEQUENCER	TOGGLE	TRUE	Run as Sequence
PSTATMODEL	IQUANT	53	Pstat Model
PSTATSECTION	LABEL	IFC5000-01520	Pstat Section
PSTATSERIALNO	LABEL	01520	Pstat Serial Number
CTRLMODE	IQUANT	0	Control Mode
ELECTROMETER	IQUANT	1	RE=0 or CS=1
IESTAB	IQUANT	0	I/E Stability
CASPEED	IQUANT	4	Control Amp Speed
CONVENTION	IQUANT	1	Current Convention
ICHRANGE	IQUANT	2	Ich Range
ICHRANGEMODE	TOGGLE	T	Ich Auto Range
ICHOFFSETENABLE	TOGGLE	F	Ich Offset Enable
ICHOFFSET	QUANT	0	Ich Offset (V)
ICHFILTER	IQUANT	1	Ich Filter
VCHRANGE	IQUANT	2	Vch Range
VCHRANGEMODE	TOGGLE	T	Vch Auto Range
VCHOFFSETENABLE	TOGGLE	F	Vch Offset Enable
VCHOFFSET	QUANT	0	Vch Offset (V)
VCHFILTER	IQUANT	1	Vch Filter
IERANGELOWERLIMIT	IQUANT	9	I/E Range Lower Limit
IERANGEMODE	TOGGLE	F	I/E AutoRange
IERANGE	IQUANT	9	I/E Range
ACHSELECT	IQUANT	1	Ach Select
ACHRANGE	IQUANT	2	Ach Range
ACHOFFSETENABLE	TOGGLE	F	Ach Offset Enable
ACHOFFSET	QUANT	0	Ach Offset (V)
ACHFILTER	IQUANT	1	Ach Filter
CABLEID	IQUANT	14	Cable ID
DCCALDATE	LABEL	5-7-2017	DC Calibration Date
ACCALDATE	LABEL	12/3/2015	AC Calibration Date
FRAMEWORKVERSION	QUANT	7.01	Framework Version
INSTRUMENTVERSION	LABEL	4.00	Instrument Version
CURVE	TABLE	75
	Pt	T	Vf	Im	Vu	Pwr	Sig	Ach	Temp	IERange	Over
	#	s	V	A	V	W	V	V	deg C	#	bits
	0	0.013333	8.38644E-001	-9.86259E-005	0.00000E+000	-8.27120E-005	-5.99601E-002	8.38941E-001	3.57860E+000	9	...........
	1	0.026667	8.25374E-001	-9.85894E-005	0.00000E+000	-8.13731E-005	-5.99601E-002	8.25667E-001	3.57860E+000	9	...........
	2	0.04	8.12643E-001	-9.89520E-005	0.00000E+000	-8.04127E-005	-5.99601E-002	8.12927E-001	3.57860E+000	9	...........
	3	0.053333	8.00282E-001	-9.90635E-005	0.00000E+000	-7.92787E-005	-5.99601E-002	8.00547E-001	3.57860E+000	9	...........
	4	0.066667	7.88114E-001	-9.88176E-005	0.00000E+000	-7.78795E-005	-5.99601E-002	7.88384E-001	3.57860E+000	9	...........
	5	0.08	7.76103E-001	-9.92114E-005	0.00000E+000	-7.69983E-005	-5.99601E-002	7.76364E-001	3.57860E+000	9	...........
	6	0.093333	7.64144E-001	-9.86082E-005	0.00000E+000	-7.53508E-005	-5.99601E-002	7.64419E-001	3.57790E+000	9	...........
	7	0.106667	7.52266E-001	-9.86790E-005	0.00000E+000	-7.42328E-005	-5.99601E-002	7.52526E-001	3.57720E+000	9	...........
	8	0.12	7.40395E-001	-9.88937E-005	0.00000E+000	-7.32204E-005	-5.99601E-002	7.40658E-001	3.57720E+000	9	...........
	9	0.133333	7.28527E-001	-9.86394E-005	0.00000E+000	-7.18615E-005	-5.99601E-002	7.28770E-001	3.57720E+000	9	...........
	10	0.146667	7.16633E-001	-9.86728E-005	0.00000E+000	-7.07121E-005	-5.99601E-002	7.16896E-001	3.57720E+000	9	...........
	11	0.16	7.04749E-001	-9.82654E-005	0.00000E+000	-6.92525E-005	-5.99601E-002	7.05008E-001	3.57720E+000	9	...........
	12	0.173333	6.92860E-001	-9.85259E-005	0.00000E+000	-6.82646E-005	-5.99601E-002	6.93138E-001	3.57720E+000	9	...........
	13	0.186667	6.81011E-001	-9.83217E-005	0.00000E+000	-6.69581E-005	-5.99601E-002	6.81255E-001	3.57720E+000	9	...........
	14	0.2	6.69119E-001	-9.76694E-005	0.00000E+000	-6.53524E-005	-5.99601E-002	6.69377E-001	3.57720E+000	9	...........
	15	0.213333	6.57232E-001	-9.89416E-005	0.00000E+000	-6.50276E-005	-5.99601E-002	6.57495E-001	3.57720E+000	9	...........
	16	0.226667	6.45379E-001	-9.85363E-005	0.00000E+000	-6.35932E-005	-5.99601E-002	6.45641E-001	3.57720E+000	9	...........
	17	0.24	6.33526E-001	-9.82925E-005	0.00000E+000	-6.22708E-005	-5.99601E-002	6.33791E-001	3.57720E+000	9	...........
	18	0.253333	6.21744E-001	-9.79403E-005	0.00000E+000	-6.08938E-005	-5.99601E-002	6.21957E-001	3.57720E+000	9	...........
	19	0.266667	6.09896E-001	-9.82852E-005	0.00000E+000	-5.99437E-005	-5.99601E-002	6.10182E-001	3.57720E+000	9	...........
	20	0.28	5.98180E-001	-9.92541E-005	0.00000E+000	-5.93718E-005	-5.99601E-002	5.98421E-001	3.57720E+000	9	...........
	21	0.293333	5.86451E-001	-9.88291E-005	0.00000E+000	-5.79584E-005	-5.99601E-002	5.86717E-001	3.57720E+000	9	...........
	22	0.306667	5.74795E-001	-9.90458E-005	0.00000E+000	-5.69310E-005	-5.99601E-002	5.75040E-001	3.57720E+000	9	...........
	23	0.32	5.63152E-001	-9.88884E-005	0.00000E+000	-5.56892E-005	-5.99601E-002	5.63429E-001	3.57720E+000	9	...........
	24	0.333333	5.51570E-001	-9.77809E-005	0.00000E+000	-5.39331E-005	-5.99601E-002	5.51814E-001	3.57720E+000	9	...........
	25	0.346667	5.40041E-001	-9.83477E-005	0.00000E+000	-5.31118E-005	-5.99601E-002	5.40292E-001	3.57720E+000	9	...........
	26	0.36	5.28553E-001	-9.90656E-005	0.00000E+000	-5.23614E-005	-5.99601E-002	5.28786E-001	3.57720E+000	9	...........
	27	0.373333	5.17133E-001	-9.84498E-005	0.00000E+000	-5.09116E-005	-5.99601E-002	5.17360E-001	3.57720E+000	9	...........
	28	0.386667	5.05711E-001	-9.85436E-005	0.00000E+000	-4.98346E-005	-5.99601E-002	5.05954E-001	3.57720E+000	9	...........
	29	0.4	4.94374E-001	-9.84696E-005	0.00000E+000	-4.86808E-005	-5.99601E-002	4.94605E-001	3.57720E+000	9	...........
	30	0.413333	4.83279E-001	-9.80289E-005	0.00000E+000	-4.73753E-005	-5.99601E-002	4.83415E-001	3.57720E+000	9	...........
	31	0.426667	4.72139E-001	-9.83081E-005	0.00000E+000	-4.64151E-005	-5.99601E-002	4.72241E-001	3.57720E+000	9	...........
	32	0.44	4.60913E-001	-9.88041E-005	0.00000E+000	-4.55401E-005	-5.99601E-002	4.61004E-001	3.57720E+000	9	...........
	33	0.453333	4.49719E-001	-9.96699E-005	0.00000E+000	-4.48234E-005	-5.99601E-002	4.49809E-001	3.57720E+000	9	...........
	34	0.466667	4.38548E-001	-9.87113E-005	0.00000E+000	-4.32897E-005	-5.99601E-002	4.38640E-001	3.57720E+000	9	...........
	35	0.48	4.27398E-001	-9.84123E-005	0.00000E+000	-4.20612E-005	-5.99601E-002	4.27483E-001	3.57720E+000	9	...........
	36	0.493333	4.16257E-001	-9.90718E-005	0.00000E+000	-4.12393E-005	-5.99601E-002	4.16345E-001	3.57720E+000	9	...........
	37	0.506667	4.05130E-001	-9.91989E-005	0.00000E+000	-4.01884E-005	-5.99601E-002	4.05213E-001	3.57720E+000	9	...........
	38	0.52	3.94001E-001	-9.91416E-005	0.00000E+000	-3.90619E-005	-5.99601E-002	3.94083E-001	3.57720E+000	9	...........
	39	0.533333	3.82867E-001	-9.86103E-005	0.00000E+000	-3.77546E-005	-5.99601E-002	3.82946E-001	3.57720E+000	9	...........
	40	0.546667	3.71719E-001	-9.87520E-005	0.00000E+000	-3.67079E-005	-5.99601E-002	3.71795E-001	3.57720E+000	9	...........
	41	0.56	3.60559E-001	-9.83446E-005	0.00000E+000	-3.54590E-005	-5.99601E-002	3.60630E-001	3.57720E+000	9	...........
	42	0.573333	3.49386E-001	-9.82435E-005	0.00000E+000	-3.43249E-005	-5.99601E-002	3.49453E-001	3.57720E+000	9	...........
	43	0.586667	3.38178E-001	-9.84404E-005	0.00000E+000	-3.32904E-005	-5.99601E-002	3.38250E-001	3.57720E+000	9	...........
	44	0.6	3.26967E-001	-9.85102E-005	0.00000E+000	-3.22096E-005	-5.99601E-002	3.27025E-001	3.57720E+000	9	...........
	45	0.613333	3.15728E-001	-9.92000E-005	0.00000E+000	-3.13202E-005	-5.99601E-002	3.15791E-001	3.57720E+000	9	...........
	46	0.626667	3.04468E-001	-9.82706E-005	0.00000E+000	-2.99203E-005	-5.99601E-002	3.04532E-001	3.57720E+000	9	...........
	47	0.64	2.93200E-001	-9.94021E-005	0.00000E+000	-2.91447E-005	-5.99601E-002	2.93254E-001	3.57720E+000	9	...........
	48	0.653333	2.81897E-001	-9.87655E-005	0.00000E+000	-2.78417E-005	-5.99601E-002	2.81951E-001	3.57720E+000	9	...........
	49	0.666667	2.70576E-001	-9.87176E-005	0.00000E+000	-2.67106E-005	-5.99601E-002	2.70629E-001	3.57720E+000	9	...........
	50	0.68	2.59235E-001	-9.89937E-005	0.00000E+000	-2.56626E-005	-5.99601E-002	2.59288E-001	3.57720E+000	9	...........
	51	0.693333	2.47883E-001	-9.88468E-005	0.00000E+000	-2.45025E-005	-5.99601E-002	2.47930E-001	3.57720E+000	9	...........
	52	0.706667	2.36518E-001	-9.82456E-005	0.00000E+000	-2.32368E-005	-5.99601E-002	2.36555E-001	3.57720E+000	9	...........
	53	0.72	2.25132E-001	-9.86957E-005	0.00000E+000	-2.22196E-005	-5.99601E-002	2.25173E-001	3.57720E+000	9	...........
	54	0.733333	2.13742E-001	-9.81498E-005	0.00000E+000	-2.09787E-005	-5.99601E-002	2.13777E-001	3.57720E+000	9	...........
	55	0.746667	2.02350E-001	-9.92041E-005	0.00000E+000	-2.00739E-005	-5.99601E-002	2.02389E-001	3.57720E+000	9	...........
	56	0.76	1.90968E-001	-9.89499E-005	0.00000E+000	-1.88963E-005	-5.99601E-002	1.90999E-001	3.57720E+000	9	...........
	57	0.773333	1.79583E-001	-9.91218E-005	0.00000E+000	-1.78006E-005	-5.99601E-002	1.79618E-001	3.57720E+000	9	...........
	58	0.786667	1.68216E-001	-9.96261E-005	0.00000E+000	-1.67587E-005	-5.99601E-002	1.68248E-001	3.57720E+000	9	...........
	59	0.8	1.56870E-001	-9.89239E-005	0.00000E+000	-1.55182E-005	-5.99601E-002	1.56897E-001	3.57720E+000	9	...........
	60	0.813333	1.45548E-001	-9.85248E-005	0.00000E+000	-1.43401E-005	-5.99601E-002	1.45575E-001	3.57720E+000	9	...........
	61	0.826667	1.34259E-001	-9.89030E-005	0.00000E+000	-1.32786E-005	-5.99601E-002	1.34284E-001	3.57720E+000	9	...........
	62	0.84	1.23024E-001	-9.84988E-005	0.00000E+000	-1.21177E-005	-5.99601E-002	1.23043E-001	3.57720E+000	9	...........
	63	0.853333	1.11831E-001	-9.86759E-005	0.00000E+000	-1.10350E-005	-5.99601E-002	1.11853E-001	3.57720E+000	9	...........
	64	0.866667	1.00701E-001	-9.94709E-005	0.00000E+000	-1.00168E-005	-5.99601E-002	1.00719E-001	3.57720E+000	9	...........
	65	0.88	8.96470E-002	-9.86176E-005	0.00000E+000	-8.84077E-006	-5.99601E-002	8.96585E-002	3.57720E+000	9	...........
	66	0.893333	7.86701E-002	-9.87134E-005	0.00000E+000	-7.76579E-006	-5.99601E-002	7.86815E-002	3.57720E+000	9	...........
	67	0.906667	6.77891E-002	-9.87155E-005	0.00000E+000	-6.69184E-006	-5.99601E-002	6.77927E-002	3.57720E+000	9	...........
	68	0.92	5.69981E-002	-9.83540E-005	0.00000E+000	-5.60599E-006	-5.99601E-002	5.69994E-002	3.57720E+000	9	...........
	69	0.933333	4.63442E-002	-9.91770E-005	0.00000E+000	-4.59628E-006	-5.99601E-002	4.63479E-002	3.57720E+000	9	...........
	70	0.946667	3.58094E-002	-9.81945E-005	0.00000E+000	-3.51629E-006	-5.99601E-002	3.58062E-002	3.57720E+000	9	...........
	71	0.96	2.53877E-002	-9.86248E-005	0.00000E+000	-2.50386E-006	-5.99601E-002	2.53783E-002	3.57720E+000	9	...........
	72	0.97333	1.51012E-002	-9.85884E-005	0.00000E+000	-1.48881E-006	-5.99601E-002	1.50852E-002	3.57720E+000	9	...........
	73	0.98667	4.96140E-003	-9.87332E-005	0.00000E+000	-4.89855E-007	-5.99601E-002	4.94093E-003	3.57720E+000	9	...........
	74	0.98833	-6.75879E-004	-9.70349E-005	0.00000E+000	6.55839E-008	-5.99601E-002	-6.96458E-004	3.57720E+000	9	...........
STARTTIMEOFFSET	QUANT	53.5	Start Time Offset (s)
