EXPLAIN
TAG	PWR800_DISCHARGE
TITLE	LABEL	PWR Cyclic Charge Discharge (Cell) - Discharge Step	Test &Identifier
DATE	LABEL	12-7-2017	Date
TIME	LABEL	16:46:59	Time
NOTES	NOTES	2	&Notes...
	supercap test cell
	6M KOH
PSTAT	PSTAT	IFC5000-01520	Potentiostat
CAPACITY	QUANT	1.00000E-003	Capacity (A-hr)
CELLTYPE	SELECTOR	1	&Cell Type
WORKINGCONNECTION	SELECTOR	0	&Working Lead
MAXDISCHARGETIME	VARIABLEANDUNITS	1.00000E+002	s	1.00000E+002	second(s)	Max &Discharge Time
DISCHARGEMODE	MULTIPARAM	0	1.00000E-004	&Discharge Mode	Constant Current	Amp(s)
SAMPLETIME	QUANT	1.00000E-002	Sa&mple Period (s)
DISCHARGESTOPAT1	MULTIPARAM	3	0.00000E+000	Discharge Stop At &1	Voltage < Limit	V
DISCHARGESTOPAT2	MULTIPARAM	0	0.00000E+000	Discharge Stop At &2	None	N/A
AESBHCSELECTOR	TOGGLE	F	Save Both Half Cells
IRCOMP	TOGGLE	F	IR &Measure
EOC	QUANT	0	Open Circuit (V)
SEQUENCER	TOGGLE	TRUE	Run as Sequence
PSTATMODEL	IQUANT	53	Pstat Model
PSTATSECTION	LABEL	IFC5000-01520	Pstat Section
PSTATSERIALNO	LABEL	01520	Pstat Serial Number
CTRLMODE	IQUANT	0	Control Mode
ELECTROMETER	IQUANT	1	RE=0 or CS=1
IESTAB	IQUANT	0	I/E Stability
CASPEED	IQUANT	4	Control Amp Speed
CONVENTION	IQUANT	1	Current Convention
ICHRANGE	IQUANT	2	Ich Range
ICHRANGEMODE	TOGGLE	T	Ich Auto Range
ICHOFFSETENABLE	TOGGLE	F	Ich Offset Enable
ICHOFFSET	QUANT	0	Ich Offset (V)
ICHFILTER	IQUANT	1	Ich Filter
VCHRANGE	IQUANT	2	Vch Range
VCHRANGEMODE	TOGGLE	T	Vch Auto Range
VCHOFFSETENABLE	TOGGLE	F	Vch Offset Enable
VCHOFFSET	QUANT	0	Vch Offset (V)
VCHFILTER	IQUANT	1	Vch Filter
IERANGELOWERLIMIT	IQUANT	9	I/E Range Lower Limit
IERANGEMODE	TOGGLE	F	I/E AutoRange
IERANGE	IQUANT	9	I/E Range
ACHSELECT	IQUANT	1	Ach Select
ACHRANGE	IQUANT	2	Ach Range
ACHOFFSETENABLE	TOGGLE	F	Ach Offset Enable
ACHOFFSET	QUANT	0	Ach Offset (V)
ACHFILTER	IQUANT	1	Ach Filter
CABLEID	IQUANT	14	Cable ID
DCCALDATE	LABEL	5-7-2017	DC Calibration Date
ACCALDATE	LABEL	12/3/2015	AC Calibration Date
FRAMEWORKVERSION	QUANT	7.01	Framework Version
INSTRUMENTVERSION	LABEL	4.00	Instrument Version
CURVE	TABLE	71
	Pt	T	Vf	Im	Vu	Pwr	Sig	Ach	Temp	IERange	Over
	#	s	V	A	V	W	V	V	deg C	#	bits
	0	0.013333	8.46698E-001	-9.82821E-005	0.00000E+000	-8.32152E-005	-5.99601E-002	8.47014E-001	3.57790E+000	9	...........
	1	0.026667	8.33532E-001	-9.92239E-005	0.00000E+000	-8.27063E-005	-5.99601E-002	8.33832E-001	3.57790E+000	9	...........
	2	0.04	8.20961E-001	-9.87697E-005	0.00000E+000	-8.10861E-005	-5.99601E-002	8.21297E-001	3.57790E+000	9	...........
	3	0.053333	8.08775E-001	-9.82279E-005	0.00000E+000	-7.94443E-005	-5.99601E-002	8.09073E-001	3.57790E+000	9	...........
	4	0.066667	7.96851E-001	-9.85467E-005	0.00000E+000	-7.85270E-005	-5.99601E-002	7.97123E-001	3.57790E+000	9	...........
	5	0.08	7.85087E-001	-9.98720E-005	0.00000E+000	-7.84082E-005	-5.99601E-002	7.85359E-001	3.57790E+000	9	...........
	6	0.093333	7.73500E-001	-9.95219E-005	0.00000E+000	-7.69802E-005	-5.99601E-002	7.73762E-001	3.57790E+000	9	...........
	7	0.106667	7.62024E-001	-9.68839E-005	0.00000E+000	-7.38279E-005	-5.99601E-002	7.62282E-001	3.57790E+000	9	...........
	8	0.12	7.50658E-001	-9.93927E-005	0.00000E+000	-7.46099E-005	-5.99601E-002	7.50910E-001	3.57790E+000	9	...........
	9	0.133333	7.39390E-001	-9.86717E-005	0.00000E+000	-7.29569E-005	-5.99601E-002	7.39636E-001	3.57790E+000	9	...........
	10	0.146667	7.28211E-001	-9.77111E-005	0.00000E+000	-7.11543E-005	-5.99601E-002	7.28450E-001	3.57790E+000	9	...........
	11	0.16	7.17110E-001	-9.93500E-005	0.00000E+000	-7.12449E-005	-5.99601E-002	7.17338E-001	3.57790E+000	9	...........
	12	0.173333	7.06075E-001	-9.90979E-005	0.00000E+000	-6.99705E-005	-5.99601E-002	7.06295E-001	3.57790E+000	9	...........
	13	0.186667	6.95140E-001	-9.89676E-005	0.00000E+000	-6.87963E-005	-5.99601E-002	6.95374E-001	3.57790E+000	9	...........
	14	0.2	6.84268E-001	-9.90072E-005	0.00000E+000	-6.77475E-005	-5.99601E-002	6.84513E-001	3.57790E+000	9	...........
	15	0.213333	6.73485E-001	-9.86478E-005	0.00000E+000	-6.64378E-005	-5.99601E-002	6.73723E-001	3.57790E+000	9	...........
	16	0.226667	6.62703E-001	-9.86217E-005	0.00000E+000	-6.53569E-005	-5.99601E-002	6.62958E-001	3.57790E+000	9	...........
	17	0.24	6.51986E-001	-9.94208E-005	0.00000E+000	-6.48210E-005	-5.99601E-002	6.52219E-001	3.57790E+000	9	...........
	18	0.253333	6.41226E-001	-9.90999E-005	0.00000E+000	-6.35455E-005	-5.99601E-002	6.41457E-001	3.57790E+000	9	...........
	19	0.266667	6.30394E-001	-9.81227E-005	0.00000E+000	-6.18560E-005	-5.99601E-002	6.30623E-001	3.57790E+000	9	...........
	20	0.28	6.19494E-001	-9.88676E-005	0.00000E+000	-6.12479E-005	-5.99601E-002	6.19688E-001	3.57790E+000	9	...........
	21	0.293333	6.08316E-001	-9.91395E-005	0.00000E+000	-6.03082E-005	-5.99601E-002	6.08563E-001	3.57790E+000	9	...........
	22	0.306667	5.97023E-001	-9.98616E-005	0.00000E+000	-5.96197E-005	-5.99601E-002	5.97275E-001	3.57790E+000	9	...........
	23	0.32	5.85492E-001	-9.90562E-005	0.00000E+000	-5.79966E-005	-5.99601E-002	5.85745E-001	3.57790E+000	9	...........
	24	0.333333	5.73783E-001	-9.96876E-005	0.00000E+000	-5.71991E-005	-5.99601E-002	5.74003E-001	3.57790E+000	9	...........
	25	0.346667	5.61820E-001	-9.86415E-005	0.00000E+000	-5.54188E-005	-5.99601E-002	5.62050E-001	3.57790E+000	9	...........
	26	0.36	5.49690E-001	-9.96594E-005	0.00000E+000	-5.47818E-005	-5.99601E-002	5.49874E-001	3.57790E+000	9	...........
	27	0.373333	5.37353E-001	-9.79018E-005	0.00000E+000	-5.26078E-005	-5.99601E-002	5.37571E-001	3.57790E+000	9	...........
	28	0.386667	5.24859E-001	-9.92437E-005	0.00000E+000	-5.20890E-005	-5.99601E-002	5.25061E-001	3.57790E+000	9	...........
	29	0.4	5.12188E-001	-9.85644E-005	0.00000E+000	-5.04835E-005	-5.99601E-002	5.12396E-001	3.57790E+000	9	...........
	30	0.413333	4.99380E-001	-1.00189E-004	0.00000E+000	-5.00322E-005	-5.99601E-002	4.99616E-001	3.57790E+000	9	...........
	31	0.426667	4.86548E-001	-9.86238E-005	0.00000E+000	-4.79852E-005	-5.99601E-002	4.86743E-001	3.57760E+000	9	...........
	32	0.44	4.73756E-001	-9.85655E-005	0.00000E+000	-4.66960E-005	-5.99601E-002	4.73858E-001	3.57710E+000	9	...........
	33	0.453333	4.60633E-001	-9.92083E-005	0.00000E+000	-4.56986E-005	-5.99601E-002	4.60735E-001	3.57710E+000	9	...........
	34	0.466667	4.47429E-001	-9.89822E-005	0.00000E+000	-4.42875E-005	-5.99601E-002	4.47523E-001	3.57710E+000	9	...........
	35	0.48	4.34162E-001	-9.86707E-005	0.00000E+000	-4.28390E-005	-5.99601E-002	4.34254E-001	3.57710E+000	9	...........
	36	0.493333	4.20842E-001	-9.76809E-005	0.00000E+000	-4.11083E-005	-5.99601E-002	4.20937E-001	3.57710E+000	9	...........
	37	0.506667	4.07479E-001	-9.85957E-005	0.00000E+000	-4.01757E-005	-5.99601E-002	4.07563E-001	3.57710E+000	9	...........
	38	0.52	3.94096E-001	-9.88728E-005	0.00000E+000	-3.89654E-005	-5.99601E-002	3.94172E-001	3.57710E+000	9	...........
	39	0.533333	3.80687E-001	-9.84686E-005	0.00000E+000	-3.74857E-005	-5.99601E-002	3.80760E-001	3.57710E+000	9	...........
	40	0.546667	3.67278E-001	-9.80081E-005	0.00000E+000	-3.59962E-005	-5.99601E-002	3.67352E-001	3.57710E+000	9	...........
	41	0.56	3.53876E-001	-9.86551E-005	0.00000E+000	-3.49116E-005	-5.99601E-002	3.53947E-001	3.57710E+000	9	...........
	42	0.573333	3.40496E-001	-9.84342E-005	0.00000E+000	-3.35165E-005	-5.99601E-002	3.40567E-001	3.57710E+000	9	...........
	43	0.586667	3.27148E-001	-9.88968E-005	0.00000E+000	-3.23538E-005	-5.99601E-002	3.27208E-001	3.57710E+000	9	...........
	44	0.6	3.13837E-001	-9.91593E-005	0.00000E+000	-3.11199E-005	-5.99601E-002	3.13896E-001	3.57710E+000	9	...........
	45	0.613333	3.00561E-001	-9.75705E-005	0.00000E+000	-2.93259E-005	-5.99601E-002	3.00630E-001	3.57710E+000	9	...........
	46	0.626667	2.87346E-001	-9.90489E-005	0.00000E+000	-2.84613E-005	-5.99601E-002	2.87406E-001	3.57710E+000	9	...........
	47	0.64	2.74187E-001	-9.93958E-005	0.00000E+000	-2.72531E-005	-5.99601E-002	2.74251E-001	3.57710E+000	9	...........
	48	0.653333	2.61092E-001	-1.00292E-004	0.00000E+000	-2.61854E-005	-5.99601E-002	2.61151E-001	3.57710E+000	9	...........
	49	0.666667	2.48056E-001	-1.00441E-004	0.00000E+000	-2.49149E-005	-5.99601E-002	2.48115E-001	3.57710E+000	9	...........
	50	0.68	2.35100E-001	-9.77861E-005	0.00000E+000	-2.29895E-005	-5.99601E-002	2.35145E-001	3.57710E+000	9	...........
	51	0.693333	2.22208E-001	-9.78497E-005	0.00000E+000	-2.17430E-005	-5.99601E-002	2.22254E-001	3.57710E+000	9	...........
	52	0.706667	2.09396E-001	-9.84904E-005	0.00000E+000	-2.06235E-005	-5.99601E-002	2.09435E-001	3.57710E+000	9	...........
	53	0.72	1.96650E-001	-1.00050E-004	0.00000E+000	-1.96749E-005	-5.99601E-002	1.96695E-001	3.57710E+000	9	...........
	54	0.733333	1.83985E-001	-9.71058E-005	0.00000E+000	-1.78660E-005	-5.99601E-002	1.84025E-001	3.57710E+000	9	...........
	55	0.746667	1.71390E-001	-9.89145E-005	0.00000E+000	-1.69530E-005	-5.99601E-002	1.71430E-001	3.57710E+000	9	...........
	56	0.76	1.58877E-001	-9.95855E-005	0.00000E+000	-1.58218E-005	-5.99601E-002	1.58909E-001	3.57710E+000	9	...........
	57	0.773333	1.46434E-001	-9.80424E-005	0.00000E+000	-1.43567E-005	-5.99601E-002	1.46459E-001	3.57710E+000	9	...........
	58	0.786667	1.34063E-001	-9.86228E-005	0.00000E+000	-1.32217E-005	-5.99601E-002	1.34089E-001	3.57710E+000	9	...........
	59	0.8	1.21770E-001	-9.89343E-005	0.00000E+000	-1.20472E-005	-5.99601E-002	1.21795E-001	3.57710E+000	9	...........
	60	0.813333	1.09560E-001	-9.88082E-005	0.00000E+000	-1.08254E-005	-5.99601E-002	1.09581E-001	3.57710E+000	9	...........
	61	0.826667	9.74360E-002	-9.99251E-005	0.00000E+000	-9.73630E-006	-5.99601E-002	9.74553E-002	3.57710E+000	9	...........
	62	0.84	8.54209E-002	-9.74642E-005	0.00000E+000	-8.32548E-006	-5.99601E-002	8.54322E-002	3.57710E+000	9	...........
	63	0.853333	7.35109E-002	-9.83456E-005	0.00000E+000	-7.22947E-006	-5.99601E-002	7.35270E-002	3.57710E+000	9	...........
	64	0.866667	6.17179E-002	-9.88249E-005	0.00000E+000	-6.09927E-006	-5.99601E-002	6.17278E-002	3.57710E+000	9	...........
	65	0.88	5.00608E-002	-9.73850E-005	0.00000E+000	-4.87517E-006	-5.99601E-002	5.00690E-002	3.57710E+000	9	...........
	66	0.893333	3.85716E-002	-9.95000E-005	0.00000E+000	-3.83788E-006	-5.99601E-002	3.85760E-002	3.57710E+000	9	...........
	67	0.906667	2.71996E-002	-9.94532E-005	0.00000E+000	-2.70509E-006	-5.99601E-002	2.72009E-002	3.57710E+000	9	...........
	68	0.92	1.60035E-002	-1.00160E-004	0.00000E+000	-1.60290E-006	-5.99601E-002	1.59955E-002	3.57710E+000	9	...........
	69	0.933333	4.97305E-003	-9.87915E-005	0.00000E+000	-4.91295E-007	-5.99601E-002	4.95356E-003	3.57710E+000	9	...........
	70	0.935	-1.17102E-003	-9.79351E-005	0.00000E+000	1.14684E-007	-5.99601E-002	-1.17979E-003	3.57710E+000	9	...........
STARTTIMEOFFSET	QUANT	1574.741	Start Time Offset (s)
