EXPLAIN
TAG	PWR800_DISCHARGE
TITLE	LABEL	PWR Cyclic Charge Discharge (Cell) - Discharge Step	Test &Identifier
DATE	LABEL	12-7-2017	Date
TIME	LABEL	16:42:04	Time
NOTES	NOTES	2	&Notes...
	supercap test cell
	6M KOH
PSTAT	PSTAT	IFC5000-01520	Potentiostat
CAPACITY	QUANT	1.00000E-003	Capacity (A-hr)
CELLTYPE	SELECTOR	1	&Cell Type
WORKINGCONNECTION	SELECTOR	0	&Working Lead
MAXDISCHARGETIME	VARIABLEANDUNITS	1.00000E+002	s	1.00000E+002	second(s)	Max &Discharge Time
DISCHARGEMODE	MULTIPARAM	0	1.00000E-004	&Discharge Mode	Constant Current	Amp(s)
SAMPLETIME	QUANT	1.00000E-002	Sa&mple Period (s)
DISCHARGESTOPAT1	MULTIPARAM	3	0.00000E+000	Discharge Stop At &1	Voltage < Limit	V
DISCHARGESTOPAT2	MULTIPARAM	0	0.00000E+000	Discharge Stop At &2	None	N/A
AESBHCSELECTOR	TOGGLE	F	Save Both Half Cells
IRCOMP	TOGGLE	F	IR &Measure
EOC	QUANT	0	Open Circuit (V)
SEQUENCER	TOGGLE	TRUE	Run as Sequence
PSTATMODEL	IQUANT	53	Pstat Model
PSTATSECTION	LABEL	IFC5000-01520	Pstat Section
PSTATSERIALNO	LABEL	01520	Pstat Serial Number
CTRLMODE	IQUANT	0	Control Mode
ELECTROMETER	IQUANT	1	RE=0 or CS=1
IESTAB	IQUANT	0	I/E Stability
CASPEED	IQUANT	4	Control Amp Speed
CONVENTION	IQUANT	1	Current Convention
ICHRANGE	IQUANT	2	Ich Range
ICHRANGEMODE	TOGGLE	T	Ich Auto Range
ICHOFFSETENABLE	TOGGLE	F	Ich Offset Enable
ICHOFFSET	QUANT	0	Ich Offset (V)
ICHFILTER	IQUANT	1	Ich Filter
VCHRANGE	IQUANT	2	Vch Range
VCHRANGEMODE	TOGGLE	T	Vch Auto Range
VCHOFFSETENABLE	TOGGLE	F	Vch Offset Enable
VCHOFFSET	QUANT	0	Vch Offset (V)
VCHFILTER	IQUANT	1	Vch Filter
IERANGELOWERLIMIT	IQUANT	9	I/E Range Lower Limit
IERANGEMODE	TOGGLE	F	I/E AutoRange
IERANGE	IQUANT	9	I/E Range
ACHSELECT	IQUANT	1	Ach Select
ACHRANGE	IQUANT	2	Ach Range
ACHOFFSETENABLE	TOGGLE	F	Ach Offset Enable
ACHOFFSET	QUANT	0	Ach Offset (V)
ACHFILTER	IQUANT	1	Ach Filter
CABLEID	IQUANT	14	Cable ID
DCCALDATE	LABEL	5-7-2017	DC Calibration Date
ACCALDATE	LABEL	12/3/2015	AC Calibration Date
FRAMEWORKVERSION	QUANT	7.01	Framework Version
INSTRUMENTVERSION	LABEL	4.00	Instrument Version
CURVE	TABLE	71
	Pt	T	Vf	Im	Vu	Pwr	Sig	Ach	Temp	IERange	Over
	#	s	V	A	V	W	V	V	deg C	#	bits
	0	0.013333	8.44967E-001	-9.83758E-005	0.00000E+000	-8.31244E-005	-5.99601E-002	8.45247E-001	3.57640E+000	9	...........
	1	0.026667	8.31811E-001	-9.90656E-005	0.00000E+000	-8.24039E-005	-5.99601E-002	8.32126E-001	3.57640E+000	9	...........
	2	0.04	8.19299E-001	-9.96115E-005	0.00000E+000	-8.16116E-005	-5.99601E-002	8.19580E-001	3.57640E+000	9	...........
	3	0.053333	8.07148E-001	-9.95000E-005	0.00000E+000	-8.03113E-005	-5.99601E-002	8.07413E-001	3.57640E+000	9	...........
	4	0.066667	7.95244E-001	-9.83456E-005	0.00000E+000	-7.82088E-005	-5.99601E-002	7.95520E-001	3.57640E+000	9	...........
	5	0.08	7.83544E-001	-9.93521E-005	0.00000E+000	-7.78467E-005	-5.99601E-002	7.83826E-001	3.57640E+000	9	...........
	6	0.093333	7.72016E-001	-9.85967E-005	0.00000E+000	-7.61182E-005	-5.99601E-002	7.72289E-001	3.57640E+000	9	...........
	7	0.106667	7.60603E-001	-9.90260E-005	0.00000E+000	-7.53194E-005	-5.99601E-002	7.60855E-001	3.57640E+000	9	...........
	8	0.12	7.49321E-001	-9.78372E-005	0.00000E+000	-7.33114E-005	-5.99601E-002	7.49571E-001	3.57640E+000	9	...........
	9	0.133333	7.38105E-001	-9.84415E-005	0.00000E+000	-7.26602E-005	-5.99601E-002	7.38354E-001	3.57640E+000	9	...........
	10	0.146667	7.27011E-001	-9.90322E-005	0.00000E+000	-7.19976E-005	-5.99601E-002	7.27261E-001	3.57640E+000	9	...........
	11	0.16	7.15991E-001	-9.90312E-005	0.00000E+000	-7.09054E-005	-5.99601E-002	7.16243E-001	3.57640E+000	9	...........
	12	0.173333	7.05037E-001	-9.83967E-005	0.00000E+000	-6.93733E-005	-5.99601E-002	7.05316E-001	3.57640E+000	9	...........
	13	0.186667	6.94191E-001	-9.89906E-005	0.00000E+000	-6.87183E-005	-5.99601E-002	6.94438E-001	3.57640E+000	9	...........
	14	0.2	6.83397E-001	-9.88499E-005	0.00000E+000	-6.75537E-005	-5.99601E-002	6.83659E-001	3.57640E+000	9	...........
	15	0.213333	6.72690E-001	-9.82289E-005	0.00000E+000	-6.60776E-005	-5.99601E-002	6.72957E-001	3.57640E+000	9	...........
	16	0.226667	6.61977E-001	-9.95011E-005	0.00000E+000	-6.58675E-005	-5.99601E-002	6.62248E-001	3.57640E+000	9	...........
	17	0.24	6.51307E-001	-9.93552E-005	0.00000E+000	-6.47108E-005	-5.99601E-002	6.51561E-001	3.57640E+000	9	...........
	18	0.253333	6.40579E-001	-9.89134E-005	0.00000E+000	-6.33619E-005	-5.99601E-002	6.40831E-001	3.57640E+000	9	...........
	19	0.266667	6.29764E-001	-9.87665E-005	0.00000E+000	-6.21996E-005	-5.99601E-002	6.30012E-001	3.57640E+000	9	...........
	20	0.28	6.18823E-001	-9.99532E-005	0.00000E+000	-6.18533E-005	-5.99601E-002	6.19054E-001	3.57640E+000	9	...........
	21	0.293333	6.07635E-001	-9.88947E-005	0.00000E+000	-6.00919E-005	-5.99601E-002	6.07915E-001	3.57640E+000	9	...........
	22	0.306667	5.96334E-001	-1.00319E-004	0.00000E+000	-5.98236E-005	-5.99601E-002	5.96588E-001	3.57640E+000	9	...........
	23	0.32	5.84781E-001	-9.90874E-005	0.00000E+000	-5.79445E-005	-5.99601E-002	5.85035E-001	3.57640E+000	9	...........
	24	0.333333	5.73053E-001	-9.83863E-005	0.00000E+000	-5.63806E-005	-5.99601E-002	5.73292E-001	3.57640E+000	9	...........
	25	0.346667	5.61086E-001	-1.00017E-004	0.00000E+000	-5.61181E-005	-5.99601E-002	5.61324E-001	3.57640E+000	9	...........
	26	0.36	5.48944E-001	-9.93208E-005	0.00000E+000	-5.45216E-005	-5.99601E-002	5.49182E-001	3.57640E+000	9	...........
	27	0.373333	5.36628E-001	-9.86238E-005	0.00000E+000	-5.29243E-005	-5.99601E-002	5.36860E-001	3.57640E+000	9	...........
	28	0.386667	5.24143E-001	-9.88259E-005	0.00000E+000	-5.17989E-005	-5.99601E-002	5.24365E-001	3.57640E+000	9	...........
	29	0.4	5.11528E-001	-9.91354E-005	0.00000E+000	-5.07105E-005	-5.99601E-002	5.11755E-001	3.57640E+000	9	...........
	30	0.413333	4.98770E-001	-9.78518E-005	0.00000E+000	-4.88055E-005	-5.99601E-002	4.99000E-001	3.57640E+000	9	...........
	31	0.426667	4.86009E-001	-9.87155E-005	0.00000E+000	-4.79766E-005	-5.99601E-002	4.86184E-001	3.57640E+000	9	...........
	32	0.44	4.73229E-001	-9.83498E-005	0.00000E+000	-4.65420E-005	-5.99601E-002	4.73329E-001	3.57640E+000	9	...........
	33	0.453333	4.60166E-001	-9.89708E-005	0.00000E+000	-4.55430E-005	-5.99601E-002	4.60261E-001	3.57640E+000	9	...........
	34	0.466667	4.47025E-001	-9.94000E-005	0.00000E+000	-4.44343E-005	-5.99601E-002	4.47124E-001	3.57640E+000	9	...........
	35	0.48	4.33820E-001	-9.91520E-005	0.00000E+000	-4.30141E-005	-5.99601E-002	4.33913E-001	3.57640E+000	9	...........
	36	0.493333	4.20576E-001	-9.84925E-005	0.00000E+000	-4.14236E-005	-5.99601E-002	4.20665E-001	3.57640E+000	9	...........
	37	0.506667	4.07292E-001	-9.65473E-005	0.00000E+000	-3.93229E-005	-5.99601E-002	4.07377E-001	3.57640E+000	9	...........
	38	0.52	3.93987E-001	-9.78111E-005	0.00000E+000	-3.85363E-005	-5.99601E-002	3.94062E-001	3.57640E+000	9	...........
	39	0.533333	3.80656E-001	-9.91802E-005	0.00000E+000	-3.77535E-005	-5.99601E-002	3.80733E-001	3.57640E+000	9	...........
	40	0.546667	3.67331E-001	-9.90760E-005	0.00000E+000	-3.63937E-005	-5.99601E-002	3.67408E-001	3.57640E+000	9	...........
	41	0.56	3.54026E-001	-9.90333E-005	0.00000E+000	-3.50604E-005	-5.99601E-002	3.54098E-001	3.57640E+000	9	...........
	42	0.573333	3.40738E-001	-9.72850E-005	0.00000E+000	-3.31487E-005	-5.99601E-002	3.40806E-001	3.57640E+000	9	...........
	43	0.586667	3.27484E-001	-9.82529E-005	0.00000E+000	-3.21762E-005	-5.99601E-002	3.27548E-001	3.57640E+000	9	...........
	44	0.6	3.14264E-001	-9.87395E-005	0.00000E+000	-3.10303E-005	-5.99601E-002	3.14332E-001	3.57640E+000	9	...........
	45	0.613333	3.01097E-001	-9.82602E-005	0.00000E+000	-2.95859E-005	-5.99601E-002	3.01158E-001	3.57640E+000	9	...........
	46	0.626667	2.87963E-001	-9.82758E-005	0.00000E+000	-2.82998E-005	-5.99601E-002	2.88027E-001	3.57640E+000	9	...........
	47	0.64	2.74903E-001	-9.92187E-005	0.00000E+000	-2.72755E-005	-5.99601E-002	2.74960E-001	3.57640E+000	9	...........
	48	0.653333	2.61888E-001	-9.84071E-005	0.00000E+000	-2.57717E-005	-5.99601E-002	2.61951E-001	3.57640E+000	9	...........
	49	0.666667	2.48957E-001	-9.81122E-005	0.00000E+000	-2.44258E-005	-5.99601E-002	2.49007E-001	3.57640E+000	9	...........
	50	0.68	2.36080E-001	-9.81560E-005	0.00000E+000	-2.31727E-005	-5.99601E-002	2.36129E-001	3.57640E+000	9	...........
	51	0.693333	2.23283E-001	-9.98991E-005	0.00000E+000	-2.23058E-005	-5.99601E-002	2.23334E-001	3.57640E+000	9	...........
	52	0.706667	2.10557E-001	-9.87165E-005	0.00000E+000	-2.07855E-005	-5.99601E-002	2.10599E-001	3.57640E+000	9	...........
	53	0.72	1.97892E-001	-9.85373E-005	0.00000E+000	-1.94997E-005	-5.99601E-002	1.97936E-001	3.57640E+000	9	...........
	54	0.733333	1.85296E-001	-9.94219E-005	0.00000E+000	-1.84225E-005	-5.99601E-002	1.85335E-001	3.57640E+000	9	...........
	55	0.746667	1.72766E-001	-9.89426E-005	0.00000E+000	-1.70939E-005	-5.99601E-002	1.72800E-001	3.57640E+000	9	...........
	56	0.76	1.60314E-001	-9.88530E-005	0.00000E+000	-1.58475E-005	-5.99601E-002	1.60341E-001	3.57640E+000	9	...........
	57	0.773333	1.47920E-001	-9.80737E-005	0.00000E+000	-1.45071E-005	-5.99601E-002	1.47946E-001	3.57640E+000	9	...........
	58	0.786667	1.35589E-001	-9.89530E-005	0.00000E+000	-1.34169E-005	-5.99601E-002	1.35610E-001	3.57640E+000	9	...........
	59	0.8	1.23340E-001	-9.96188E-005	0.00000E+000	-1.22870E-005	-5.99601E-002	1.23365E-001	3.57640E+000	9	...........
	60	0.813333	1.11161E-001	-9.80956E-005	0.00000E+000	-1.09044E-005	-5.99601E-002	1.11181E-001	3.57640E+000	9	...........
	61	0.826667	9.90740E-002	-9.88645E-005	0.00000E+000	-9.79490E-006	-5.99601E-002	9.90859E-002	3.57640E+000	9	...........
	62	0.84	8.70829E-002	-9.86446E-005	0.00000E+000	-8.59026E-006	-5.99601E-002	8.70982E-002	3.57640E+000	9	...........
	63	0.853333	7.51964E-002	-9.90885E-005	0.00000E+000	-7.45110E-006	-5.99601E-002	7.52044E-002	3.57640E+000	9	...........
	64	0.866667	6.34271E-002	-9.91791E-005	0.00000E+000	-6.29064E-006	-5.99601E-002	6.34328E-002	3.57640E+000	9	...........
	65	0.88	5.17918E-002	-9.81539E-005	0.00000E+000	-5.08357E-006	-5.99601E-002	5.17979E-002	3.57640E+000	9	...........
	66	0.893333	4.03100E-002	-9.93146E-005	0.00000E+000	-4.00337E-006	-5.99601E-002	4.03138E-002	3.57640E+000	9	...........
	67	0.906667	2.89465E-002	-9.85217E-005	0.00000E+000	-2.85186E-006	-5.99601E-002	2.89440E-002	3.57640E+000	9	...........
	68	0.92	1.77376E-002	-9.81206E-005	0.00000E+000	-1.74042E-006	-5.99601E-002	1.77289E-002	3.57640E+000	9	...........
	69	0.933333	6.69362E-003	-1.00324E-004	0.00000E+000	-6.71532E-007	-5.99601E-002	6.67694E-003	3.57640E+000	9	...........
	70	0.936667	-1.21568E-004	-9.75975E-005	0.00000E+000	1.18648E-008	-5.99601E-002	-1.44452E-004	3.57640E+000	9	...........
STARTTIMEOFFSET	QUANT	1366.501	Start Time Offset (s)
