EXPLAIN
TAG	PWR800_DISCHARGE
TITLE	LABEL	PWR Cyclic Charge Discharge (Cell) - Discharge Step	Test &Identifier
DATE	LABEL	12-7-2017	Date
TIME	LABEL	16:39:51	Time
NOTES	NOTES	2	&Notes...
	supercap test cell
	6M KOH
PSTAT	PSTAT	IFC5000-01520	Potentiostat
CAPACITY	QUANT	1.00000E-003	Capacity (A-hr)
CELLTYPE	SELECTOR	1	&Cell Type
WORKINGCONNECTION	SELECTOR	0	&Working Lead
MAXDISCHARGETIME	VARIABLEANDUNITS	1.00000E+002	s	1.00000E+002	second(s)	Max &Discharge Time
DISCHARGEMODE	MULTIPARAM	0	1.00000E-004	&Discharge Mode	Constant Current	Amp(s)
SAMPLETIME	QUANT	1.00000E-002	Sa&mple Period (s)
DISCHARGESTOPAT1	MULTIPARAM	3	0.00000E+000	Discharge Stop At &1	Voltage < Limit	V
DISCHARGESTOPAT2	MULTIPARAM	0	0.00000E+000	Discharge Stop At &2	None	N/A
AESBHCSELECTOR	TOGGLE	F	Save Both Half Cells
IRCOMP	TOGGLE	F	IR &Measure
EOC	QUANT	0	Open Circuit (V)
SEQUENCER	TOGGLE	TRUE	Run as Sequence
PSTATMODEL	IQUANT	53	Pstat Model
PSTATSECTION	LABEL	IFC5000-01520	Pstat Section
PSTATSERIALNO	LABEL	01520	Pstat Serial Number
CTRLMODE	IQUANT	0	Control Mode
ELECTROMETER	IQUANT	1	RE=0 or CS=1
IESTAB	IQUANT	0	I/E Stability
CASPEED	IQUANT	4	Control Amp Speed
CONVENTION	IQUANT	1	Current Convention
ICHRANGE	IQUANT	2	Ich Range
ICHRANGEMODE	TOGGLE	T	Ich Auto Range
ICHOFFSETENABLE	TOGGLE	F	Ich Offset Enable
ICHOFFSET	QUANT	0	Ich Offset (V)
ICHFILTER	IQUANT	1	Ich Filter
VCHRANGE	IQUANT	2	Vch Range
VCHRANGEMODE	TOGGLE	T	Vch Auto Range
VCHOFFSETENABLE	TOGGLE	F	Vch Offset Enable
VCHOFFSET	QUANT	0	Vch Offset (V)
VCHFILTER	IQUANT	1	Vch Filter
IERANGELOWERLIMIT	IQUANT	9	I/E Range Lower Limit
IERANGEMODE	TOGGLE	F	I/E AutoRange
IERANGE	IQUANT	9	I/E Range
ACHSELECT	IQUANT	1	Ach Select
ACHRANGE	IQUANT	2	Ach Range
ACHOFFSETENABLE	TOGGLE	F	Ach Offset Enable
ACHOFFSET	QUANT	0	Ach Offset (V)
ACHFILTER	IQUANT	1	Ach Filter
CABLEID	IQUANT	14	Cable ID
DCCALDATE	LABEL	5-7-2017	DC Calibration Date
ACCALDATE	LABEL	12/3/2015	AC Calibration Date
FRAMEWORKVERSION	QUANT	7.01	Framework Version
INSTRUMENTVERSION	LABEL	4.00	Instrument Version
CURVE	TABLE	71
	Pt	T	Vf	Im	Vu	Pwr	Sig	Ach	Temp	IERange	Over
	#	s	V	A	V	W	V	V	deg C	#	bits
	0	0.013333	8.44522E-001	-9.90687E-005	0.00000E+000	-8.36657E-005	-5.99601E-002	8.44823E-001	3.57650E+000	9	...........
	1	0.026667	8.31425E-001	-9.94542E-005	0.00000E+000	-8.26887E-005	-5.99601E-002	8.31732E-001	3.57650E+000	9	...........
	2	0.04	8.18920E-001	-9.95344E-005	0.00000E+000	-8.15108E-005	-5.99601E-002	8.19196E-001	3.57650E+000	9	...........
	3	0.053333	8.06797E-001	-9.78059E-005	0.00000E+000	-7.89096E-005	-5.99601E-002	8.07068E-001	3.57650E+000	9	...........
	4	0.066667	7.94925E-001	-9.80153E-005	0.00000E+000	-7.79149E-005	-5.99601E-002	7.95162E-001	3.57650E+000	9	...........
	5	0.08	7.83247E-001	-9.80581E-005	0.00000E+000	-7.68037E-005	-5.99601E-002	7.83479E-001	3.57650E+000	9	...........
	6	0.093333	7.71727E-001	-1.00145E-004	0.00000E+000	-7.72845E-005	-5.99601E-002	7.71980E-001	3.57650E+000	9	...........
	7	0.106667	7.60355E-001	-9.77674E-005	0.00000E+000	-7.43379E-005	-5.99601E-002	7.60571E-001	3.57650E+000	9	...........
	8	0.12	7.49083E-001	-9.79080E-005	0.00000E+000	-7.33413E-005	-5.99601E-002	7.49308E-001	3.57650E+000	9	...........
	9	0.133333	7.37903E-001	-9.83738E-005	0.00000E+000	-7.25903E-005	-5.99601E-002	7.38118E-001	3.57650E+000	9	...........
	10	0.146667	7.26823E-001	-9.82956E-005	0.00000E+000	-7.14435E-005	-5.99601E-002	7.27026E-001	3.57650E+000	9	...........
	11	0.16	7.15801E-001	-9.88968E-005	0.00000E+000	-7.07904E-005	-5.99601E-002	7.16036E-001	3.57650E+000	9	...........
	12	0.173333	7.04889E-001	-9.76476E-005	0.00000E+000	-6.88307E-005	-5.99601E-002	7.05105E-001	3.57650E+000	9	...........
	13	0.186667	6.94069E-001	-9.88197E-005	0.00000E+000	-6.85877E-005	-5.99601E-002	6.94302E-001	3.57650E+000	9	...........
	14	0.2	6.83284E-001	-9.92989E-005	0.00000E+000	-6.78494E-005	-5.99601E-002	6.83519E-001	3.57650E+000	9	...........
	15	0.213333	6.72588E-001	-9.77893E-005	0.00000E+000	-6.57718E-005	-5.99601E-002	6.72825E-001	3.57650E+000	9	...........
	16	0.226667	6.61890E-001	-9.82769E-005	0.00000E+000	-6.50485E-005	-5.99601E-002	6.62144E-001	3.57650E+000	9	...........
	17	0.24	6.51232E-001	-9.91635E-005	0.00000E+000	-6.45785E-005	-5.99601E-002	6.51481E-001	3.57650E+000	9	...........
	18	0.253333	6.40484E-001	-9.90103E-005	0.00000E+000	-6.34146E-005	-5.99601E-002	6.40737E-001	3.57650E+000	9	...........
	19	0.266667	6.29652E-001	-9.92708E-005	0.00000E+000	-6.25060E-005	-5.99601E-002	6.29883E-001	3.57650E+000	9	...........
	20	0.28	6.18684E-001	-9.85029E-005	0.00000E+000	-6.09422E-005	-5.99601E-002	6.18918E-001	3.57650E+000	9	...........
	21	0.293333	6.07471E-001	-9.95355E-005	0.00000E+000	-6.04649E-005	-5.99601E-002	6.07742E-001	3.57650E+000	9	...........
	22	0.306667	5.96156E-001	-9.98772E-005	0.00000E+000	-5.95423E-005	-5.99601E-002	5.96410E-001	3.57650E+000	9	...........
	23	0.32	5.84575E-001	-9.85946E-005	0.00000E+000	-5.76359E-005	-5.99601E-002	5.84811E-001	3.57650E+000	9	...........
	24	0.333333	5.72824E-001	-9.92844E-005	0.00000E+000	-5.68725E-005	-5.99601E-002	5.73048E-001	3.57650E+000	9	...........
	25	0.346667	5.60836E-001	-9.78768E-005	0.00000E+000	-5.48928E-005	-5.99601E-002	5.61061E-001	3.57650E+000	9	...........
	26	0.36	5.48659E-001	-9.88353E-005	0.00000E+000	-5.42269E-005	-5.99601E-002	5.48907E-001	3.57650E+000	9	...........
	27	0.373333	5.36353E-001	-9.78570E-005	0.00000E+000	-5.24859E-005	-5.99601E-002	5.36589E-001	3.57650E+000	9	...........
	28	0.386667	5.23885E-001	-9.87770E-005	0.00000E+000	-5.17478E-005	-5.99601E-002	5.24100E-001	3.57650E+000	9	...........
	29	0.4	5.11267E-001	-9.83039E-005	0.00000E+000	-5.02595E-005	-5.99601E-002	5.11478E-001	3.57650E+000	9	...........
	30	0.413333	4.98479E-001	-9.90656E-005	0.00000E+000	-4.93821E-005	-5.99601E-002	4.98744E-001	3.57650E+000	9	...........
	31	0.426667	4.85757E-001	-9.87697E-005	0.00000E+000	-4.79781E-005	-5.99601E-002	4.85947E-001	3.57650E+000	9	...........
	32	0.44	4.72998E-001	-9.89166E-005	0.00000E+000	-4.67873E-005	-5.99601E-002	4.73093E-001	3.57650E+000	9	...........
	33	0.453333	4.59944E-001	-9.96355E-005	0.00000E+000	-4.58267E-005	-5.99601E-002	4.60036E-001	3.57650E+000	9	...........
	34	0.466667	4.46832E-001	-9.76507E-005	0.00000E+000	-4.36334E-005	-5.99601E-002	4.46915E-001	3.57650E+000	9	...........
	35	0.48	4.33643E-001	-9.97595E-005	0.00000E+000	-4.32600E-005	-5.99601E-002	4.33735E-001	3.57650E+000	9	...........
	36	0.493333	4.20417E-001	-9.83383E-005	0.00000E+000	-4.13431E-005	-5.99601E-002	4.20506E-001	3.57650E+000	9	...........
	37	0.506667	4.07160E-001	-9.98887E-005	0.00000E+000	-4.06706E-005	-5.99601E-002	4.07239E-001	3.57650E+000	9	...........
	38	0.52	3.93877E-001	-9.97147E-005	0.00000E+000	-3.92753E-005	-5.99601E-002	3.93953E-001	3.57650E+000	9	...........
	39	0.533333	3.80581E-001	-9.91968E-005	0.00000E+000	-3.77524E-005	-5.99601E-002	3.80655E-001	3.57650E+000	9	...........
	40	0.546667	3.67291E-001	-9.79018E-005	0.00000E+000	-3.59585E-005	-5.99601E-002	3.67368E-001	3.57650E+000	9	...........
	41	0.56	3.54006E-001	-9.83279E-005	0.00000E+000	-3.48087E-005	-5.99601E-002	3.54080E-001	3.57650E+000	9	...........
	42	0.573333	3.40748E-001	-9.93406E-005	0.00000E+000	-3.38501E-005	-5.99601E-002	3.40819E-001	3.57650E+000	9	...........
	43	0.586667	3.27530E-001	-9.84352E-005	0.00000E+000	-3.22405E-005	-5.99601E-002	3.27599E-001	3.57650E+000	9	...........
	44	0.6	3.14352E-001	-9.73537E-005	0.00000E+000	-3.06033E-005	-5.99601E-002	3.14413E-001	3.57645E+000	9	...........
	45	0.613333	3.01212E-001	-9.91239E-005	0.00000E+000	-2.98574E-005	-5.99601E-002	3.01278E-001	3.57640E+000	9	...........
	46	0.626667	2.88124E-001	-9.94500E-005	0.00000E+000	-2.86540E-005	-5.99601E-002	2.88180E-001	3.57640E+000	9	...........
	47	0.64	2.75092E-001	-9.91927E-005	0.00000E+000	-2.72871E-005	-5.99601E-002	2.75148E-001	3.57640E+000	9	...........
	48	0.653333	2.62119E-001	-9.98157E-005	0.00000E+000	-2.61636E-005	-5.99601E-002	2.62170E-001	3.57640E+000	9	...........
	49	0.666667	2.49212E-001	-9.80799E-005	0.00000E+000	-2.44427E-005	-5.99601E-002	2.49264E-001	3.57640E+000	9	...........
	50	0.68	2.36376E-001	-9.99835E-005	0.00000E+000	-2.36337E-005	-5.99601E-002	2.36419E-001	3.57640E+000	9	...........
	51	0.693333	2.23604E-001	-9.88697E-005	0.00000E+000	-2.21076E-005	-5.99601E-002	2.23644E-001	3.57640E+000	9	...........
	52	0.706667	2.10899E-001	-9.77674E-005	0.00000E+000	-2.06191E-005	-5.99601E-002	2.10941E-001	3.57640E+000	9	...........
	53	0.72	1.98255E-001	-1.00204E-004	0.00000E+000	-1.98661E-005	-5.99601E-002	1.98292E-001	3.57640E+000	9	...........
	54	0.733333	1.85688E-001	-9.80414E-005	0.00000E+000	-1.82051E-005	-5.99601E-002	1.85725E-001	3.57640E+000	9	...........
	55	0.746667	1.73185E-001	-9.79268E-005	0.00000E+000	-1.69595E-005	-5.99601E-002	1.73217E-001	3.57640E+000	9	...........
	56	0.76	1.60742E-001	-9.90656E-005	0.00000E+000	-1.59240E-005	-5.99601E-002	1.60774E-001	3.57640E+000	9	...........
	57	0.773333	1.48366E-001	-9.80924E-005	0.00000E+000	-1.45536E-005	-5.99601E-002	1.48397E-001	3.57640E+000	9	...........
	58	0.786667	1.36056E-001	-9.89395E-005	0.00000E+000	-1.34613E-005	-5.99601E-002	1.36082E-001	3.57640E+000	9	...........
	59	0.8	1.23814E-001	-9.88676E-005	0.00000E+000	-1.22412E-005	-5.99601E-002	1.23840E-001	3.57640E+000	9	...........
	60	0.813333	1.11652E-001	-9.85144E-005	0.00000E+000	-1.09993E-005	-5.99601E-002	1.11673E-001	3.57640E+000	9	...........
	61	0.826667	9.95751E-002	-9.87259E-005	0.00000E+000	-9.83064E-006	-5.99601E-002	9.95900E-002	3.57640E+000	9	...........
	62	0.84	8.75833E-002	-9.87009E-005	0.00000E+000	-8.64456E-006	-5.99601E-002	8.76050E-002	3.57640E+000	9	...........
	63	0.853333	7.57012E-002	-9.94969E-005	0.00000E+000	-7.53204E-006	-5.99601E-002	7.57093E-002	3.57640E+000	9	...........
	64	0.866667	6.39295E-002	-9.89291E-005	0.00000E+000	-6.32449E-006	-5.99601E-002	6.39391E-002	3.57640E+000	9	...........
	65	0.88	5.22883E-002	-9.97615E-005	0.00000E+000	-5.21636E-006	-5.99601E-002	5.22902E-002	3.57640E+000	9	...........
	66	0.893333	4.08087E-002	-1.00422E-004	0.00000E+000	-4.09809E-006	-5.99601E-002	4.08137E-002	3.57640E+000	9	...........
	67	0.906667	2.94406E-002	-9.85842E-005	0.00000E+000	-2.90238E-006	-5.99601E-002	2.94371E-002	3.57640E+000	9	...........
	68	0.92	1.82253E-002	-9.81591E-005	0.00000E+000	-1.78898E-006	-5.99601E-002	1.82191E-002	3.57640E+000	9	...........
	69	0.933333	7.17576E-003	-9.88343E-005	0.00000E+000	-7.09211E-007	-5.99601E-002	7.15840E-003	3.57640E+000	9	...........
	70	0.936667	3.48249E-004	-9.74225E-005	0.00000E+000	-3.39273E-008	-5.99601E-002	3.26264E-004	3.57640E+000	9	...........
STARTTIMEOFFSET	QUANT	1271.706	Start Time Offset (s)
