EXPLAIN
TAG	PWR800_DISCHARGE
TITLE	LABEL	PWR Cyclic Charge Discharge (Cell) - Discharge Step	Test &Identifier
DATE	LABEL	12-7-2017	Date
TIME	LABEL	16:14:21	Time
NOTES	NOTES	2	&Notes...
	supercap test cell
	6M KOH
PSTAT	PSTAT	IFC5000-01520	Potentiostat
CAPACITY	QUANT	1.00000E-003	Capacity (A-hr)
CELLTYPE	SELECTOR	1	&Cell Type
WORKINGCONNECTION	SELECTOR	0	&Working Lead
MAXDISCHARGETIME	VARIABLEANDUNITS	1.00000E+002	s	1.00000E+002	second(s)	Max &Discharge Time
DISCHARGEMODE	MULTIPARAM	0	1.00000E-004	&Discharge Mode	Constant Current	Amp(s)
SAMPLETIME	QUANT	1.00000E-002	Sa&mple Period (s)
DISCHARGESTOPAT1	MULTIPARAM	3	0.00000E+000	Discharge Stop At &1	Voltage < Limit	V
DISCHARGESTOPAT2	MULTIPARAM	0	0.00000E+000	Discharge Stop At &2	None	N/A
AESBHCSELECTOR	TOGGLE	F	Save Both Half Cells
IRCOMP	TOGGLE	F	IR &Measure
EOC	QUANT	0	Open Circuit (V)
SEQUENCER	TOGGLE	TRUE	Run as Sequence
PSTATMODEL	IQUANT	53	Pstat Model
PSTATSECTION	LABEL	IFC5000-01520	Pstat Section
PSTATSERIALNO	LABEL	01520	Pstat Serial Number
CTRLMODE	IQUANT	0	Control Mode
ELECTROMETER	IQUANT	1	RE=0 or CS=1
IESTAB	IQUANT	0	I/E Stability
CASPEED	IQUANT	4	Control Amp Speed
CONVENTION	IQUANT	1	Current Convention
ICHRANGE	IQUANT	2	Ich Range
ICHRANGEMODE	TOGGLE	T	Ich Auto Range
ICHOFFSETENABLE	TOGGLE	F	Ich Offset Enable
ICHOFFSET	QUANT	0	Ich Offset (V)
ICHFILTER	IQUANT	1	Ich Filter
VCHRANGE	IQUANT	2	Vch Range
VCHRANGEMODE	TOGGLE	T	Vch Auto Range
VCHOFFSETENABLE	TOGGLE	F	Vch Offset Enable
VCHOFFSET	QUANT	0	Vch Offset (V)
VCHFILTER	IQUANT	1	Vch Filter
IERANGELOWERLIMIT	IQUANT	9	I/E Range Lower Limit
IERANGEMODE	TOGGLE	F	I/E AutoRange
IERANGE	IQUANT	9	I/E Range
ACHSELECT	IQUANT	1	Ach Select
ACHRANGE	IQUANT	2	Ach Range
ACHOFFSETENABLE	TOGGLE	F	Ach Offset Enable
ACHOFFSET	QUANT	0	Ach Offset (V)
ACHFILTER	IQUANT	1	Ach Filter
CABLEID	IQUANT	14	Cable ID
DCCALDATE	LABEL	5-7-2017	DC Calibration Date
ACCALDATE	LABEL	12/3/2015	AC Calibration Date
FRAMEWORKVERSION	QUANT	7.01	Framework Version
INSTRUMENTVERSION	LABEL	4.00	Instrument Version
CURVE	TABLE	72
	Pt	T	Vf	Im	Vu	Pwr	Sig	Ach	Temp	IERange	Over
	#	s	V	A	V	W	V	V	deg C	#	bits
	0	0.013333	8.39907E-001	-9.85207E-005	0.00000E+000	-8.27482E-005	-5.99601E-002	8.40218E-001	3.58050E+000	9	...........
	1	0.026667	8.26893E-001	-9.84290E-005	0.00000E+000	-8.13903E-005	-5.99601E-002	8.27208E-001	3.58050E+000	9	...........
	2	0.04	8.14465E-001	-9.89187E-005	0.00000E+000	-8.05658E-005	-5.99601E-002	8.14748E-001	3.58050E+000	9	...........
	3	0.053333	8.02436E-001	-9.95792E-005	0.00000E+000	-7.99059E-005	-5.99601E-002	8.02701E-001	3.58050E+000	9	...........
	4	0.066667	7.90639E-001	-9.95511E-005	0.00000E+000	-7.87089E-005	-5.99601E-002	7.90906E-001	3.58050E+000	9	...........
	5	0.08	7.79054E-001	-9.84436E-005	0.00000E+000	-7.66929E-005	-5.99601E-002	7.79325E-001	3.58050E+000	9	...........
	6	0.093333	7.67585E-001	-9.91270E-005	0.00000E+000	-7.60884E-005	-5.99601E-002	7.67862E-001	3.58050E+000	9	...........
	7	0.106667	7.56257E-001	-9.89906E-005	0.00000E+000	-7.48623E-005	-5.99601E-002	7.56520E-001	3.58050E+000	9	...........
	8	0.12	7.44976E-001	-9.93823E-005	0.00000E+000	-7.40374E-005	-5.99601E-002	7.45251E-001	3.58050E+000	9	...........
	9	0.133333	7.33705E-001	-9.83738E-005	0.00000E+000	-7.21773E-005	-5.99601E-002	7.33964E-001	3.58050E+000	9	...........
	10	0.146667	7.22423E-001	-9.82508E-005	0.00000E+000	-7.09787E-005	-5.99601E-002	7.22684E-001	3.58050E+000	9	...........
	11	0.16	7.11022E-001	-9.80779E-005	0.00000E+000	-6.97355E-005	-5.99601E-002	7.11305E-001	3.58050E+000	9	...........
	12	0.173333	6.99586E-001	-9.84363E-005	0.00000E+000	-6.88647E-005	-5.99601E-002	6.99855E-001	3.57844E+000	9	...........
	13	0.186667	6.88028E-001	-9.89416E-005	0.00000E+000	-6.80746E-005	-5.99601E-002	6.88305E-001	3.57720E+000	9	...........
	14	0.2	6.76406E-001	-9.86498E-005	0.00000E+000	-6.67274E-005	-5.99601E-002	6.76684E-001	3.57720E+000	9	...........
	15	0.213333	6.64685E-001	-9.89020E-005	0.00000E+000	-6.57386E-005	-5.99601E-002	6.64930E-001	3.57720E+000	9	...........
	16	0.226667	6.52855E-001	-9.77549E-005	0.00000E+000	-6.38198E-005	-5.99601E-002	6.53121E-001	3.57720E+000	9	...........
	17	0.24	6.40971E-001	-9.91958E-005	0.00000E+000	-6.35816E-005	-5.99601E-002	6.41224E-001	3.57720E+000	9	...........
	18	0.253333	6.29040E-001	-9.85029E-005	0.00000E+000	-6.19623E-005	-5.99601E-002	6.29271E-001	3.57720E+000	9	...........
	19	0.266667	6.17043E-001	-9.93156E-005	0.00000E+000	-6.12820E-005	-5.99601E-002	6.17283E-001	3.57720E+000	9	...........
	20	0.28	6.04919E-001	-9.96990E-005	0.00000E+000	-6.03098E-005	-5.99601E-002	6.05206E-001	3.57720E+000	9	...........
	21	0.293333	5.92873E-001	-9.87957E-005	0.00000E+000	-5.85733E-005	-5.99601E-002	5.93133E-001	3.57720E+000	9	...........
	22	0.306667	5.80741E-001	-9.87822E-005	0.00000E+000	-5.73669E-005	-5.99601E-002	5.80977E-001	3.57720E+000	9	...........
	23	0.32	5.68618E-001	-9.87238E-005	0.00000E+000	-5.61361E-005	-5.99601E-002	5.68818E-001	3.57720E+000	9	...........
	24	0.333333	5.56422E-001	-9.87905E-005	0.00000E+000	-5.49692E-005	-5.99601E-002	5.56680E-001	3.57720E+000	9	...........
	25	0.346667	5.44280E-001	-9.85123E-005	0.00000E+000	-5.36183E-005	-5.99601E-002	5.44532E-001	3.57720E+000	9	...........
	26	0.36	5.32121E-001	-9.83852E-005	0.00000E+000	-5.23528E-005	-5.99601E-002	5.32381E-001	3.57720E+000	9	...........
	27	0.373333	5.20001E-001	-9.81935E-005	0.00000E+000	-5.10607E-005	-5.99601E-002	5.20249E-001	3.57720E+000	9	...........
	28	0.386667	5.07859E-001	-9.95615E-005	0.00000E+000	-5.05632E-005	-5.99601E-002	5.08100E-001	3.57720E+000	9	...........
	29	0.4	4.95727E-001	-9.88353E-005	0.00000E+000	-4.89953E-005	-5.99601E-002	4.95988E-001	3.57720E+000	9	...........
	30	0.413333	4.83826E-001	-9.84425E-005	0.00000E+000	-4.76291E-005	-5.99601E-002	4.84015E-001	3.57720E+000	9	...........
	31	0.426667	4.71948E-001	-9.86363E-005	0.00000E+000	-4.65512E-005	-5.99601E-002	4.72048E-001	3.57720E+000	9	...........
	32	0.44	4.59906E-001	-9.88061E-005	0.00000E+000	-4.54415E-005	-5.99601E-002	4.60010E-001	3.57720E+000	9	...........
	33	0.453333	4.47893E-001	-9.91614E-005	0.00000E+000	-4.44138E-005	-5.99601E-002	4.47995E-001	3.57720E+000	9	...........
	34	0.466667	4.35915E-001	-9.91041E-005	0.00000E+000	-4.32010E-005	-5.99601E-002	4.36010E-001	3.57720E+000	9	...........
	35	0.48	4.23956E-001	-9.91968E-005	0.00000E+000	-4.20551E-005	-5.99601E-002	4.24052E-001	3.57720E+000	9	...........
	36	0.493333	4.12019E-001	-9.85998E-005	0.00000E+000	-4.06250E-005	-5.99601E-002	4.12107E-001	3.57720E+000	9	...........
	37	0.506667	4.00118E-001	-9.85842E-005	0.00000E+000	-3.94453E-005	-5.99601E-002	4.00201E-001	3.57720E+000	9	...........
	38	0.52	3.88232E-001	-9.90093E-005	0.00000E+000	-3.84386E-005	-5.99601E-002	3.88311E-001	3.57720E+000	9	...........
	39	0.533333	3.76366E-001	-9.90468E-005	0.00000E+000	-3.72778E-005	-5.99601E-002	3.76439E-001	3.57720E+000	9	...........
	40	0.546667	3.64514E-001	-9.79914E-005	0.00000E+000	-3.57193E-005	-5.99601E-002	3.64592E-001	3.57720E+000	9	...........
	41	0.56	3.52666E-001	-9.86467E-005	0.00000E+000	-3.47893E-005	-5.99601E-002	3.52736E-001	3.57720E+000	9	...........
	42	0.573333	3.40823E-001	-9.82310E-005	0.00000E+000	-3.34794E-005	-5.99601E-002	3.40893E-001	3.57720E+000	9	...........
	43	0.586667	3.28982E-001	-9.90999E-005	0.00000E+000	-3.26021E-005	-5.99601E-002	3.29051E-001	3.57720E+000	9	...........
	44	0.6	3.17137E-001	-9.91302E-005	0.00000E+000	-3.14379E-005	-5.99601E-002	3.17208E-001	3.57720E+000	9	...........
	45	0.613333	3.05284E-001	-9.78330E-005	0.00000E+000	-2.98669E-005	-5.99601E-002	3.05345E-001	3.57720E+000	9	...........
	46	0.626667	2.93410E-001	-9.92844E-005	0.00000E+000	-2.91310E-005	-5.99601E-002	2.93476E-001	3.57720E+000	9	...........
	47	0.64	2.81529E-001	-9.91468E-005	0.00000E+000	-2.79127E-005	-5.99601E-002	2.81589E-001	3.57720E+000	9	...........
	48	0.653333	2.69630E-001	-9.85061E-005	0.00000E+000	-2.65602E-005	-5.99601E-002	2.69690E-001	3.57720E+000	9	...........
	49	0.666667	2.57720E-001	-9.87436E-005	0.00000E+000	-2.54482E-005	-5.99601E-002	2.57775E-001	3.57720E+000	9	...........
	50	0.68	2.45804E-001	-9.92958E-005	0.00000E+000	-2.44073E-005	-5.99601E-002	2.45856E-001	3.57720E+000	9	...........
	51	0.693333	2.33882E-001	-9.87155E-005	0.00000E+000	-2.30878E-005	-5.99601E-002	2.33931E-001	3.57720E+000	9	...........
	52	0.706667	2.21938E-001	-9.83988E-005	0.00000E+000	-2.18384E-005	-5.99601E-002	2.21985E-001	3.57720E+000	9	...........
	53	0.72	2.10003E-001	-9.92260E-005	0.00000E+000	-2.08378E-005	-5.99601E-002	2.10044E-001	3.57720E+000	9	...........
	54	0.733333	1.98072E-001	-9.86061E-005	0.00000E+000	-1.95311E-005	-5.99601E-002	1.98109E-001	3.57720E+000	9	...........
	55	0.746667	1.86136E-001	-9.92625E-005	0.00000E+000	-1.84763E-005	-5.99601E-002	1.86171E-001	3.57720E+000	9	...........
	56	0.76	1.74200E-001	-9.89635E-005	0.00000E+000	-1.72394E-005	-5.99601E-002	1.74233E-001	3.57720E+000	9	...........
	57	0.773333	1.62287E-001	-9.89572E-005	0.00000E+000	-1.60595E-005	-5.99601E-002	1.62319E-001	3.57720E+000	9	...........
	58	0.786667	1.50393E-001	-9.84863E-005	0.00000E+000	-1.48116E-005	-5.99601E-002	1.50419E-001	3.57720E+000	9	...........
	59	0.8	1.38500E-001	-9.86186E-005	0.00000E+000	-1.36586E-005	-5.99601E-002	1.38531E-001	3.57720E+000	9	...........
	60	0.813333	1.26648E-001	-9.96949E-005	0.00000E+000	-1.26261E-005	-5.99601E-002	1.26672E-001	3.57720E+000	9	...........
	61	0.826667	1.14835E-001	-9.89343E-005	0.00000E+000	-1.13611E-005	-5.99601E-002	1.14856E-001	3.57720E+000	9	...........
	62	0.84	1.03065E-001	-9.92302E-005	0.00000E+000	-1.02272E-005	-5.99601E-002	1.03085E-001	3.57720E+000	9	...........
	63	0.853333	9.13578E-002	-9.97053E-005	0.00000E+000	-9.10885E-006	-5.99601E-002	9.13746E-002	3.57720E+000	9	...........
	64	0.866667	7.97195E-002	-9.93125E-005	0.00000E+000	-7.91715E-006	-5.99601E-002	7.97297E-002	3.57720E+000	9	...........
	65	0.88	6.81648E-002	-9.88926E-005	0.00000E+000	-6.74099E-006	-5.99601E-002	6.81699E-002	3.57720E+000	9	...........
	66	0.893333	5.66896E-002	-9.82227E-005	0.00000E+000	-5.56821E-006	-5.99601E-002	5.66941E-002	3.57720E+000	9	...........
	67	0.906667	4.53415E-002	-9.75392E-005	0.00000E+000	-4.42257E-006	-5.99601E-002	4.53423E-002	3.57720E+000	9	...........
	68	0.92	3.40980E-002	-9.94823E-005	0.00000E+000	-3.39215E-006	-5.99601E-002	3.40928E-002	3.57720E+000	9	...........
	69	0.933333	2.29739E-002	-9.89874E-005	0.00000E+000	-2.27412E-006	-5.99601E-002	2.29697E-002	3.57720E+000	9	...........
	70	0.946667	1.19901E-002	-9.83894E-005	0.00000E+000	-1.17970E-006	-5.99601E-002	1.19769E-002	3.57720E+000	9	...........
	71	0.95667	2.49985E-003	-9.84769E-005	0.00000E+000	-2.46178E-007	-5.99601E-002	2.47979E-003	3.57720E+000	9	...........
STARTTIMEOFFSET	QUANT	183.1267	Start Time Offset (s)
