EXPLAIN
TAG	PWR800_DISCHARGE
TITLE	LABEL	PWR Cyclic Charge Discharge (Cell) - Discharge Step	Test &Identifier
DATE	LABEL	12-7-2017	Date
TIME	LABEL	16:12:21	Time
NOTES	NOTES	2	&Notes...
	supercap test cell
	6M KOH
PSTAT	PSTAT	IFC5000-01520	Potentiostat
CAPACITY	QUANT	1.00000E-003	Capacity (A-hr)
CELLTYPE	SELECTOR	1	&Cell Type
WORKINGCONNECTION	SELECTOR	0	&Working Lead
MAXDISCHARGETIME	VARIABLEANDUNITS	1.00000E+002	s	1.00000E+002	second(s)	Max &Discharge Time
DISCHARGEMODE	MULTIPARAM	0	1.00000E-004	&Discharge Mode	Constant Current	Amp(s)
SAMPLETIME	QUANT	1.00000E-002	Sa&mple Period (s)
DISCHARGESTOPAT1	MULTIPARAM	3	0.00000E+000	Discharge Stop At &1	Voltage < Limit	V
DISCHARGESTOPAT2	MULTIPARAM	0	0.00000E+000	Discharge Stop At &2	None	N/A
AESBHCSELECTOR	TOGGLE	F	Save Both Half Cells
IRCOMP	TOGGLE	F	IR &Measure
EOC	QUANT	0	Open Circuit (V)
SEQUENCER	TOGGLE	TRUE	Run as Sequence
PSTATMODEL	IQUANT	53	Pstat Model
PSTATSECTION	LABEL	IFC5000-01520	Pstat Section
PSTATSERIALNO	LABEL	01520	Pstat Serial Number
CTRLMODE	IQUANT	0	Control Mode
ELECTROMETER	IQUANT	1	RE=0 or CS=1
IESTAB	IQUANT	0	I/E Stability
CASPEED	IQUANT	4	Control Amp Speed
CONVENTION	IQUANT	1	Current Convention
ICHRANGE	IQUANT	2	Ich Range
ICHRANGEMODE	TOGGLE	T	Ich Auto Range
ICHOFFSETENABLE	TOGGLE	F	Ich Offset Enable
ICHOFFSET	QUANT	0	Ich Offset (V)
ICHFILTER	IQUANT	1	Ich Filter
VCHRANGE	IQUANT	2	Vch Range
VCHRANGEMODE	TOGGLE	T	Vch Auto Range
VCHOFFSETENABLE	TOGGLE	F	Vch Offset Enable
VCHOFFSET	QUANT	0	Vch Offset (V)
VCHFILTER	IQUANT	1	Vch Filter
IERANGELOWERLIMIT	IQUANT	9	I/E Range Lower Limit
IERANGEMODE	TOGGLE	F	I/E AutoRange
IERANGE	IQUANT	9	I/E Range
ACHSELECT	IQUANT	1	Ach Select
ACHRANGE	IQUANT	2	Ach Range
ACHOFFSETENABLE	TOGGLE	F	Ach Offset Enable
ACHOFFSET	QUANT	0	Ach Offset (V)
ACHFILTER	IQUANT	1	Ach Filter
CABLEID	IQUANT	14	Cable ID
DCCALDATE	LABEL	5-7-2017	DC Calibration Date
ACCALDATE	LABEL	12/3/2015	AC Calibration Date
FRAMEWORKVERSION	QUANT	7.01	Framework Version
INSTRUMENTVERSION	LABEL	4.00	Instrument Version
CURVE	TABLE	73
	Pt	T	Vf	Im	Vu	Pwr	Sig	Ach	Temp	IERange	Over
	#	s	V	A	V	W	V	V	deg C	#	bits
	0	0.013333	8.38966E-001	-9.88822E-005	0.00000E+000	-8.29588E-005	-5.99601E-002	8.39292E-001	3.57720E+000	9	...........
	1	0.026667	8.25829E-001	-9.88113E-005	0.00000E+000	-8.16013E-005	-5.99601E-002	8.26138E-001	3.57720E+000	9	...........
	2	0.04	8.13227E-001	-9.91510E-005	0.00000E+000	-8.06323E-005	-5.99601E-002	8.13543E-001	3.57720E+000	9	...........
	3	0.053333	8.01039E-001	-9.86509E-005	0.00000E+000	-7.90232E-005	-5.99601E-002	8.01313E-001	3.57720E+000	9	...........
	4	0.066667	7.89027E-001	-9.81779E-005	0.00000E+000	-7.74650E-005	-5.99601E-002	7.89325E-001	3.57720E+000	9	...........
	5	0.08	7.77224E-001	-9.91916E-005	0.00000E+000	-7.70941E-005	-5.99601E-002	7.77521E-001	3.57720E+000	9	...........
	6	0.093333	7.65496E-001	-9.94406E-005	0.00000E+000	-7.61214E-005	-5.99601E-002	7.65772E-001	3.57720E+000	9	...........
	7	0.106667	7.53823E-001	-9.87061E-005	0.00000E+000	-7.44069E-005	-5.99601E-002	7.54100E-001	3.57720E+000	9	...........
	8	0.12	7.42176E-001	-9.88739E-005	0.00000E+000	-7.33818E-005	-5.99601E-002	7.42459E-001	3.57720E+000	9	...........
	9	0.133333	7.30489E-001	-9.89187E-005	0.00000E+000	-7.22590E-005	-5.99601E-002	7.30749E-001	3.57720E+000	9	...........
	10	0.146667	7.18772E-001	-9.83185E-005	0.00000E+000	-7.06686E-005	-5.99601E-002	7.19013E-001	3.57720E+000	9	...........
	11	0.16	7.06993E-001	-9.92958E-005	0.00000E+000	-7.02014E-005	-5.99601E-002	7.07233E-001	3.57720E+000	9	...........
	12	0.173333	6.95183E-001	-9.78841E-005	0.00000E+000	-6.80474E-005	-5.99601E-002	6.95429E-001	3.57720E+000	9	...........
	13	0.186667	6.83325E-001	-9.89114E-005	0.00000E+000	-6.75886E-005	-5.99601E-002	6.83565E-001	3.57720E+000	9	...........
	14	0.2	6.71471E-001	-9.84998E-005	0.00000E+000	-6.61398E-005	-5.99601E-002	6.71672E-001	3.57720E+000	9	...........
	15	0.213333	6.59540E-001	-9.86311E-005	0.00000E+000	-6.50512E-005	-5.99601E-002	6.59747E-001	3.57720E+000	9	...........
	16	0.226667	6.47591E-001	-9.88905E-005	0.00000E+000	-6.40406E-005	-5.99601E-002	6.47816E-001	3.57720E+000	9	...........
	17	0.24	6.35655E-001	-9.78976E-005	0.00000E+000	-6.22291E-005	-5.99601E-002	6.35848E-001	3.57720E+000	9	...........
	18	0.253333	6.23701E-001	-9.90447E-005	0.00000E+000	-6.17743E-005	-5.99601E-002	6.23894E-001	3.57720E+000	9	...........
	19	0.266667	6.11713E-001	-9.89416E-005	0.00000E+000	-6.05238E-005	-5.99601E-002	6.11942E-001	3.57720E+000	9	...........
	20	0.28	5.99752E-001	-9.86321E-005	0.00000E+000	-5.91548E-005	-5.99601E-002	5.99983E-001	3.57720E+000	9	...........
	21	0.293333	5.87816E-001	-9.93021E-005	0.00000E+000	-5.83714E-005	-5.99601E-002	5.88053E-001	3.57720E+000	9	...........
	22	0.306667	5.75894E-001	-9.85613E-005	0.00000E+000	-5.67609E-005	-5.99601E-002	5.76135E-001	3.57720E+000	9	...........
	23	0.32	5.64002E-001	-9.87780E-005	0.00000E+000	-5.57110E-005	-5.99601E-002	5.64229E-001	3.57720E+000	9	...........
	24	0.333333	5.52114E-001	-9.90812E-005	0.00000E+000	-5.47041E-005	-5.99601E-002	5.52339E-001	3.57720E+000	9	...........
	25	0.346667	5.40286E-001	-9.90385E-005	0.00000E+000	-5.35091E-005	-5.99601E-002	5.40477E-001	3.57720E+000	9	...........
	26	0.36	5.28459E-001	-9.81998E-005	0.00000E+000	-5.18946E-005	-5.99601E-002	5.28641E-001	3.57720E+000	9	...........
	27	0.373333	5.16706E-001	-9.89093E-005	0.00000E+000	-5.11070E-005	-5.99601E-002	5.16885E-001	3.57720E+000	9	...........
	28	0.386667	5.04908E-001	-9.83946E-005	0.00000E+000	-4.96802E-005	-5.99601E-002	5.05148E-001	3.57720E+000	9	...........
	29	0.4	4.93275E-001	-9.88916E-005	0.00000E+000	-4.87807E-005	-5.99601E-002	4.93488E-001	3.57720E+000	9	...........
	30	0.413333	4.81861E-001	-9.86894E-005	0.00000E+000	-4.75546E-005	-5.99601E-002	4.81974E-001	3.57720E+000	9	...........
	31	0.426667	4.70344E-001	-9.91458E-005	0.00000E+000	-4.66327E-005	-5.99601E-002	4.70448E-001	3.57720E+000	9	...........
	32	0.44	4.58778E-001	-9.85030E-005	0.00000E+000	-4.51910E-005	-5.99601E-002	4.58875E-001	3.57720E+000	9	...........
	33	0.453333	4.47239E-001	-9.90031E-005	0.00000E+000	-4.42781E-005	-5.99601E-002	4.47340E-001	3.57720E+000	9	...........
	34	0.466667	4.35741E-001	-9.87145E-005	0.00000E+000	-4.30139E-005	-5.99601E-002	4.35836E-001	3.57720E+000	9	...........
	35	0.48	4.24256E-001	-9.88270E-005	0.00000E+000	-4.19280E-005	-5.99601E-002	4.24349E-001	3.57720E+000	9	...........
	36	0.493333	4.12805E-001	-9.90374E-005	0.00000E+000	-4.08831E-005	-5.99601E-002	4.12895E-001	3.57720E+000	9	...........
	37	0.506667	4.01361E-001	-9.90531E-005	0.00000E+000	-3.97561E-005	-5.99601E-002	4.01444E-001	3.57720E+000	9	...........
	38	0.52	3.89927E-001	-9.85102E-005	0.00000E+000	-3.84118E-005	-5.99601E-002	3.90008E-001	3.57720E+000	9	...........
	39	0.533333	3.78498E-001	-9.87884E-005	0.00000E+000	-3.73912E-005	-5.99601E-002	3.78574E-001	3.57720E+000	9	...........
	40	0.546667	3.67064E-001	-9.82675E-005	0.00000E+000	-3.60705E-005	-5.99601E-002	3.67141E-001	3.57720E+000	9	...........
	41	0.56	3.55623E-001	-9.87707E-005	0.00000E+000	-3.51252E-005	-5.99601E-002	3.55699E-001	3.57720E+000	9	...........
	42	0.573333	3.44172E-001	-9.92760E-005	0.00000E+000	-3.41680E-005	-5.99601E-002	3.44244E-001	3.57720E+000	9	...........
	43	0.586667	3.32694E-001	-9.89218E-005	0.00000E+000	-3.29107E-005	-5.99601E-002	3.32764E-001	3.57720E+000	9	...........
	44	0.6	3.21214E-001	-9.79778E-005	0.00000E+000	-3.14718E-005	-5.99601E-002	3.21284E-001	3.57720E+000	9	...........
	45	0.613333	3.09705E-001	-9.84644E-005	0.00000E+000	-3.04949E-005	-5.99601E-002	3.09771E-001	3.57720E+000	9	...........
	46	0.626667	2.98173E-001	-9.82071E-005	0.00000E+000	-2.92826E-005	-5.99601E-002	2.98237E-001	3.57720E+000	9	...........
	47	0.64	2.86619E-001	-9.89572E-005	0.00000E+000	-2.83630E-005	-5.99601E-002	2.86675E-001	3.57720E+000	9	...........
	48	0.653333	2.75044E-001	-9.90156E-005	0.00000E+000	-2.72337E-005	-5.99601E-002	2.75102E-001	3.57720E+000	9	...........
	49	0.666667	2.63452E-001	-9.86426E-005	0.00000E+000	-2.59876E-005	-5.99601E-002	2.63510E-001	3.57720E+000	9	...........
	50	0.68	2.51843E-001	-9.92989E-005	0.00000E+000	-2.50077E-005	-5.99601E-002	2.51893E-001	3.57720E+000	9	...........
	51	0.693333	2.40222E-001	-9.77861E-005	0.00000E+000	-2.34904E-005	-5.99601E-002	2.40270E-001	3.57720E+000	9	...........
	52	0.706667	2.28589E-001	-9.87738E-005	0.00000E+000	-2.25786E-005	-5.99601E-002	2.28630E-001	3.57720E+000	9	...........
	53	0.72	2.16940E-001	-9.83769E-005	0.00000E+000	-2.13419E-005	-5.99601E-002	2.16981E-001	3.57720E+000	9	...........
	54	0.733333	2.05280E-001	-9.84456E-005	0.00000E+000	-2.02089E-005	-5.99601E-002	2.05324E-001	3.57720E+000	9	...........
	55	0.746667	1.93616E-001	-9.85644E-005	0.00000E+000	-1.90836E-005	-5.99601E-002	1.93655E-001	3.57720E+000	9	...........
	56	0.76	1.81954E-001	-9.90301E-005	0.00000E+000	-1.80189E-005	-5.99601E-002	1.81993E-001	3.57720E+000	9	...........
	57	0.773333	1.70291E-001	-9.91093E-005	0.00000E+000	-1.68775E-005	-5.99601E-002	1.70321E-001	3.57733E+000	9	...........
	58	0.786667	1.58648E-001	-9.92250E-005	0.00000E+000	-1.57418E-005	-5.99601E-002	1.58680E-001	3.57870E+000	9	...........
	59	0.8	1.47023E-001	-9.85613E-005	0.00000E+000	-1.44908E-005	-5.99601E-002	1.47051E-001	3.57870E+000	9	...........
	60	0.813333	1.35425E-001	-9.90697E-005	0.00000E+000	-1.34165E-005	-5.99601E-002	1.35445E-001	3.57870E+000	9	...........
	61	0.826667	1.23850E-001	-9.91020E-005	0.00000E+000	-1.22738E-005	-5.99601E-002	1.23868E-001	3.57870E+000	9	...........
	62	0.84	1.12317E-001	-9.78507E-005	0.00000E+000	-1.09903E-005	-5.99601E-002	1.12343E-001	3.57870E+000	9	...........
	63	0.853333	1.00843E-001	-9.95594E-005	0.00000E+000	-1.00399E-005	-5.99601E-002	1.00858E-001	3.57870E+000	9	...........
	64	0.866667	8.94330E-002	-9.89999E-005	0.00000E+000	-8.85386E-006	-5.99601E-002	8.94478E-002	3.57870E+000	9	...........
	65	0.88	7.81106E-002	-9.81925E-005	0.00000E+000	-7.66987E-006	-5.99601E-002	7.81183E-002	3.57870E+000	9	...........
	66	0.893333	6.68685E-002	-9.89134E-005	0.00000E+000	-6.61420E-006	-5.99601E-002	6.68688E-002	3.57870E+000	9	...........
	67	0.906667	5.57152E-002	-9.81977E-005	0.00000E+000	-5.47111E-006	-5.99601E-002	5.57188E-002	3.57870E+000	9	...........
	68	0.92	4.47044E-002	-9.82685E-005	0.00000E+000	-4.39303E-006	-5.99601E-002	4.47038E-002	3.57870E+000	9	...........
	69	0.933333	3.37939E-002	-9.87134E-005	0.00000E+000	-3.33591E-006	-5.99601E-002	3.37926E-002	3.57870E+000	9	...........
	70	0.946667	2.30143E-002	-9.90635E-005	0.00000E+000	-2.27988E-006	-5.99601E-002	2.30057E-002	3.57870E+000	9	...........
	71	0.96	1.23734E-002	-9.87572E-005	0.00000E+000	-1.22196E-006	-5.99601E-002	1.23561E-002	3.57870E+000	9	...........
	72	0.97	3.17458E-003	-9.90520E-005	0.00000E+000	-3.14449E-007	-5.99601E-002	3.15398E-003	3.57870E+000	9	...........
STARTTIMEOFFSET	QUANT	97.3033	Start Time Offset (s)
