EXPLAIN
TAG	PWR800_DISCHARGE
TITLE	LABEL	PWR Cyclic Charge Discharge (Cell) - Discharge Step	Test &Identifier
DATE	LABEL	12-7-2017	Date
TIME	LABEL	16:39:10	Time
NOTES	NOTES	2	&Notes...
	supercap test cell
	6M KOH
PSTAT	PSTAT	IFC5000-01520	Potentiostat
CAPACITY	QUANT	1.00000E-003	Capacity (A-hr)
CELLTYPE	SELECTOR	1	&Cell Type
WORKINGCONNECTION	SELECTOR	0	&Working Lead
MAXDISCHARGETIME	VARIABLEANDUNITS	1.00000E+002	s	1.00000E+002	second(s)	Max &Discharge Time
DISCHARGEMODE	MULTIPARAM	0	1.00000E-004	&Discharge Mode	Constant Current	Amp(s)
SAMPLETIME	QUANT	1.00000E-002	Sa&mple Period (s)
DISCHARGESTOPAT1	MULTIPARAM	3	0.00000E+000	Discharge Stop At &1	Voltage < Limit	V
DISCHARGESTOPAT2	MULTIPARAM	0	0.00000E+000	Discharge Stop At &2	None	N/A
AESBHCSELECTOR	TOGGLE	F	Save Both Half Cells
IRCOMP	TOGGLE	F	IR &Measure
EOC	QUANT	0	Open Circuit (V)
SEQUENCER	TOGGLE	TRUE	Run as Sequence
PSTATMODEL	IQUANT	53	Pstat Model
PSTATSECTION	LABEL	IFC5000-01520	Pstat Section
PSTATSERIALNO	LABEL	01520	Pstat Serial Number
CTRLMODE	IQUANT	0	Control Mode
ELECTROMETER	IQUANT	1	RE=0 or CS=1
IESTAB	IQUANT	0	I/E Stability
CASPEED	IQUANT	4	Control Amp Speed
CONVENTION	IQUANT	1	Current Convention
ICHRANGE	IQUANT	2	Ich Range
ICHRANGEMODE	TOGGLE	T	Ich Auto Range
ICHOFFSETENABLE	TOGGLE	F	Ich Offset Enable
ICHOFFSET	QUANT	0	Ich Offset (V)
ICHFILTER	IQUANT	1	Ich Filter
VCHRANGE	IQUANT	2	Vch Range
VCHRANGEMODE	TOGGLE	T	Vch Auto Range
VCHOFFSETENABLE	TOGGLE	F	Vch Offset Enable
VCHOFFSET	QUANT	0	Vch Offset (V)
VCHFILTER	IQUANT	1	Vch Filter
IERANGELOWERLIMIT	IQUANT	9	I/E Range Lower Limit
IERANGEMODE	TOGGLE	F	I/E AutoRange
IERANGE	IQUANT	9	I/E Range
ACHSELECT	IQUANT	1	Ach Select
ACHRANGE	IQUANT	2	Ach Range
ACHOFFSETENABLE	TOGGLE	F	Ach Offset Enable
ACHOFFSET	QUANT	0	Ach Offset (V)
ACHFILTER	IQUANT	1	Ach Filter
CABLEID	IQUANT	14	Cable ID
DCCALDATE	LABEL	5-7-2017	DC Calibration Date
ACCALDATE	LABEL	12/3/2015	AC Calibration Date
FRAMEWORKVERSION	QUANT	7.01	Framework Version
INSTRUMENTVERSION	LABEL	4.00	Instrument Version
CURVE	TABLE	71
	Pt	T	Vf	Im	Vu	Pwr	Sig	Ach	Temp	IERange	Over
	#	s	V	A	V	W	V	V	deg C	#	bits
	0	0.013333	8.45266E-001	-9.78091E-005	0.00000E+000	-8.26747E-005	-5.99601E-002	8.45611E-001	3.57790E+000	9	...........
	1	0.026667	8.32161E-001	-9.81820E-005	0.00000E+000	-8.17033E-005	-5.99601E-002	8.32502E-001	3.57790E+000	9	...........
	2	0.04	8.19652E-001	-9.81612E-005	0.00000E+000	-8.04580E-005	-5.99601E-002	8.19991E-001	3.57790E+000	9	...........
	3	0.053333	8.07504E-001	-9.91843E-005	0.00000E+000	-8.00917E-005	-5.99601E-002	8.07827E-001	3.57790E+000	9	...........
	4	0.066667	7.95622E-001	-9.79987E-005	0.00000E+000	-7.79699E-005	-5.99601E-002	7.95946E-001	3.57790E+000	9	...........
	5	0.08	7.83964E-001	-9.83477E-005	0.00000E+000	-7.71010E-005	-5.99601E-002	7.84242E-001	3.57790E+000	9	...........
	6	0.093333	7.72451E-001	-9.92291E-005	0.00000E+000	-7.66496E-005	-5.99601E-002	7.72746E-001	3.57790E+000	9	...........
	7	0.106667	7.61066E-001	-9.85634E-005	0.00000E+000	-7.50133E-005	-5.99601E-002	7.61351E-001	3.57790E+000	9	...........
	8	0.12	7.49810E-001	-9.88655E-005	0.00000E+000	-7.41303E-005	-5.99601E-002	7.50080E-001	3.57790E+000	9	...........
	9	0.133333	7.38626E-001	-9.92864E-005	0.00000E+000	-7.33355E-005	-5.99601E-002	7.38893E-001	3.57790E+000	9	...........
	10	0.146667	7.27574E-001	-9.89885E-005	0.00000E+000	-7.20214E-005	-5.99601E-002	7.27824E-001	3.57790E+000	9	...........
	11	0.16	7.16555E-001	-9.92239E-005	0.00000E+000	-7.10994E-005	-5.99601E-002	7.16825E-001	3.57790E+000	9	...........
	12	0.173333	7.05680E-001	-9.80914E-005	0.00000E+000	-6.92211E-005	-5.99601E-002	7.05919E-001	3.57790E+000	9	...........
	13	0.186667	6.94843E-001	-9.86040E-005	0.00000E+000	-6.85143E-005	-5.99601E-002	6.95097E-001	3.57790E+000	9	...........
	14	0.2	6.84069E-001	-9.93573E-005	0.00000E+000	-6.79673E-005	-5.99601E-002	6.84328E-001	3.57790E+000	9	...........
	15	0.213333	6.73390E-001	-9.91614E-005	0.00000E+000	-6.67743E-005	-5.99601E-002	6.73630E-001	3.57790E+000	9	...........
	16	0.226667	6.62703E-001	-9.82612E-005	0.00000E+000	-6.51180E-005	-5.99601E-002	6.62948E-001	3.57790E+000	9	...........
	17	0.24	6.52010E-001	-9.95740E-005	0.00000E+000	-6.49232E-005	-5.99601E-002	6.52263E-001	3.57790E+000	9	...........
	18	0.253333	6.41293E-001	-1.00526E-004	0.00000E+000	-6.44669E-005	-5.99601E-002	6.41529E-001	3.57790E+000	9	...........
	19	0.266667	6.30453E-001	-9.87499E-005	0.00000E+000	-6.22572E-005	-5.99601E-002	6.30676E-001	3.57790E+000	9	...........
	20	0.28	6.19500E-001	-9.86134E-005	0.00000E+000	-6.10910E-005	-5.99601E-002	6.19703E-001	3.57790E+000	9	...........
	21	0.293333	6.08289E-001	-9.94542E-005	0.00000E+000	-6.04969E-005	-5.99601E-002	6.08548E-001	3.57790E+000	9	...........
	22	0.306667	5.96927E-001	-9.92541E-005	0.00000E+000	-5.92475E-005	-5.99601E-002	5.97183E-001	3.57790E+000	9	...........
	23	0.32	5.85364E-001	-9.83967E-005	0.00000E+000	-5.75979E-005	-5.99601E-002	5.85620E-001	3.57790E+000	9	...........
	24	0.333333	5.73625E-001	-9.87957E-005	0.00000E+000	-5.66717E-005	-5.99601E-002	5.73851E-001	3.57790E+000	9	...........
	25	0.346667	5.61644E-001	-9.91187E-005	0.00000E+000	-5.56694E-005	-5.99601E-002	5.61876E-001	3.57790E+000	9	...........
	26	0.36	5.49478E-001	-9.95730E-005	0.00000E+000	-5.47132E-005	-5.99601E-002	5.49717E-001	3.57790E+000	9	...........
	27	0.373333	5.37137E-001	-9.80091E-005	0.00000E+000	-5.26444E-005	-5.99601E-002	5.37399E-001	3.57790E+000	9	...........
	28	0.386667	5.24687E-001	-9.79841E-005	0.00000E+000	-5.14109E-005	-5.99601E-002	5.24906E-001	3.57790E+000	9	...........
	29	0.4	5.12059E-001	-9.82435E-005	0.00000E+000	-5.03065E-005	-5.99601E-002	5.12281E-001	3.57790E+000	9	...........
	30	0.413333	4.99315E-001	-9.89687E-005	0.00000E+000	-4.94165E-005	-5.99601E-002	4.99544E-001	3.57790E+000	9	...........
	31	0.426667	4.86543E-001	-9.86509E-005	0.00000E+000	-4.79979E-005	-5.99601E-002	4.86751E-001	3.57790E+000	9	...........
	32	0.44	4.73817E-001	-9.85154E-005	0.00000E+000	-4.66783E-005	-5.99601E-002	4.73921E-001	3.57790E+000	9	...........
	33	0.453333	4.60775E-001	-9.89218E-005	0.00000E+000	-4.55807E-005	-5.99601E-002	4.60879E-001	3.57790E+000	9	...........
	34	0.466667	4.47663E-001	-9.84706E-005	0.00000E+000	-4.40816E-005	-5.99601E-002	4.47761E-001	3.57790E+000	9	...........
	35	0.48	4.34489E-001	-9.86436E-005	0.00000E+000	-4.28596E-005	-5.99601E-002	4.34584E-001	3.57790E+000	9	...........
	36	0.493333	4.21266E-001	-9.95511E-005	0.00000E+000	-4.19375E-005	-5.99601E-002	4.21358E-001	3.57790E+000	9	...........
	37	0.506667	4.08013E-001	-9.82331E-005	0.00000E+000	-4.00804E-005	-5.99601E-002	4.08099E-001	3.57790E+000	9	...........
	38	0.52	3.94736E-001	-9.90197E-005	0.00000E+000	-3.90867E-005	-5.99601E-002	3.94817E-001	3.57790E+000	9	...........
	39	0.533333	3.81444E-001	-9.87874E-005	0.00000E+000	-3.76818E-005	-5.99601E-002	3.81524E-001	3.57790E+000	9	...........
	40	0.546667	3.68148E-001	-9.88884E-005	0.00000E+000	-3.64056E-005	-5.99601E-002	3.68224E-001	3.57696E+000	9	...........
	41	0.56	3.54872E-001	-9.76913E-005	0.00000E+000	-3.46679E-005	-5.99601E-002	3.54949E-001	3.57640E+000	9	...........
	42	0.573333	3.41620E-001	-9.89666E-005	0.00000E+000	-3.38089E-005	-5.99601E-002	3.41690E-001	3.57640E+000	9	...........
	43	0.586667	3.28397E-001	-9.85696E-005	0.00000E+000	-3.23699E-005	-5.99601E-002	3.28465E-001	3.57640E+000	9	...........
	44	0.6	3.15211E-001	-9.82227E-005	0.00000E+000	-3.09609E-005	-5.99601E-002	3.15285E-001	3.57640E+000	9	...........
	45	0.613333	3.02073E-001	-9.83144E-005	0.00000E+000	-2.96981E-005	-5.99601E-002	3.02138E-001	3.57640E+000	9	...........
	46	0.626667	2.88994E-001	-9.74538E-005	0.00000E+000	-2.81635E-005	-5.99601E-002	2.89058E-001	3.57640E+000	9	...........
	47	0.64	2.75969E-001	-9.83050E-005	0.00000E+000	-2.71291E-005	-5.99601E-002	2.76026E-001	3.57640E+000	9	...........
	48	0.653333	2.62995E-001	-9.88582E-005	0.00000E+000	-2.59993E-005	-5.99601E-002	2.63056E-001	3.57640E+000	9	...........
	49	0.666667	2.50098E-001	-9.81758E-005	0.00000E+000	-2.45536E-005	-5.99601E-002	2.50149E-001	3.57640E+000	9	...........
	50	0.68	2.37261E-001	-9.85488E-005	0.00000E+000	-2.33818E-005	-5.99601E-002	2.37309E-001	3.57640E+000	9	...........
	51	0.693333	2.24487E-001	-9.86769E-005	0.00000E+000	-2.21517E-005	-5.99601E-002	2.24531E-001	3.57640E+000	9	...........
	52	0.706667	2.11782E-001	-9.82071E-005	0.00000E+000	-2.07985E-005	-5.99601E-002	2.11823E-001	3.57640E+000	9	...........
	53	0.72	1.99139E-001	-9.92093E-005	0.00000E+000	-1.97564E-005	-5.99601E-002	1.99180E-001	3.57640E+000	9	...........
	54	0.733333	1.86567E-001	-9.71277E-005	0.00000E+000	-1.81208E-005	-5.99601E-002	1.86605E-001	3.57640E+000	9	...........
	55	0.746667	1.74043E-001	-9.82894E-005	0.00000E+000	-1.71066E-005	-5.99601E-002	1.74082E-001	3.57640E+000	9	...........
	56	0.76	1.61598E-001	-1.00087E-004	0.00000E+000	-1.61738E-005	-5.99601E-002	1.61628E-001	3.57640E+000	9	...........
	57	0.773333	1.49220E-001	-9.86551E-005	0.00000E+000	-1.47213E-005	-5.99601E-002	1.49248E-001	3.57640E+000	9	...........
	58	0.786667	1.36905E-001	-9.83071E-005	0.00000E+000	-1.34587E-005	-5.99601E-002	1.36930E-001	3.57640E+000	9	...........
	59	0.8	1.24668E-001	-9.73715E-005	0.00000E+000	-1.21391E-005	-5.99601E-002	1.24688E-001	3.57640E+000	9	...........
	60	0.813333	1.12490E-001	-9.85394E-005	0.00000E+000	-1.10847E-005	-5.99601E-002	1.12509E-001	3.57640E+000	9	...........
	61	0.826667	1.00396E-001	-9.92177E-005	0.00000E+000	-9.96111E-006	-5.99601E-002	1.00419E-001	3.57640E+000	9	...........
	62	0.84	8.83963E-002	-9.95740E-005	0.00000E+000	-8.80197E-006	-5.99601E-002	8.84215E-002	3.57640E+000	9	...........
	63	0.853333	7.65119E-002	-9.76757E-005	0.00000E+000	-7.47335E-006	-5.99601E-002	7.65215E-002	3.57640E+000	9	...........
	64	0.866667	6.47184E-002	-9.88676E-005	0.00000E+000	-6.39856E-006	-5.99601E-002	6.47308E-002	3.57640E+000	9	...........
	65	0.88	5.30618E-002	-9.92000E-005	0.00000E+000	-5.26373E-006	-5.99601E-002	5.30736E-002	3.57640E+000	9	...........
	66	0.893333	4.15729E-002	-9.86811E-005	0.00000E+000	-4.10246E-006	-5.99601E-002	4.15778E-002	3.57640E+000	9	...........
	67	0.906667	3.01979E-002	-9.91385E-005	0.00000E+000	-2.99378E-006	-5.99601E-002	3.01964E-002	3.57640E+000	9	...........
	68	0.92	1.89688E-002	-9.86228E-005	0.00000E+000	-1.87076E-006	-5.99601E-002	1.89592E-002	3.57640E+000	9	...........
	69	0.933333	7.90292E-003	-9.81445E-005	0.00000E+000	-7.75629E-007	-5.99601E-002	7.88645E-003	3.57640E+000	9	...........
	70	0.938333	3.74779E-004	-9.93549E-005	0.00000E+000	-3.72361E-008	-5.99601E-002	3.58332E-004	3.57640E+000	9	...........
STARTTIMEOFFSET	QUANT	1242.649	Start Time Offset (s)
