EXPLAIN
TAG	PWR800_DISCHARGE
TITLE	LABEL	PWR Cyclic Charge Discharge (Cell) - Discharge Step	Test &Identifier
DATE	LABEL	12-7-2017	Date
TIME	LABEL	16:35:08	Time
NOTES	NOTES	2	&Notes...
	supercap test cell
	6M KOH
PSTAT	PSTAT	IFC5000-01520	Potentiostat
CAPACITY	QUANT	1.00000E-003	Capacity (A-hr)
CELLTYPE	SELECTOR	1	&Cell Type
WORKINGCONNECTION	SELECTOR	0	&Working Lead
MAXDISCHARGETIME	VARIABLEANDUNITS	1.00000E+002	s	1.00000E+002	second(s)	Max &Discharge Time
DISCHARGEMODE	MULTIPARAM	0	1.00000E-004	&Discharge Mode	Constant Current	Amp(s)
SAMPLETIME	QUANT	1.00000E-002	Sa&mple Period (s)
DISCHARGESTOPAT1	MULTIPARAM	3	0.00000E+000	Discharge Stop At &1	Voltage < Limit	V
DISCHARGESTOPAT2	MULTIPARAM	0	0.00000E+000	Discharge Stop At &2	None	N/A
AESBHCSELECTOR	TOGGLE	F	Save Both Half Cells
IRCOMP	TOGGLE	F	IR &Measure
EOC	QUANT	0	Open Circuit (V)
SEQUENCER	TOGGLE	TRUE	Run as Sequence
PSTATMODEL	IQUANT	53	Pstat Model
PSTATSECTION	LABEL	IFC5000-01520	Pstat Section
PSTATSERIALNO	LABEL	01520	Pstat Serial Number
CTRLMODE	IQUANT	0	Control Mode
ELECTROMETER	IQUANT	1	RE=0 or CS=1
IESTAB	IQUANT	0	I/E Stability
CASPEED	IQUANT	4	Control Amp Speed
CONVENTION	IQUANT	1	Current Convention
ICHRANGE	IQUANT	2	Ich Range
ICHRANGEMODE	TOGGLE	T	Ich Auto Range
ICHOFFSETENABLE	TOGGLE	F	Ich Offset Enable
ICHOFFSET	QUANT	0	Ich Offset (V)
ICHFILTER	IQUANT	1	Ich Filter
VCHRANGE	IQUANT	2	Vch Range
VCHRANGEMODE	TOGGLE	T	Vch Auto Range
VCHOFFSETENABLE	TOGGLE	F	Vch Offset Enable
VCHOFFSET	QUANT	0	Vch Offset (V)
VCHFILTER	IQUANT	1	Vch Filter
IERANGELOWERLIMIT	IQUANT	9	I/E Range Lower Limit
IERANGEMODE	TOGGLE	F	I/E AutoRange
IERANGE	IQUANT	9	I/E Range
ACHSELECT	IQUANT	1	Ach Select
ACHRANGE	IQUANT	2	Ach Range
ACHOFFSETENABLE	TOGGLE	F	Ach Offset Enable
ACHOFFSET	QUANT	0	Ach Offset (V)
ACHFILTER	IQUANT	1	Ach Filter
CABLEID	IQUANT	14	Cable ID
DCCALDATE	LABEL	5-7-2017	DC Calibration Date
ACCALDATE	LABEL	12/3/2015	AC Calibration Date
FRAMEWORKVERSION	QUANT	7.01	Framework Version
INSTRUMENTVERSION	LABEL	4.00	Instrument Version
CURVE	TABLE	71
	Pt	T	Vf	Im	Vu	Pwr	Sig	Ach	Temp	IERange	Over
	#	s	V	A	V	W	V	V	deg C	#	bits
	0	0.013333	8.45977E-001	-9.87040E-005	0.00000E+000	-8.35013E-005	-5.99601E-002	8.46281E-001	3.57810E+000	9	...........
	1	0.026667	8.32929E-001	-9.82404E-005	0.00000E+000	-8.18273E-005	-5.99601E-002	8.33226E-001	3.57810E+000	9	...........
	2	0.04	8.20471E-001	-9.95698E-005	0.00000E+000	-8.16942E-005	-5.99601E-002	8.20782E-001	3.57810E+000	9	...........
	3	0.053333	8.08395E-001	-9.88030E-005	0.00000E+000	-7.98719E-005	-5.99601E-002	8.08663E-001	3.57810E+000	9	...........
	4	0.066667	7.96578E-001	-9.89833E-005	0.00000E+000	-7.88479E-005	-5.99601E-002	7.96836E-001	3.57810E+000	9	...........
	5	0.08	7.84955E-001	-9.88030E-005	0.00000E+000	-7.75559E-005	-5.99601E-002	7.85206E-001	3.57810E+000	9	...........
	6	0.093333	7.73490E-001	-9.83217E-005	0.00000E+000	-7.60508E-005	-5.99601E-002	7.73744E-001	3.57810E+000	9	...........
	7	0.106667	7.62158E-001	-9.82112E-005	0.00000E+000	-7.48525E-005	-5.99601E-002	7.62416E-001	3.57810E+000	9	...........
	8	0.12	7.50929E-001	-9.88061E-005	0.00000E+000	-7.41964E-005	-5.99601E-002	7.51181E-001	3.57810E+000	9	...........
	9	0.133333	7.39812E-001	-9.81956E-005	0.00000E+000	-7.26463E-005	-5.99601E-002	7.40070E-001	3.57810E+000	9	...........
	10	0.146667	7.28800E-001	-9.99189E-005	0.00000E+000	-7.28208E-005	-5.99601E-002	7.29049E-001	3.57810E+000	9	...........
	11	0.16	7.17860E-001	-9.85207E-005	0.00000E+000	-7.07241E-005	-5.99601E-002	7.18129E-001	3.57810E+000	9	...........
	12	0.173333	7.06995E-001	-9.99803E-005	0.00000E+000	-7.06856E-005	-5.99601E-002	7.07265E-001	3.57810E+000	9	...........
	13	0.186667	6.96249E-001	-9.95948E-005	0.00000E+000	-6.93428E-005	-5.99601E-002	6.96490E-001	3.57810E+000	9	...........
	14	0.2	6.85529E-001	-9.80737E-005	0.00000E+000	-6.72323E-005	-5.99601E-002	6.85777E-001	3.57810E+000	9	...........
	15	0.213333	6.74876E-001	-9.94459E-005	0.00000E+000	-6.71136E-005	-5.99601E-002	6.75120E-001	3.57810E+000	9	...........
	16	0.226667	6.64227E-001	-9.84488E-005	0.00000E+000	-6.53923E-005	-5.99601E-002	6.64487E-001	3.57810E+000	9	...........
	17	0.24	6.53558E-001	-9.97251E-005	0.00000E+000	-6.51761E-005	-5.99601E-002	6.53809E-001	3.57810E+000	9	...........
	18	0.253333	6.42824E-001	-9.90270E-005	0.00000E+000	-6.36569E-005	-5.99601E-002	6.43073E-001	3.57810E+000	9	...........
	19	0.266667	6.31981E-001	-9.85040E-005	0.00000E+000	-6.22527E-005	-5.99601E-002	6.32214E-001	3.57810E+000	9	...........
	20	0.28	6.20997E-001	-9.90020E-005	0.00000E+000	-6.14800E-005	-5.99601E-002	6.21228E-001	3.57810E+000	9	...........
	21	0.293333	6.09763E-001	-9.90031E-005	0.00000E+000	-6.03684E-005	-5.99601E-002	6.10020E-001	3.57810E+000	9	...........
	22	0.306667	5.98413E-001	-9.87447E-005	0.00000E+000	-5.90901E-005	-5.99601E-002	5.98663E-001	3.57810E+000	9	...........
	23	0.32	5.86815E-001	-9.85905E-005	0.00000E+000	-5.78543E-005	-5.99601E-002	5.87085E-001	3.57810E+000	9	...........
	24	0.333333	5.75061E-001	-9.87707E-005	0.00000E+000	-5.67992E-005	-5.99601E-002	5.75287E-001	3.57810E+000	9	...........
	25	0.346667	5.63071E-001	-9.77945E-005	0.00000E+000	-5.50652E-005	-5.99601E-002	5.63339E-001	3.57810E+000	9	...........
	26	0.36	5.50945E-001	-9.85478E-005	0.00000E+000	-5.42944E-005	-5.99601E-002	5.51175E-001	3.57810E+000	9	...........
	27	0.373333	5.38638E-001	-9.80852E-005	0.00000E+000	-5.28324E-005	-5.99601E-002	5.38882E-001	3.57810E+000	9	...........
	28	0.386667	5.26196E-001	-9.97584E-005	0.00000E+000	-5.24925E-005	-5.99601E-002	5.26425E-001	3.57810E+000	9	...........
	29	0.4	5.13615E-001	-9.98991E-005	0.00000E+000	-5.13097E-005	-5.99601E-002	5.13830E-001	3.57810E+000	9	...........
	30	0.413333	5.00879E-001	-9.91385E-005	0.00000E+000	-4.96564E-005	-5.99601E-002	5.01126E-001	3.57810E+000	9	...........
	31	0.426667	4.88146E-001	-9.93698E-005	0.00000E+000	-4.85070E-005	-5.99601E-002	4.88359E-001	3.57810E+000	9	...........
	32	0.44	4.75503E-001	-9.84602E-005	0.00000E+000	-4.68182E-005	-5.99601E-002	4.75604E-001	3.57810E+000	9	...........
	33	0.453333	4.62510E-001	-9.89833E-005	0.00000E+000	-4.57808E-005	-5.99601E-002	4.62610E-001	3.57810E+000	9	...........
	34	0.466667	4.49460E-001	-9.81768E-005	0.00000E+000	-4.41266E-005	-5.99601E-002	4.49556E-001	3.57810E+000	9	...........
	35	0.48	4.36357E-001	-9.77538E-005	0.00000E+000	-4.26556E-005	-5.99601E-002	4.36448E-001	3.57705E+000	9	...........
	36	0.493333	4.23203E-001	-9.90343E-005	0.00000E+000	-4.19117E-005	-5.99601E-002	4.23299E-001	3.57670E+000	9	...........
	37	0.506667	4.10030E-001	-9.75923E-005	0.00000E+000	-4.00158E-005	-5.99601E-002	4.10115E-001	3.57670E+000	9	...........
	38	0.52	3.96829E-001	-9.93865E-005	0.00000E+000	-3.94395E-005	-5.99601E-002	3.96911E-001	3.57670E+000	9	...........
	39	0.533333	3.83629E-001	-9.81373E-005	0.00000E+000	-3.76483E-005	-5.99601E-002	3.83708E-001	3.57670E+000	9	...........
	40	0.546667	3.70425E-001	-9.95032E-005	0.00000E+000	-3.68585E-005	-5.99601E-002	3.70495E-001	3.57670E+000	9	...........
	41	0.56	3.57231E-001	-9.90364E-005	0.00000E+000	-3.53789E-005	-5.99601E-002	3.57305E-001	3.57670E+000	9	...........
	42	0.573333	3.44061E-001	-9.83331E-005	0.00000E+000	-3.38326E-005	-5.99601E-002	3.44132E-001	3.57670E+000	9	...........
	43	0.586667	3.30926E-001	-9.66963E-005	0.00000E+000	-3.19993E-005	-5.99601E-002	3.30996E-001	3.57670E+000	9	...........
	44	0.6	3.17829E-001	-9.83894E-005	0.00000E+000	-3.12710E-005	-5.99601E-002	3.17895E-001	3.57670E+000	9	...........
	45	0.613333	3.04783E-001	-9.84988E-005	0.00000E+000	-3.00207E-005	-5.99601E-002	3.04844E-001	3.57670E+000	9	...........
	46	0.626667	2.91773E-001	-9.79028E-005	0.00000E+000	-2.85654E-005	-5.99601E-002	2.91834E-001	3.57670E+000	9	...........
	47	0.64	2.78820E-001	-9.96584E-005	0.00000E+000	-2.77868E-005	-5.99601E-002	2.78885E-001	3.57670E+000	9	...........
	48	0.653333	2.65928E-001	-9.82279E-005	0.00000E+000	-2.61216E-005	-5.99601E-002	2.65988E-001	3.57670E+000	9	...........
	49	0.666667	2.53096E-001	-9.85978E-005	0.00000E+000	-2.49547E-005	-5.99601E-002	2.53155E-001	3.57670E+000	9	...........
	50	0.68	2.40334E-001	-9.81643E-005	0.00000E+000	-2.35922E-005	-5.99601E-002	2.40383E-001	3.57670E+000	9	...........
	51	0.693333	2.27626E-001	-9.82227E-005	0.00000E+000	-2.23580E-005	-5.99601E-002	2.27671E-001	3.57670E+000	9	...........
	52	0.706667	2.14979E-001	-9.84842E-005	0.00000E+000	-2.11720E-005	-5.99601E-002	2.15023E-001	3.57670E+000	9	...........
	53	0.72	2.02399E-001	-9.93562E-005	0.00000E+000	-2.01097E-005	-5.99601E-002	2.02439E-001	3.57670E+000	9	...........
	54	0.733333	1.89871E-001	-9.88457E-005	0.00000E+000	-1.87679E-005	-5.99601E-002	1.89909E-001	3.57670E+000	9	...........
	55	0.746667	1.77407E-001	-9.89728E-005	0.00000E+000	-1.75584E-005	-5.99601E-002	1.77440E-001	3.57670E+000	9	...........
	56	0.76	1.65002E-001	-9.83196E-005	0.00000E+000	-1.62229E-005	-5.99601E-002	1.65035E-001	3.57670E+000	9	...........
	57	0.773333	1.52658E-001	-9.84925E-005	0.00000E+000	-1.50357E-005	-5.99601E-002	1.52686E-001	3.57670E+000	9	...........
	58	0.786667	1.40382E-001	-9.82164E-005	0.00000E+000	-1.37878E-005	-5.99601E-002	1.40406E-001	3.57670E+000	9	...........
	59	0.8	1.28165E-001	-9.99564E-005	0.00000E+000	-1.28109E-005	-5.99601E-002	1.28188E-001	3.57670E+000	9	...........
	60	0.813333	1.16013E-001	-9.85748E-005	0.00000E+000	-1.14360E-005	-5.99601E-002	1.16035E-001	3.57670E+000	9	...........
	61	0.826667	1.03945E-001	-9.89447E-005	0.00000E+000	-1.02848E-005	-5.99601E-002	1.03964E-001	3.57670E+000	9	...........
	62	0.84	9.19532E-002	-9.98991E-005	0.00000E+000	-9.18604E-006	-5.99601E-002	9.19707E-002	3.57670E+000	9	...........
	63	0.853333	8.00730E-002	-9.80654E-005	0.00000E+000	-7.85239E-006	-5.99601E-002	8.00833E-002	3.57670E+000	9	...........
	64	0.866667	6.82956E-002	-9.86853E-005	0.00000E+000	-6.73977E-006	-5.99601E-002	6.83010E-002	3.57670E+000	9	...........
	65	0.88	5.66217E-002	-9.80695E-005	0.00000E+000	-5.55287E-006	-5.99601E-002	5.66277E-002	3.57670E+000	9	...........
	66	0.893333	4.51059E-002	-9.90822E-005	0.00000E+000	-4.46919E-006	-5.99601E-002	4.51107E-002	3.57670E+000	9	...........
	67	0.906667	3.37115E-002	-9.83946E-005	0.00000E+000	-3.31703E-006	-5.99601E-002	3.37112E-002	3.57670E+000	9	...........
	68	0.92	2.24499E-002	-9.82164E-005	0.00000E+000	-2.20495E-006	-5.99601E-002	2.24418E-002	3.57670E+000	9	...........
	69	0.933333	1.13476E-002	-9.82352E-005	0.00000E+000	-1.11473E-006	-5.99601E-002	1.13361E-002	3.57670E+000	9	...........
	70	0.941667	2.44608E-003	-9.74433E-005	0.00000E+000	-2.38354E-007	-5.99601E-002	2.42450E-003	3.57670E+000	9	...........
STARTTIMEOFFSET	QUANT	1071.726	Start Time Offset (s)
