EXPLAIN
TAG	PWR800_DISCHARGE
TITLE	LABEL	PWR Cyclic Charge Discharge (Cell) - Discharge Step	Test &Identifier
DATE	LABEL	12-7-2017	Date
TIME	LABEL	16:40:51	Time
NOTES	NOTES	2	&Notes...
	supercap test cell
	6M KOH
PSTAT	PSTAT	IFC5000-01520	Potentiostat
CAPACITY	QUANT	1.00000E-003	Capacity (A-hr)
CELLTYPE	SELECTOR	1	&Cell Type
WORKINGCONNECTION	SELECTOR	0	&Working Lead
MAXDISCHARGETIME	VARIABLEANDUNITS	1.00000E+002	s	1.00000E+002	second(s)	Max &Discharge Time
DISCHARGEMODE	MULTIPARAM	0	1.00000E-004	&Discharge Mode	Constant Current	Amp(s)
SAMPLETIME	QUANT	1.00000E-002	Sa&mple Period (s)
DISCHARGESTOPAT1	MULTIPARAM	3	0.00000E+000	Discharge Stop At &1	Voltage < Limit	V
DISCHARGESTOPAT2	MULTIPARAM	0	0.00000E+000	Discharge Stop At &2	None	N/A
AESBHCSELECTOR	TOGGLE	F	Save Both Half Cells
IRCOMP	TOGGLE	F	IR &Measure
EOC	QUANT	0	Open Circuit (V)
SEQUENCER	TOGGLE	TRUE	Run as Sequence
PSTATMODEL	IQUANT	53	Pstat Model
PSTATSECTION	LABEL	IFC5000-01520	Pstat Section
PSTATSERIALNO	LABEL	01520	Pstat Serial Number
CTRLMODE	IQUANT	0	Control Mode
ELECTROMETER	IQUANT	1	RE=0 or CS=1
IESTAB	IQUANT	0	I/E Stability
CASPEED	IQUANT	4	Control Amp Speed
CONVENTION	IQUANT	1	Current Convention
ICHRANGE	IQUANT	2	Ich Range
ICHRANGEMODE	TOGGLE	T	Ich Auto Range
ICHOFFSETENABLE	TOGGLE	F	Ich Offset Enable
ICHOFFSET	QUANT	0	Ich Offset (V)
ICHFILTER	IQUANT	1	Ich Filter
VCHRANGE	IQUANT	2	Vch Range
VCHRANGEMODE	TOGGLE	T	Vch Auto Range
VCHOFFSETENABLE	TOGGLE	F	Vch Offset Enable
VCHOFFSET	QUANT	0	Vch Offset (V)
VCHFILTER	IQUANT	1	Vch Filter
IERANGELOWERLIMIT	IQUANT	9	I/E Range Lower Limit
IERANGEMODE	TOGGLE	F	I/E AutoRange
IERANGE	IQUANT	9	I/E Range
ACHSELECT	IQUANT	1	Ach Select
ACHRANGE	IQUANT	2	Ach Range
ACHOFFSETENABLE	TOGGLE	F	Ach Offset Enable
ACHOFFSET	QUANT	0	Ach Offset (V)
ACHFILTER	IQUANT	1	Ach Filter
CABLEID	IQUANT	14	Cable ID
DCCALDATE	LABEL	5-7-2017	DC Calibration Date
ACCALDATE	LABEL	12/3/2015	AC Calibration Date
FRAMEWORKVERSION	QUANT	7.01	Framework Version
INSTRUMENTVERSION	LABEL	4.00	Instrument Version
CURVE	TABLE	71
	Pt	T	Vf	Im	Vu	Pwr	Sig	Ach	Temp	IERange	Over
	#	s	V	A	V	W	V	V	deg C	#	bits
	0	0.013333	8.45320E-001	-9.81237E-005	0.00000E+000	-8.29459E-005	-5.99601E-002	8.45646E-001	3.57790E+000	9	...........
	1	0.026667	8.32213E-001	-9.93917E-005	0.00000E+000	-8.27150E-005	-5.99601E-002	8.32506E-001	3.57790E+000	9	...........
	2	0.04	8.19688E-001	-9.85717E-005	0.00000E+000	-8.07981E-005	-5.99601E-002	8.19978E-001	3.57790E+000	9	...........
	3	0.053333	8.07521E-001	-9.76757E-005	0.00000E+000	-7.88752E-005	-5.99601E-002	8.07808E-001	3.57790E+000	9	...........
	4	0.066667	7.95657E-001	-9.86134E-005	0.00000E+000	-7.84624E-005	-5.99601E-002	7.95926E-001	3.57790E+000	9	...........
	5	0.08	7.83947E-001	-9.84842E-005	0.00000E+000	-7.72064E-005	-5.99601E-002	7.84216E-001	3.57790E+000	9	...........
	6	0.093333	7.72404E-001	-1.00392E-004	0.00000E+000	-7.75431E-005	-5.99601E-002	7.72671E-001	3.57790E+000	9	...........
	7	0.106667	7.60993E-001	-9.89343E-005	0.00000E+000	-7.52883E-005	-5.99601E-002	7.61270E-001	3.57790E+000	9	...........
	8	0.12	7.49696E-001	-9.87843E-005	0.00000E+000	-7.40582E-005	-5.99601E-002	7.49977E-001	3.57790E+000	9	...........
	9	0.133333	7.38498E-001	-9.93135E-005	0.00000E+000	-7.33429E-005	-5.99601E-002	7.38780E-001	3.57790E+000	9	...........
	10	0.146667	7.27413E-001	-9.86749E-005	0.00000E+000	-7.17774E-005	-5.99601E-002	7.27688E-001	3.57790E+000	9	...........
	11	0.16	7.16384E-001	-9.81727E-005	0.00000E+000	-7.03293E-005	-5.99601E-002	7.16659E-001	3.57790E+000	9	...........
	12	0.173333	7.05450E-001	-9.75528E-005	0.00000E+000	-6.88186E-005	-5.99601E-002	7.05727E-001	3.57790E+000	9	...........
	13	0.186667	6.94596E-001	-9.90551E-005	0.00000E+000	-6.88033E-005	-5.99601E-002	6.94867E-001	3.57790E+000	9	...........
	14	0.2	6.83813E-001	-9.93823E-005	0.00000E+000	-6.79589E-005	-5.99601E-002	6.84077E-001	3.57790E+000	9	...........
	15	0.213333	6.73101E-001	-9.89947E-005	0.00000E+000	-6.66335E-005	-5.99601E-002	6.73368E-001	3.57790E+000	9	...........
	16	0.226667	6.62386E-001	-9.75371E-005	0.00000E+000	-6.46072E-005	-5.99601E-002	6.62664E-001	3.57790E+000	9	...........
	17	0.24	6.51695E-001	-9.95719E-005	0.00000E+000	-6.48905E-005	-5.99601E-002	6.51956E-001	3.57790E+000	9	...........
	18	0.253333	6.40968E-001	-9.72787E-005	0.00000E+000	-6.23526E-005	-5.99601E-002	6.41218E-001	3.57790E+000	9	...........
	19	0.266667	6.30134E-001	-1.00170E-004	0.00000E+000	-6.31205E-005	-5.99601E-002	6.30369E-001	3.57790E+000	9	...........
	20	0.28	6.19182E-001	-9.93042E-005	0.00000E+000	-6.14873E-005	-5.99601E-002	6.19404E-001	3.57790E+000	9	...........
	21	0.293333	6.07960E-001	-9.92875E-005	0.00000E+000	-6.03628E-005	-5.99601E-002	6.08268E-001	3.57790E+000	9	...........
	22	0.306667	5.96642E-001	-9.74506E-005	0.00000E+000	-5.81431E-005	-5.99601E-002	5.96912E-001	3.57790E+000	9	...........
	23	0.32	5.85071E-001	-9.95469E-005	0.00000E+000	-5.82421E-005	-5.99601E-002	5.85352E-001	3.57790E+000	9	...........
	24	0.333333	5.73321E-001	-9.93146E-005	0.00000E+000	-5.69391E-005	-5.99601E-002	5.73575E-001	3.57790E+000	9	...........
	25	0.346667	5.61360E-001	-9.76778E-005	0.00000E+000	-5.48324E-005	-5.99601E-002	5.61597E-001	3.57790E+000	9	...........
	26	0.36	5.49203E-001	-9.84967E-005	0.00000E+000	-5.40947E-005	-5.99601E-002	5.49444E-001	3.57790E+000	9	...........
	27	0.373333	5.36881E-001	-9.88530E-005	0.00000E+000	-5.30723E-005	-5.99601E-002	5.37114E-001	3.57790E+000	9	...........
	28	0.386667	5.24415E-001	-9.79382E-005	0.00000E+000	-5.13603E-005	-5.99601E-002	5.24650E-001	3.57790E+000	9	...........
	29	0.4	5.11744E-001	-9.89635E-005	0.00000E+000	-5.06440E-005	-5.99601E-002	5.12009E-001	3.57790E+000	9	...........
	30	0.413333	4.99018E-001	-9.83623E-005	0.00000E+000	-4.90846E-005	-5.99601E-002	4.99251E-001	3.57790E+000	9	...........
	31	0.426667	4.86269E-001	-9.79455E-005	0.00000E+000	-4.76278E-005	-5.99601E-002	4.86434E-001	3.57790E+000	9	...........
	32	0.44	4.73478E-001	-9.94198E-005	0.00000E+000	-4.70731E-005	-5.99601E-002	4.73578E-001	3.57790E+000	9	...........
	33	0.453333	4.60409E-001	-9.88207E-005	0.00000E+000	-4.54980E-005	-5.99601E-002	4.60511E-001	3.57790E+000	9	...........
	34	0.466667	4.47273E-001	-9.78132E-005	0.00000E+000	-4.37492E-005	-5.99601E-002	4.47371E-001	3.57790E+000	9	...........
	35	0.48	4.34070E-001	-9.88301E-005	0.00000E+000	-4.28992E-005	-5.99601E-002	4.34162E-001	3.57790E+000	9	...........
	36	0.493333	4.20817E-001	-9.89739E-005	0.00000E+000	-4.16499E-005	-5.99601E-002	4.20915E-001	3.57790E+000	9	...........
	37	0.506667	4.07544E-001	-9.91875E-005	0.00000E+000	-4.04232E-005	-5.99601E-002	4.07629E-001	3.57790E+000	9	...........
	38	0.52	3.94237E-001	-9.95782E-005	0.00000E+000	-3.92574E-005	-5.99601E-002	3.94319E-001	3.57790E+000	9	...........
	39	0.533333	3.80921E-001	-9.93510E-005	0.00000E+000	-3.78449E-005	-5.99601E-002	3.81000E-001	3.57790E+000	9	...........
	40	0.546667	3.67605E-001	-9.92125E-005	0.00000E+000	-3.64710E-005	-5.99601E-002	3.67682E-001	3.57790E+000	9	...........
	41	0.56	3.54301E-001	-9.89426E-005	0.00000E+000	-3.50554E-005	-5.99601E-002	3.54376E-001	3.57790E+000	9	...........
	42	0.573333	3.41022E-001	-9.88739E-005	0.00000E+000	-3.37181E-005	-5.99601E-002	3.41092E-001	3.57696E+000	9	...........
	43	0.586667	3.27764E-001	-9.85332E-005	0.00000E+000	-3.22956E-005	-5.99601E-002	3.27831E-001	3.57640E+000	9	...........
	44	0.6	3.14558E-001	-9.90781E-005	0.00000E+000	-3.11658E-005	-5.99601E-002	3.14624E-001	3.57640E+000	9	...........
	45	0.613333	3.01393E-001	-9.80966E-005	0.00000E+000	-2.95656E-005	-5.99601E-002	3.01458E-001	3.57640E+000	9	...........
	46	0.626667	2.88285E-001	-9.82831E-005	0.00000E+000	-2.83335E-005	-5.99601E-002	2.88346E-001	3.57640E+000	9	...........
	47	0.64	2.75225E-001	-9.89906E-005	0.00000E+000	-2.72447E-005	-5.99601E-002	2.75288E-001	3.57640E+000	9	...........
	48	0.653333	2.62227E-001	-9.95511E-005	0.00000E+000	-2.61050E-005	-5.99601E-002	2.62281E-001	3.57640E+000	9	...........
	49	0.666667	2.49305E-001	-9.86967E-005	0.00000E+000	-2.46056E-005	-5.99601E-002	2.49354E-001	3.57640E+000	9	...........
	50	0.68	2.36442E-001	-9.79278E-005	0.00000E+000	-2.31542E-005	-5.99601E-002	2.36486E-001	3.57640E+000	9	...........
	51	0.693333	2.23639E-001	-9.72329E-005	0.00000E+000	-2.17451E-005	-5.99601E-002	2.23680E-001	3.57640E+000	9	...........
	52	0.706667	2.10910E-001	-9.83779E-005	0.00000E+000	-2.07489E-005	-5.99601E-002	2.10955E-001	3.57640E+000	9	...........
	53	0.72	1.98249E-001	-9.85582E-005	0.00000E+000	-1.95391E-005	-5.99601E-002	1.98288E-001	3.57640E+000	9	...........
	54	0.733333	1.85661E-001	-9.88707E-005	0.00000E+000	-1.83565E-005	-5.99601E-002	1.85701E-001	3.57640E+000	9	...........
	55	0.746667	1.73136E-001	-9.89249E-005	0.00000E+000	-1.71274E-005	-5.99601E-002	1.73168E-001	3.57640E+000	9	...........
	56	0.76	1.60681E-001	-9.84352E-005	0.00000E+000	-1.58167E-005	-5.99601E-002	1.60713E-001	3.57640E+000	9	...........
	57	0.773333	1.48285E-001	-9.82018E-005	0.00000E+000	-1.45618E-005	-5.99601E-002	1.48319E-001	3.57640E+000	9	...........
	58	0.786667	1.35963E-001	-9.90906E-005	0.00000E+000	-1.34727E-005	-5.99601E-002	1.35992E-001	3.57640E+000	9	...........
	59	0.8	1.23713E-001	-9.66880E-005	0.00000E+000	-1.19615E-005	-5.99601E-002	1.23736E-001	3.57640E+000	9	...........
	60	0.813333	1.11535E-001	-9.90354E-005	0.00000E+000	-1.10459E-005	-5.99601E-002	1.11558E-001	3.57640E+000	9	...........
	61	0.826667	9.94460E-002	-9.99501E-005	0.00000E+000	-9.93964E-006	-5.99601E-002	9.94652E-002	3.57640E+000	9	...........
	62	0.84	8.74541E-002	-9.86874E-005	0.00000E+000	-8.63062E-006	-5.99601E-002	8.74661E-002	3.57640E+000	9	...........
	63	0.853333	7.55631E-002	-9.84769E-005	0.00000E+000	-7.44122E-006	-5.99601E-002	7.55691E-002	3.57640E+000	9	...........
	64	0.866667	6.37817E-002	-1.00475E-004	0.00000E+000	-6.40848E-006	-5.99601E-002	6.37864E-002	3.57640E+000	9	...........
	65	0.88	5.21340E-002	-9.83946E-005	0.00000E+000	-5.12970E-006	-5.99601E-002	5.21374E-002	3.57640E+000	9	...........
	66	0.893333	4.06442E-002	-9.94896E-005	0.00000E+000	-4.04368E-006	-5.99601E-002	4.06505E-002	3.57640E+000	9	...........
	67	0.906667	2.92702E-002	-1.00273E-004	0.00000E+000	-2.93501E-006	-5.99601E-002	2.92624E-002	3.57640E+000	9	...........
	68	0.92	1.80447E-002	-9.92041E-005	0.00000E+000	-1.79010E-006	-5.99601E-002	1.80339E-002	3.57640E+000	9	...........
	69	0.933333	6.98470E-003	-9.85978E-005	0.00000E+000	-6.88676E-007	-5.99601E-002	6.96821E-003	3.57640E+000	9	...........
	70	0.936667	1.63846E-004	-9.64640E-005	0.00000E+000	-1.58053E-008	-5.99601E-002	1.37607E-004	3.57640E+000	9	...........
STARTTIMEOFFSET	QUANT	1314.281	Start Time Offset (s)
