EXPLAIN
TAG	PWR800_DISCHARGE
TITLE	LABEL	PWR Cyclic Charge Discharge (Cell) - Discharge Step	Test &Identifier
DATE	LABEL	12-7-2017	Date
TIME	LABEL	16:55:27	Time
NOTES	NOTES	2	&Notes...
	supercap test cell
	6M KOH
PSTAT	PSTAT	IFC5000-01520	Potentiostat
CAPACITY	QUANT	1.00000E-003	Capacity (A-hr)
CELLTYPE	SELECTOR	1	&Cell Type
WORKINGCONNECTION	SELECTOR	0	&Working Lead
MAXDISCHARGETIME	VARIABLEANDUNITS	1.00000E+002	s	1.00000E+002	second(s)	Max &Discharge Time
DISCHARGEMODE	MULTIPARAM	0	1.00000E-004	&Discharge Mode	Constant Current	Amp(s)
SAMPLETIME	QUANT	1.00000E-002	Sa&mple Period (s)
DISCHARGESTOPAT1	MULTIPARAM	3	0.00000E+000	Discharge Stop At &1	Voltage < Limit	V
DISCHARGESTOPAT2	MULTIPARAM	0	0.00000E+000	Discharge Stop At &2	None	N/A
AESBHCSELECTOR	TOGGLE	F	Save Both Half Cells
IRCOMP	TOGGLE	F	IR &Measure
EOC	QUANT	0	Open Circuit (V)
SEQUENCER	TOGGLE	TRUE	Run as Sequence
PSTATMODEL	IQUANT	53	Pstat Model
PSTATSECTION	LABEL	IFC5000-01520	Pstat Section
PSTATSERIALNO	LABEL	01520	Pstat Serial Number
CTRLMODE	IQUANT	0	Control Mode
ELECTROMETER	IQUANT	1	RE=0 or CS=1
IESTAB	IQUANT	0	I/E Stability
CASPEED	IQUANT	4	Control Amp Speed
CONVENTION	IQUANT	1	Current Convention
ICHRANGE	IQUANT	2	Ich Range
ICHRANGEMODE	TOGGLE	T	Ich Auto Range
ICHOFFSETENABLE	TOGGLE	F	Ich Offset Enable
ICHOFFSET	QUANT	0	Ich Offset (V)
ICHFILTER	IQUANT	1	Ich Filter
VCHRANGE	IQUANT	2	Vch Range
VCHRANGEMODE	TOGGLE	T	Vch Auto Range
VCHOFFSETENABLE	TOGGLE	F	Vch Offset Enable
VCHOFFSET	QUANT	0	Vch Offset (V)
VCHFILTER	IQUANT	1	Vch Filter
IERANGELOWERLIMIT	IQUANT	9	I/E Range Lower Limit
IERANGEMODE	TOGGLE	F	I/E AutoRange
IERANGE	IQUANT	9	I/E Range
ACHSELECT	IQUANT	1	Ach Select
ACHRANGE	IQUANT	2	Ach Range
ACHOFFSETENABLE	TOGGLE	F	Ach Offset Enable
ACHOFFSET	QUANT	0	Ach Offset (V)
ACHFILTER	IQUANT	1	Ach Filter
CABLEID	IQUANT	14	Cable ID
DCCALDATE	LABEL	5-7-2017	DC Calibration Date
ACCALDATE	LABEL	12/3/2015	AC Calibration Date
FRAMEWORKVERSION	QUANT	7.01	Framework Version
INSTRUMENTVERSION	LABEL	4.00	Instrument Version
CURVE	TABLE	70
	Pt	T	Vf	Im	Vu	Pwr	Sig	Ach	Temp	IERange	Over
	#	s	V	A	V	W	V	V	deg C	#	bits
	0	0.013333	8.45163E-001	-9.96074E-005	0.00000E+000	-8.41844E-005	-5.99601E-002	8.45446E-001	3.57670E+000	9	...........
	1	0.026667	8.31919E-001	-9.89072E-005	0.00000E+000	-8.22828E-005	-5.99601E-002	8.32233E-001	3.57670E+000	9	...........
	2	0.04	8.19284E-001	-9.90999E-005	0.00000E+000	-8.11910E-005	-5.99601E-002	8.19592E-001	3.57670E+000	9	...........
	3	0.053333	8.07015E-001	-9.83060E-005	0.00000E+000	-7.93344E-005	-5.99601E-002	8.07297E-001	3.57670E+000	9	...........
	4	0.066667	7.95000E-001	-9.85259E-005	0.00000E+000	-7.83281E-005	-5.99601E-002	7.95273E-001	3.57670E+000	9	...........
	5	0.08	7.83177E-001	-9.73485E-005	0.00000E+000	-7.62412E-005	-5.99601E-002	7.83459E-001	3.57670E+000	9	...........
	6	0.093333	7.71497E-001	-9.86749E-005	0.00000E+000	-7.61273E-005	-5.99601E-002	7.71767E-001	3.57670E+000	9	...........
	7	0.106667	7.59929E-001	-9.90437E-005	0.00000E+000	-7.52661E-005	-5.99601E-002	7.60177E-001	3.57670E+000	9	...........
	8	0.12	7.48501E-001	-9.91500E-005	0.00000E+000	-7.42138E-005	-5.99601E-002	7.48712E-001	3.57670E+000	9	...........
	9	0.133333	7.37123E-001	-9.94396E-005	0.00000E+000	-7.32992E-005	-5.99601E-002	7.37318E-001	3.57670E+000	9	...........
	10	0.146667	7.25863E-001	-1.00060E-004	0.00000E+000	-7.26295E-005	-5.99601E-002	7.26054E-001	3.57670E+000	9	...........
	11	0.16	7.14643E-001	-9.87936E-005	0.00000E+000	-7.06022E-005	-5.99601E-002	7.14851E-001	3.57670E+000	9	...........
	12	0.173333	7.03511E-001	-9.96001E-005	0.00000E+000	-7.00698E-005	-5.99601E-002	7.03733E-001	3.57670E+000	9	...........
	13	0.186667	6.92517E-001	-9.89280E-005	0.00000E+000	-6.85094E-005	-5.99601E-002	6.92708E-001	3.57670E+000	9	...........
	14	0.2	6.81553E-001	-9.93740E-005	0.00000E+000	-6.77287E-005	-5.99601E-002	6.81755E-001	3.57670E+000	9	...........
	15	0.213333	6.70669E-001	-9.94031E-005	0.00000E+000	-6.66666E-005	-5.99601E-002	6.70877E-001	3.57670E+000	9	...........
	16	0.226667	6.59807E-001	-9.92594E-005	0.00000E+000	-6.54920E-005	-5.99601E-002	6.60009E-001	3.57670E+000	9	...........
	17	0.24	6.49031E-001	-9.99553E-005	0.00000E+000	-6.48741E-005	-5.99601E-002	6.49227E-001	3.57670E+000	9	...........
	18	0.253333	6.38187E-001	-9.87759E-005	0.00000E+000	-6.30375E-005	-5.99601E-002	6.38438E-001	3.57670E+000	9	...........
	19	0.266667	6.27320E-001	-9.85707E-005	0.00000E+000	-6.18353E-005	-5.99601E-002	6.27539E-001	3.57670E+000	9	...........
	20	0.28	6.16335E-001	-9.72808E-005	0.00000E+000	-5.99576E-005	-5.99601E-002	6.16566E-001	3.57670E+000	9	...........
	21	0.293333	6.05124E-001	-9.84602E-005	0.00000E+000	-5.95806E-005	-5.99601E-002	6.05396E-001	3.57670E+000	9	...........
	22	0.306667	5.93780E-001	-9.92385E-005	0.00000E+000	-5.89258E-005	-5.99601E-002	5.94046E-001	3.57670E+000	9	...........
	23	0.32	5.82199E-001	-9.87738E-005	0.00000E+000	-5.75060E-005	-5.99601E-002	5.82457E-001	3.57670E+000	9	...........
	24	0.333333	5.70432E-001	-9.84613E-005	0.00000E+000	-5.61655E-005	-5.99601E-002	5.70673E-001	3.57670E+000	9	...........
	25	0.346667	5.58400E-001	-9.77236E-005	0.00000E+000	-5.45689E-005	-5.99601E-002	5.58654E-001	3.57670E+000	9	...........
	26	0.36	5.46201E-001	-9.88270E-005	0.00000E+000	-5.39794E-005	-5.99601E-002	5.46419E-001	3.57670E+000	9	...........
	27	0.373333	5.33780E-001	-9.79685E-005	0.00000E+000	-5.22936E-005	-5.99601E-002	5.34004E-001	3.57670E+000	9	...........
	28	0.386667	5.21218E-001	-9.92448E-005	0.00000E+000	-5.17281E-005	-5.99601E-002	5.21410E-001	3.57670E+000	9	...........
	29	0.4	5.08443E-001	-9.93844E-005	0.00000E+000	-5.05313E-005	-5.99601E-002	5.08658E-001	3.57670E+000	9	...........
	30	0.413333	4.95563E-001	-9.80799E-005	0.00000E+000	-4.86048E-005	-5.99601E-002	4.95788E-001	3.57670E+000	9	...........
	31	0.426667	4.82756E-001	-9.91041E-005	0.00000E+000	-4.78431E-005	-5.99601E-002	4.82885E-001	3.57670E+000	9	...........
	32	0.44	4.69765E-001	-9.81539E-005	0.00000E+000	-4.61093E-005	-5.99601E-002	4.69862E-001	3.57670E+000	9	...........
	33	0.453333	4.56549E-001	-1.00393E-004	0.00000E+000	-4.58343E-005	-5.99601E-002	4.56650E-001	3.57670E+000	9	...........
	34	0.466667	4.43265E-001	-9.84331E-005	0.00000E+000	-4.36319E-005	-5.99601E-002	4.43360E-001	3.57670E+000	9	...........
	35	0.48	4.29902E-001	-9.85717E-005	0.00000E+000	-4.23761E-005	-5.99601E-002	4.30001E-001	3.57670E+000	9	...........
	36	0.493333	4.16480E-001	-9.86728E-005	0.00000E+000	-4.10952E-005	-5.99601E-002	4.16577E-001	3.57670E+000	9	...........
	37	0.506667	4.03018E-001	-9.99032E-005	0.00000E+000	-4.02628E-005	-5.99601E-002	4.03105E-001	3.57670E+000	9	...........
	38	0.52	3.89538E-001	-9.73808E-005	0.00000E+000	-3.79335E-005	-5.99601E-002	3.89615E-001	3.57670E+000	9	...........
	39	0.533333	3.76031E-001	-9.79945E-005	0.00000E+000	-3.68490E-005	-5.99601E-002	3.76111E-001	3.57670E+000	9	...........
	40	0.546667	3.62529E-001	-9.92510E-005	0.00000E+000	-3.59813E-005	-5.99601E-002	3.62604E-001	3.57670E+000	9	...........
	41	0.56	3.49035E-001	-9.91375E-005	0.00000E+000	-3.46024E-005	-5.99601E-002	3.49104E-001	3.57670E+000	9	...........
	42	0.573333	3.35562E-001	-9.81175E-005	0.00000E+000	-3.29245E-005	-5.99601E-002	3.35632E-001	3.57670E+000	9	...........
	43	0.586667	3.22129E-001	-9.91541E-005	0.00000E+000	-3.19404E-005	-5.99601E-002	3.22191E-001	3.57670E+000	9	...........
	44	0.6	3.08728E-001	-9.70245E-005	0.00000E+000	-2.99541E-005	-5.99601E-002	3.08790E-001	3.57670E+000	9	...........
	45	0.613333	2.95369E-001	-9.87290E-005	0.00000E+000	-2.91614E-005	-5.99601E-002	2.95429E-001	3.57670E+000	9	...........
	46	0.626667	2.82067E-001	-9.88103E-005	0.00000E+000	-2.78711E-005	-5.99601E-002	2.82122E-001	3.57670E+000	9	...........
	47	0.64	2.68823E-001	-9.82977E-005	0.00000E+000	-2.64247E-005	-5.99601E-002	2.68879E-001	3.57670E+000	9	...........
	48	0.653333	2.55648E-001	-9.73152E-005	0.00000E+000	-2.48784E-005	-5.99601E-002	2.55699E-001	3.57670E+000	9	...........
	49	0.666667	2.42539E-001	-1.00685E-004	0.00000E+000	-2.44200E-005	-5.99601E-002	2.42585E-001	3.57757E+000	9	...........
	50	0.68	2.29509E-001	-9.86728E-005	0.00000E+000	-2.26462E-005	-5.99601E-002	2.29548E-001	3.57770E+000	9	...........
	51	0.693333	2.16555E-001	-9.82123E-005	0.00000E+000	-2.12684E-005	-5.99601E-002	2.16599E-001	3.57770E+000	9	...........
	52	0.706667	2.03677E-001	-9.76549E-005	0.00000E+000	-1.98901E-005	-5.99601E-002	2.03721E-001	3.57770E+000	9	...........
	53	0.72	1.90876E-001	-9.76090E-005	0.00000E+000	-1.86313E-005	-5.99601E-002	1.90915E-001	3.57770E+000	9	...........
	54	0.733333	1.78162E-001	-9.74788E-005	0.00000E+000	-1.73670E-005	-5.99601E-002	1.78203E-001	3.57770E+000	9	...........
	55	0.746667	1.65531E-001	-9.80028E-005	0.00000E+000	-1.62225E-005	-5.99601E-002	1.65558E-001	3.57770E+000	9	...........
	56	0.76	1.52969E-001	-9.89020E-005	0.00000E+000	-1.51289E-005	-5.99601E-002	1.52996E-001	3.57770E+000	9	...........
	57	0.773333	1.40487E-001	-9.76851E-005	0.00000E+000	-1.37234E-005	-5.99601E-002	1.40521E-001	3.57770E+000	9	...........
	58	0.786667	1.28094E-001	-9.80070E-005	0.00000E+000	-1.25541E-005	-5.99601E-002	1.28119E-001	3.57770E+000	9	...........
	59	0.8	1.15785E-001	-9.85686E-005	0.00000E+000	-1.14127E-005	-5.99601E-002	1.15809E-001	3.57770E+000	9	...........
	60	0.813333	1.03559E-001	-9.81695E-005	0.00000E+000	-1.01664E-005	-5.99601E-002	1.03584E-001	3.57770E+000	9	...........
	61	0.826667	9.14407E-002	-9.73433E-005	0.00000E+000	-8.90114E-006	-5.99601E-002	9.14629E-002	3.57770E+000	9	...........
	62	0.84	7.94410E-002	-9.83185E-005	0.00000E+000	-7.81052E-006	-5.99601E-002	7.94554E-002	3.57770E+000	9	...........
	63	0.853333	6.75541E-002	-9.77674E-005	0.00000E+000	-6.60459E-006	-5.99601E-002	6.75597E-002	3.57770E+000	9	...........
	64	0.866667	5.57933E-002	-9.86342E-005	0.00000E+000	-5.50313E-006	-5.99601E-002	5.58004E-002	3.57770E+000	9	...........
	65	0.88	4.42056E-002	-9.85415E-005	0.00000E+000	-4.35609E-006	-5.99601E-002	4.42146E-002	3.57770E+000	9	...........
	66	0.893333	3.27452E-002	-9.78497E-005	0.00000E+000	-3.20411E-006	-5.99601E-002	3.27468E-002	3.57770E+000	9	...........
	67	0.906667	2.14345E-002	-9.90729E-005	0.00000E+000	-2.12357E-006	-5.99601E-002	2.14261E-002	3.57770E+000	9	...........
	68	0.92	1.02973E-002	-9.93667E-005	0.00000E+000	-1.02321E-006	-5.99601E-002	1.02833E-002	3.57770E+000	9	...........
	69	0.928333	1.37628E-003	-9.90020E-005	0.00000E+000	-1.36255E-007	-5.99601E-002	1.35992E-003	3.57770E+000	9	...........
STARTTIMEOFFSET	QUANT	1934.924	Start Time Offset (s)
