EXPLAIN
TAG	PWR800_DISCHARGE
TITLE	LABEL	PWR Cyclic Charge Discharge (Cell) - Discharge Step	Test &Identifier
DATE	LABEL	12-7-2017	Date
TIME	LABEL	16:10:20	Time
NOTES	NOTES	2	&Notes...
	supercap test cell
	6M KOH
PSTAT	PSTAT	IFC5000-01520	Potentiostat
CAPACITY	QUANT	1.00000E-003	Capacity (A-hr)
CELLTYPE	SELECTOR	1	&Cell Type
WORKINGCONNECTION	SELECTOR	0	&Working Lead
MAXDISCHARGETIME	VARIABLEANDUNITS	1.00000E+002	s	1.00000E+002	second(s)	Max &Discharge Time
DISCHARGEMODE	MULTIPARAM	0	1.00000E-004	&Discharge Mode	Constant Current	Amp(s)
SAMPLETIME	QUANT	1.00000E-002	Sa&mple Period (s)
DISCHARGESTOPAT1	MULTIPARAM	3	0.00000E+000	Discharge Stop At &1	Voltage < Limit	V
DISCHARGESTOPAT2	MULTIPARAM	0	0.00000E+000	Discharge Stop At &2	None	N/A
AESBHCSELECTOR	TOGGLE	F	Save Both Half Cells
IRCOMP	TOGGLE	F	IR &Measure
EOC	QUANT	0	Open Circuit (V)
SEQUENCER	TOGGLE	TRUE	Run as Sequence
PSTATMODEL	IQUANT	53	Pstat Model
PSTATSECTION	LABEL	IFC5000-01520	Pstat Section
PSTATSERIALNO	LABEL	01520	Pstat Serial Number
CTRLMODE	IQUANT	0	Control Mode
ELECTROMETER	IQUANT	1	RE=0 or CS=1
IESTAB	IQUANT	0	I/E Stability
CASPEED	IQUANT	4	Control Amp Speed
CONVENTION	IQUANT	1	Current Convention
ICHRANGE	IQUANT	2	Ich Range
ICHRANGEMODE	TOGGLE	T	Ich Auto Range
ICHOFFSETENABLE	TOGGLE	F	Ich Offset Enable
ICHOFFSET	QUANT	0	Ich Offset (V)
ICHFILTER	IQUANT	1	Ich Filter
VCHRANGE	IQUANT	2	Vch Range
VCHRANGEMODE	TOGGLE	T	Vch Auto Range
VCHOFFSETENABLE	TOGGLE	F	Vch Offset Enable
VCHOFFSET	QUANT	0	Vch Offset (V)
VCHFILTER	IQUANT	1	Vch Filter
IERANGELOWERLIMIT	IQUANT	9	I/E Range Lower Limit
IERANGEMODE	TOGGLE	F	I/E AutoRange
IERANGE	IQUANT	9	I/E Range
ACHSELECT	IQUANT	1	Ach Select
ACHRANGE	IQUANT	2	Ach Range
ACHOFFSETENABLE	TOGGLE	F	Ach Offset Enable
ACHOFFSET	QUANT	0	Ach Offset (V)
ACHFILTER	IQUANT	1	Ach Filter
CABLEID	IQUANT	14	Cable ID
DCCALDATE	LABEL	5-7-2017	DC Calibration Date
ACCALDATE	LABEL	12/3/2015	AC Calibration Date
FRAMEWORKVERSION	QUANT	7.01	Framework Version
INSTRUMENTVERSION	LABEL	4.00	Instrument Version
CURVE	TABLE	76
	Pt	T	Vf	Im	Vu	Pwr	Sig	Ach	Temp	IERange	Over
	#	s	V	A	V	W	V	V	deg C	#	bits
	0	0.013333	8.17526E-001	-9.83165E-005	0.00000E+000	-8.03763E-005	-5.99601E-002	8.17820E-001	3.57860E+000	9	...........
	1	0.026667	8.03947E-001	-9.90624E-005	0.00000E+000	-7.96410E-005	-5.99601E-002	8.04225E-001	3.57860E+000	9	...........
	2	0.04	7.90906E-001	-9.90156E-005	0.00000E+000	-7.83120E-005	-5.99601E-002	7.91165E-001	3.57860E+000	9	...........
	3	0.053333	7.78200E-001	-9.90333E-005	0.00000E+000	-7.70677E-005	-5.99601E-002	7.78467E-001	3.57860E+000	9	...........
	4	0.066667	7.65727E-001	-9.90114E-005	0.00000E+000	-7.58157E-005	-5.99601E-002	7.65987E-001	3.57772E+000	9	...........
	5	0.08	7.53409E-001	-9.84852E-005	0.00000E+000	-7.41996E-005	-5.99601E-002	7.53695E-001	3.57720E+000	9	...........
	6	0.093333	7.41232E-001	-9.88978E-005	0.00000E+000	-7.33062E-005	-5.99601E-002	7.41535E-001	3.57720E+000	9	...........
	7	0.106667	7.29200E-001	-9.83894E-005	0.00000E+000	-7.17455E-005	-5.99601E-002	7.29483E-001	3.57720E+000	9	...........
	8	0.12	7.17218E-001	-9.87759E-005	0.00000E+000	-7.08438E-005	-5.99601E-002	7.17495E-001	3.57720E+000	9	...........
	9	0.133333	7.05307E-001	-9.85259E-005	0.00000E+000	-6.94910E-005	-5.99601E-002	7.05599E-001	3.57720E+000	9	...........
	10	0.146667	6.93490E-001	-9.82623E-005	0.00000E+000	-6.81439E-005	-5.99601E-002	6.93779E-001	3.57720E+000	9	...........
	11	0.16	6.81743E-001	-9.85540E-005	0.00000E+000	-6.71885E-005	-5.99601E-002	6.82022E-001	3.57720E+000	9	...........
	12	0.173333	6.70053E-001	-9.81362E-005	0.00000E+000	-6.57564E-005	-5.99601E-002	6.70315E-001	3.57720E+000	9	...........
	13	0.186667	6.58399E-001	-9.87936E-005	0.00000E+000	-6.50456E-005	-5.99601E-002	6.58677E-001	3.57720E+000	9	...........
	14	0.2	6.46843E-001	-9.87197E-005	0.00000E+000	-6.38561E-005	-5.99601E-002	6.47112E-001	3.57720E+000	9	...........
	15	0.213333	6.35335E-001	-9.89395E-005	0.00000E+000	-6.28597E-005	-5.99601E-002	6.35582E-001	3.57720E+000	9	...........
	16	0.226667	6.23901E-001	-9.84133E-005	0.00000E+000	-6.14002E-005	-5.99601E-002	6.24144E-001	3.57720E+000	9	...........
	17	0.24	6.12492E-001	-9.90583E-005	0.00000E+000	-6.06724E-005	-5.99601E-002	6.12753E-001	3.57720E+000	9	...........
	18	0.253333	6.01152E-001	-9.90562E-005	0.00000E+000	-5.95479E-005	-5.99601E-002	6.01427E-001	3.57720E+000	9	...........
	19	0.266667	5.89886E-001	-9.80310E-005	0.00000E+000	-5.78271E-005	-5.99601E-002	5.90166E-001	3.57720E+000	9	...........
	20	0.28	5.78699E-001	-9.84894E-005	0.00000E+000	-5.69957E-005	-5.99601E-002	5.78948E-001	3.57720E+000	9	...........
	21	0.293333	5.67561E-001	-9.86373E-005	0.00000E+000	-5.59827E-005	-5.99601E-002	5.67787E-001	3.57720E+000	9	...........
	22	0.306667	5.56465E-001	-9.76299E-005	0.00000E+000	-5.43276E-005	-5.99601E-002	5.56706E-001	3.57720E+000	9	...........
	23	0.32	5.45459E-001	-9.80528E-005	0.00000E+000	-5.34838E-005	-5.99601E-002	5.45692E-001	3.57720E+000	9	...........
	24	0.333333	5.34471E-001	-9.78893E-005	0.00000E+000	-5.23190E-005	-5.99601E-002	5.34727E-001	3.57720E+000	9	...........
	25	0.346667	5.23560E-001	-9.89666E-005	0.00000E+000	-5.18149E-005	-5.99601E-002	5.23784E-001	3.57720E+000	9	...........
	26	0.36	5.12677E-001	-9.82800E-005	0.00000E+000	-5.03859E-005	-5.99601E-002	5.12913E-001	3.57720E+000	9	...........
	27	0.373333	5.01833E-001	-9.88061E-005	0.00000E+000	-4.95842E-005	-5.99601E-002	5.02058E-001	3.57720E+000	9	...........
	28	0.386667	4.91065E-001	-9.86103E-005	0.00000E+000	-4.84241E-005	-5.99601E-002	4.91279E-001	3.57720E+000	9	...........
	29	0.4	4.80564E-001	-9.94896E-005	0.00000E+000	-4.78112E-005	-5.99601E-002	4.80658E-001	3.57720E+000	9	...........
	30	0.413333	4.69879E-001	-9.85759E-005	0.00000E+000	-4.63187E-005	-5.99601E-002	4.69976E-001	3.57720E+000	9	...........
	31	0.426667	4.59166E-001	-9.83738E-005	0.00000E+000	-4.51699E-005	-5.99601E-002	4.59266E-001	3.57720E+000	9	...........
	32	0.44	4.48464E-001	-9.88655E-005	0.00000E+000	-4.43376E-005	-5.99601E-002	4.48559E-001	3.57720E+000	9	...........
	33	0.453333	4.37769E-001	-9.88041E-005	0.00000E+000	-4.32534E-005	-5.99601E-002	4.37857E-001	3.57720E+000	9	...........
	34	0.466667	4.27069E-001	-9.85780E-005	0.00000E+000	-4.20996E-005	-5.99601E-002	4.27163E-001	3.57720E+000	9	...........
	35	0.48	4.16369E-001	-9.94313E-005	0.00000E+000	-4.14001E-005	-5.99601E-002	4.16454E-001	3.57720E+000	9	...........
	36	0.493333	4.05656E-001	-9.84404E-005	0.00000E+000	-3.99329E-005	-5.99601E-002	4.05745E-001	3.57720E+000	9	...........
	37	0.506667	3.94935E-001	-9.95229E-005	0.00000E+000	-3.93051E-005	-5.99601E-002	3.95013E-001	3.57720E+000	9	...........
	38	0.52	3.84203E-001	-9.82071E-005	0.00000E+000	-3.77314E-005	-5.99601E-002	3.84275E-001	3.57720E+000	9	...........
	39	0.533333	3.73447E-001	-9.94042E-005	0.00000E+000	-3.71222E-005	-5.99601E-002	3.73524E-001	3.57720E+000	9	...........
	40	0.546667	3.62687E-001	-9.79935E-005	0.00000E+000	-3.55410E-005	-5.99601E-002	3.62758E-001	3.57720E+000	9	...........
	41	0.56	3.51919E-001	-9.84123E-005	0.00000E+000	-3.46331E-005	-5.99601E-002	3.51987E-001	3.57720E+000	9	...........
	42	0.573333	3.41133E-001	-9.93375E-005	0.00000E+000	-3.38873E-005	-5.99601E-002	3.41202E-001	3.57720E+000	9	...........
	43	0.586667	3.30342E-001	-9.81706E-005	0.00000E+000	-3.24299E-005	-5.99601E-002	3.30405E-001	3.57720E+000	9	...........
	44	0.6	3.19535E-001	-9.83165E-005	0.00000E+000	-3.14155E-005	-5.99601E-002	3.19597E-001	3.57720E+000	9	...........
	45	0.613333	3.08718E-001	-9.86238E-005	0.00000E+000	-3.04469E-005	-5.99601E-002	3.08782E-001	3.57720E+000	9	...........
	46	0.626667	2.97892E-001	-9.85373E-005	0.00000E+000	-2.93535E-005	-5.99601E-002	2.97954E-001	3.57720E+000	9	...........
	47	0.64	2.87057E-001	-9.91552E-005	0.00000E+000	-2.84631E-005	-5.99601E-002	2.87113E-001	3.57720E+000	9	...........
	48	0.653333	2.76212E-001	-9.90124E-005	0.00000E+000	-2.73484E-005	-5.99601E-002	2.76271E-001	3.57720E+000	9	...........
	49	0.666667	2.65371E-001	-9.84008E-005	0.00000E+000	-2.61127E-005	-5.99601E-002	2.65426E-001	3.57720E+000	9	...........
	50	0.68	2.54529E-001	-9.90947E-005	0.00000E+000	-2.52225E-005	-5.99601E-002	2.54584E-001	3.57720E+000	9	...........
	51	0.693333	2.43705E-001	-9.91520E-005	0.00000E+000	-2.41639E-005	-5.99601E-002	2.43750E-001	3.57720E+000	9	...........
	52	0.706667	2.32883E-001	-9.82935E-005	0.00000E+000	-2.28909E-005	-5.99601E-002	2.32926E-001	3.57720E+000	9	...........
	53	0.72	2.22068E-001	-9.91145E-005	0.00000E+000	-2.20102E-005	-5.99601E-002	2.22114E-001	3.57720E+000	9	...........
	54	0.733333	2.11285E-001	-9.83560E-005	0.00000E+000	-2.07812E-005	-5.99601E-002	2.11326E-001	3.57720E+000	9	...........
	55	0.746667	2.00539E-001	-9.82967E-005	0.00000E+000	-1.97123E-005	-5.99601E-002	2.00574E-001	3.57720E+000	9	...........
	56	0.76	1.89799E-001	-9.93333E-005	0.00000E+000	-1.88534E-005	-5.99601E-002	1.89838E-001	3.57720E+000	9	...........
	57	0.773333	1.79112E-001	-9.90989E-005	0.00000E+000	-1.77498E-005	-5.99601E-002	1.79147E-001	3.57720E+000	9	...........
	58	0.786667	1.68465E-001	-9.76726E-005	0.00000E+000	-1.64545E-005	-5.99601E-002	1.68503E-001	3.57720E+000	9	...........
	59	0.8	1.57866E-001	-9.83852E-005	0.00000E+000	-1.55317E-005	-5.99601E-002	1.57899E-001	3.57720E+000	9	...........
	60	0.813333	1.47318E-001	-9.83644E-005	0.00000E+000	-1.44908E-005	-5.99601E-002	1.47345E-001	3.57720E+000	9	...........
	61	0.826667	1.36831E-001	-9.90604E-005	0.00000E+000	-1.35545E-005	-5.99601E-002	1.36853E-001	3.57720E+000	9	...........
	62	0.84	1.26417E-001	-9.89259E-005	0.00000E+000	-1.25059E-005	-5.99601E-002	1.26444E-001	3.57720E+000	9	...........
	63	0.853333	1.16069E-001	-9.86009E-005	0.00000E+000	-1.14445E-005	-5.99601E-002	1.16092E-001	3.57720E+000	9	...........
	64	0.866667	1.05802E-001	-9.93469E-005	0.00000E+000	-1.05111E-005	-5.99601E-002	1.05825E-001	3.57720E+000	9	...........
	65	0.88	9.56286E-002	-9.87030E-005	0.00000E+000	-9.43883E-006	-5.99601E-002	9.56397E-002	3.57720E+000	9	...........
	66	0.893333	8.55395E-002	-9.87697E-005	0.00000E+000	-8.44871E-006	-5.99601E-002	8.55543E-002	3.57720E+000	9	...........
	67	0.906667	7.55619E-002	-9.85769E-005	0.00000E+000	-7.44866E-006	-5.99601E-002	7.55675E-002	3.57720E+000	9	...........
	68	0.92	6.56826E-002	-9.91124E-005	0.00000E+000	-6.50996E-006	-5.99601E-002	6.56857E-002	3.57720E+000	9	...........
	69	0.933333	5.59185E-002	-9.79570E-005	0.00000E+000	-5.47761E-006	-5.99601E-002	5.59210E-002	3.57720E+000	9	...........
	70	0.946667	4.62944E-002	-9.86155E-005	0.00000E+000	-4.56535E-006	-5.99601E-002	4.63011E-002	3.57720E+000	9	...........
	71	0.96	3.67954E-002	-9.87009E-005	0.00000E+000	-3.63174E-006	-5.99601E-002	3.67953E-002	3.57720E+000	9	...........
	72	0.97333	2.74129E-002	-9.87843E-005	0.00000E+000	-2.70797E-006	-5.99601E-002	2.74092E-002	3.57720E+000	9	...........
	73	0.98667	1.81818E-002	-9.87103E-005	0.00000E+000	-1.79473E-006	-5.99601E-002	1.81677E-002	3.57720E+000	9	...........
	74	1	9.08549E-003	-9.79466E-005	0.00000E+000	-8.89893E-007	-5.99601E-002	9.06690E-003	3.57720E+000	9	...........
	75	1.00833	1.80243E-003	-9.88720E-005	0.00000E+000	-1.78210E-007	-5.99601E-002	1.77543E-003	3.57720E+000	9	...........
STARTTIMEOFFSET	QUANT	10.36167	Start Time Offset (s)
