EXPLAIN
TAG	PWR800_DISCHARGE
TITLE	LABEL	PWR Cyclic Charge Discharge (Cell) - Discharge Step	Test &Identifier
DATE	LABEL	12-7-2017	Date
TIME	LABEL	16:12:10	Time
NOTES	NOTES	2	&Notes...
	supercap test cell
	6M KOH
PSTAT	PSTAT	IFC5000-01520	Potentiostat
CAPACITY	QUANT	1.00000E-003	Capacity (A-hr)
CELLTYPE	SELECTOR	1	&Cell Type
WORKINGCONNECTION	SELECTOR	0	&Working Lead
MAXDISCHARGETIME	VARIABLEANDUNITS	1.00000E+002	s	1.00000E+002	second(s)	Max &Discharge Time
DISCHARGEMODE	MULTIPARAM	0	1.00000E-004	&Discharge Mode	Constant Current	Amp(s)
SAMPLETIME	QUANT	1.00000E-002	Sa&mple Period (s)
DISCHARGESTOPAT1	MULTIPARAM	3	0.00000E+000	Discharge Stop At &1	Voltage < Limit	V
DISCHARGESTOPAT2	MULTIPARAM	0	0.00000E+000	Discharge Stop At &2	None	N/A
AESBHCSELECTOR	TOGGLE	F	Save Both Half Cells
IRCOMP	TOGGLE	F	IR &Measure
EOC	QUANT	0	Open Circuit (V)
SEQUENCER	TOGGLE	TRUE	Run as Sequence
PSTATMODEL	IQUANT	53	Pstat Model
PSTATSECTION	LABEL	IFC5000-01520	Pstat Section
PSTATSERIALNO	LABEL	01520	Pstat Serial Number
CTRLMODE	IQUANT	0	Control Mode
ELECTROMETER	IQUANT	1	RE=0 or CS=1
IESTAB	IQUANT	0	I/E Stability
CASPEED	IQUANT	4	Control Amp Speed
CONVENTION	IQUANT	1	Current Convention
ICHRANGE	IQUANT	2	Ich Range
ICHRANGEMODE	TOGGLE	T	Ich Auto Range
ICHOFFSETENABLE	TOGGLE	F	Ich Offset Enable
ICHOFFSET	QUANT	0	Ich Offset (V)
ICHFILTER	IQUANT	1	Ich Filter
VCHRANGE	IQUANT	2	Vch Range
VCHRANGEMODE	TOGGLE	T	Vch Auto Range
VCHOFFSETENABLE	TOGGLE	F	Vch Offset Enable
VCHOFFSET	QUANT	0	Vch Offset (V)
VCHFILTER	IQUANT	1	Vch Filter
IERANGELOWERLIMIT	IQUANT	9	I/E Range Lower Limit
IERANGEMODE	TOGGLE	F	I/E AutoRange
IERANGE	IQUANT	9	I/E Range
ACHSELECT	IQUANT	1	Ach Select
ACHRANGE	IQUANT	2	Ach Range
ACHOFFSETENABLE	TOGGLE	F	Ach Offset Enable
ACHOFFSET	QUANT	0	Ach Offset (V)
ACHFILTER	IQUANT	1	Ach Filter
CABLEID	IQUANT	14	Cable ID
DCCALDATE	LABEL	5-7-2017	DC Calibration Date
ACCALDATE	LABEL	12/3/2015	AC Calibration Date
FRAMEWORKVERSION	QUANT	7.01	Framework Version
INSTRUMENTVERSION	LABEL	4.00	Instrument Version
CURVE	TABLE	73
	Pt	T	Vf	Im	Vu	Pwr	Sig	Ach	Temp	IERange	Over
	#	s	V	A	V	W	V	V	deg C	#	bits
	0	0.013333	8.38698E-001	-9.86936E-005	0.00000E+000	-8.27741E-005	-5.99601E-002	8.39002E-001	3.57860E+000	9	...........
	1	0.026667	8.25527E-001	-9.87676E-005	0.00000E+000	-8.15353E-005	-5.99601E-002	8.25802E-001	3.57860E+000	9	...........
	2	0.04	8.12909E-001	-9.87520E-005	0.00000E+000	-8.02764E-005	-5.99601E-002	8.13160E-001	3.57860E+000	9	...........
	3	0.053333	8.00680E-001	-9.84061E-005	0.00000E+000	-7.87917E-005	-5.99601E-002	8.00907E-001	3.57860E+000	9	...........
	4	0.066667	7.88642E-001	-9.92666E-005	0.00000E+000	-7.82858E-005	-5.99601E-002	7.88876E-001	3.57860E+000	9	...........
	5	0.08	7.76800E-001	-9.78716E-005	0.00000E+000	-7.60266E-005	-5.99601E-002	7.77032E-001	3.57860E+000	9	...........
	6	0.093333	7.65030E-001	-9.88593E-005	0.00000E+000	-7.56304E-005	-5.99601E-002	7.65262E-001	3.57860E+000	9	...........
	7	0.106667	7.53299E-001	-9.85332E-005	0.00000E+000	-7.42249E-005	-5.99601E-002	7.53565E-001	3.57860E+000	9	...........
	8	0.12	7.41590E-001	-9.92073E-005	0.00000E+000	-7.35712E-005	-5.99601E-002	7.41849E-001	3.57860E+000	9	...........
	9	0.133333	7.29869E-001	-9.85509E-005	0.00000E+000	-7.19292E-005	-5.99601E-002	7.30103E-001	3.57860E+000	9	...........
	10	0.146667	7.18101E-001	-9.87301E-005	0.00000E+000	-7.08981E-005	-5.99601E-002	7.18334E-001	3.57860E+000	9	...........
	11	0.16	7.06269E-001	-9.90791E-005	0.00000E+000	-6.99765E-005	-5.99601E-002	7.06525E-001	3.57860E+000	9	...........
	12	0.173333	6.94442E-001	-9.82258E-005	0.00000E+000	-6.82121E-005	-5.99601E-002	6.94683E-001	3.57860E+000	9	...........
	13	0.186667	6.82566E-001	-9.90656E-005	0.00000E+000	-6.76188E-005	-5.99601E-002	6.82764E-001	3.57860E+000	9	...........
	14	0.2	6.70686E-001	-9.84779E-005	0.00000E+000	-6.60477E-005	-5.99601E-002	6.70895E-001	3.57860E+000	9	...........
	15	0.213333	6.58734E-001	-9.84571E-005	0.00000E+000	-6.48570E-005	-5.99601E-002	6.58960E-001	3.57860E+000	9	...........
	16	0.226667	6.46789E-001	-9.91854E-005	0.00000E+000	-6.41520E-005	-5.99601E-002	6.47031E-001	3.57860E+000	9	...........
	17	0.24	6.34860E-001	-9.85769E-005	0.00000E+000	-6.25825E-005	-5.99601E-002	6.35102E-001	3.57860E+000	9	...........
	18	0.253333	6.22929E-001	-9.86936E-005	0.00000E+000	-6.14791E-005	-5.99601E-002	6.23179E-001	3.57860E+000	9	...........
	19	0.266667	6.10937E-001	-9.93052E-005	0.00000E+000	-6.06692E-005	-5.99601E-002	6.11218E-001	3.57860E+000	9	...........
	20	0.28	5.99025E-001	-9.95792E-005	0.00000E+000	-5.96505E-005	-5.99601E-002	5.99270E-001	3.57860E+000	9	...........
	21	0.293333	5.87096E-001	-9.86665E-005	0.00000E+000	-5.79267E-005	-5.99601E-002	5.87338E-001	3.57860E+000	9	...........
	22	0.306667	5.75243E-001	-9.89645E-005	0.00000E+000	-5.69286E-005	-5.99601E-002	5.75428E-001	3.57860E+000	9	...........
	23	0.32	5.63356E-001	-9.84550E-005	0.00000E+000	-5.54652E-005	-5.99601E-002	5.63570E-001	3.57803E+000	9	...........
	24	0.333333	5.51521E-001	-9.85384E-005	0.00000E+000	-5.43460E-005	-5.99601E-002	5.51710E-001	3.57730E+000	9	...........
	25	0.346667	5.39712E-001	-9.93958E-005	0.00000E+000	-5.36451E-005	-5.99601E-002	5.39937E-001	3.57730E+000	9	...........
	26	0.36	5.27962E-001	-9.80591E-005	0.00000E+000	-5.17714E-005	-5.99601E-002	5.28170E-001	3.57730E+000	9	...........
	27	0.373333	5.16265E-001	-9.83185E-005	0.00000E+000	-5.07584E-005	-5.99601E-002	5.16483E-001	3.57730E+000	9	...........
	28	0.386667	5.04564E-001	-9.83321E-005	0.00000E+000	-4.96148E-005	-5.99601E-002	5.04814E-001	3.57730E+000	9	...........
	29	0.4	4.92945E-001	-9.87395E-005	0.00000E+000	-4.86731E-005	-5.99601E-002	4.93185E-001	3.57730E+000	9	...........
	30	0.413333	4.81593E-001	-9.91062E-005	0.00000E+000	-4.77289E-005	-5.99601E-002	4.81713E-001	3.57730E+000	9	...........
	31	0.426667	4.70127E-001	-9.81987E-005	0.00000E+000	-4.61659E-005	-5.99601E-002	4.70229E-001	3.57730E+000	9	...........
	32	0.44	4.58613E-001	-9.92646E-005	0.00000E+000	-4.55240E-005	-5.99601E-002	4.58708E-001	3.57730E+000	9	...........
	33	0.453333	4.47131E-001	-9.94021E-005	0.00000E+000	-4.44458E-005	-5.99601E-002	4.47229E-001	3.57730E+000	9	...........
	34	0.466667	4.35690E-001	-9.85905E-005	0.00000E+000	-4.29549E-005	-5.99601E-002	4.35780E-001	3.57730E+000	9	...........
	35	0.48	4.24273E-001	-9.86551E-005	0.00000E+000	-4.18566E-005	-5.99601E-002	4.24356E-001	3.57730E+000	9	...........
	36	0.493333	4.12873E-001	-9.91896E-005	0.00000E+000	-4.09527E-005	-5.99601E-002	4.12955E-001	3.57730E+000	9	...........
	37	0.506667	4.01487E-001	-9.86947E-005	0.00000E+000	-3.96246E-005	-5.99601E-002	4.01567E-001	3.57730E+000	9	...........
	38	0.52	3.90105E-001	-9.86373E-005	0.00000E+000	-3.84789E-005	-5.99601E-002	3.90182E-001	3.57730E+000	9	...........
	39	0.533333	3.78729E-001	-9.90656E-005	0.00000E+000	-3.75190E-005	-5.99601E-002	3.78802E-001	3.57730E+000	9	...........
	40	0.546667	3.67342E-001	-9.88905E-005	0.00000E+000	-3.63267E-005	-5.99601E-002	3.67414E-001	3.57730E+000	9	...........
	41	0.56	3.55949E-001	-9.88780E-005	0.00000E+000	-3.51955E-005	-5.99601E-002	3.56017E-001	3.57730E+000	9	...........
	42	0.573333	3.44543E-001	-9.94188E-005	0.00000E+000	-3.42540E-005	-5.99601E-002	3.44614E-001	3.57730E+000	9	...........
	43	0.586667	3.33108E-001	-9.85092E-005	0.00000E+000	-3.28142E-005	-5.99601E-002	3.33181E-001	3.57730E+000	9	...........
	44	0.6	3.21667E-001	-9.88947E-005	0.00000E+000	-3.18111E-005	-5.99601E-002	3.21733E-001	3.57730E+000	9	...........
	45	0.613333	3.10196E-001	-9.87030E-005	0.00000E+000	-3.06173E-005	-5.99601E-002	3.10263E-001	3.57730E+000	9	...........
	46	0.626667	2.98704E-001	-9.89187E-005	0.00000E+000	-2.95474E-005	-5.99601E-002	2.98765E-001	3.57730E+000	9	...........
	47	0.64	2.87193E-001	-9.91760E-005	0.00000E+000	-2.84826E-005	-5.99601E-002	2.87252E-001	3.57730E+000	9	...........
	48	0.653333	2.75666E-001	-9.85530E-005	0.00000E+000	-2.71677E-005	-5.99601E-002	2.75726E-001	3.57730E+000	9	...........
	49	0.666667	2.64117E-001	-9.86863E-005	0.00000E+000	-2.60647E-005	-5.99601E-002	2.64173E-001	3.57730E+000	9	...........
	50	0.68	2.52547E-001	-9.88572E-005	0.00000E+000	-2.49661E-005	-5.99601E-002	2.52601E-001	3.57730E+000	9	...........
	51	0.693333	2.40962E-001	-9.84821E-005	0.00000E+000	-2.37304E-005	-5.99601E-002	2.41006E-001	3.57730E+000	9	...........
	52	0.706667	2.29360E-001	-9.89583E-005	0.00000E+000	-2.26971E-005	-5.99601E-002	2.29403E-001	3.57730E+000	9	...........
	53	0.72	2.17751E-001	-9.92312E-005	0.00000E+000	-2.16077E-005	-5.99601E-002	2.17792E-001	3.57730E+000	9	...........
	54	0.733333	2.06129E-001	-9.87843E-005	0.00000E+000	-2.03623E-005	-5.99601E-002	2.06165E-001	3.57730E+000	9	...........
	55	0.746667	1.94497E-001	-9.82894E-005	0.00000E+000	-1.91170E-005	-5.99601E-002	1.94533E-001	3.57730E+000	9	...........
	56	0.76	1.82863E-001	-9.84081E-005	0.00000E+000	-1.79952E-005	-5.99601E-002	1.82901E-001	3.57730E+000	9	...........
	57	0.773333	1.71236E-001	-9.81810E-005	0.00000E+000	-1.68121E-005	-5.99601E-002	1.71272E-001	3.57730E+000	9	...........
	58	0.786667	1.59630E-001	-9.81779E-005	0.00000E+000	-1.56721E-005	-5.99601E-002	1.59657E-001	3.57730E+000	9	...........
	59	0.8	1.48033E-001	-9.94959E-005	0.00000E+000	-1.47286E-005	-5.99601E-002	1.48060E-001	3.57730E+000	9	...........
	60	0.813333	1.36463E-001	-9.91041E-005	0.00000E+000	-1.35240E-005	-5.99601E-002	1.36486E-001	3.57730E+000	9	...........
	61	0.826667	1.24928E-001	-9.92281E-005	0.00000E+000	-1.23963E-005	-5.99601E-002	1.24944E-001	3.57730E+000	9	...........
	62	0.84	1.13434E-001	-9.91031E-005	0.00000E+000	-1.12416E-005	-5.99601E-002	1.13449E-001	3.57730E+000	9	...........
	63	0.853333	1.01991E-001	-9.94563E-005	0.00000E+000	-1.01436E-005	-5.99601E-002	1.02009E-001	3.57730E+000	9	...........
	64	0.866667	9.06300E-002	-9.84238E-005	0.00000E+000	-8.92015E-006	-5.99601E-002	9.06421E-002	3.57730E+000	9	...........
	65	0.88	7.93317E-002	-9.87749E-005	0.00000E+000	-7.83598E-006	-5.99601E-002	7.93425E-002	3.57730E+000	9	...........
	66	0.893333	6.81237E-002	-9.85988E-005	0.00000E+000	-6.71692E-006	-5.99601E-002	6.81303E-002	3.57730E+000	9	...........
	67	0.906667	5.70027E-002	-9.90468E-005	0.00000E+000	-5.64594E-006	-5.99601E-002	5.70100E-002	3.57730E+000	9	...........
	68	0.92	4.60235E-002	-9.87290E-005	0.00000E+000	-4.54386E-006	-5.99601E-002	4.60282E-002	3.57730E+000	9	...........
	69	0.933333	3.51502E-002	-9.82581E-005	0.00000E+000	-3.45379E-006	-5.99601E-002	3.51455E-002	3.57730E+000	9	...........
	70	0.946667	2.43981E-002	-9.87468E-005	0.00000E+000	-2.40923E-006	-5.99601E-002	2.43901E-002	3.57730E+000	9	...........
	71	0.96	1.37814E-002	-9.89895E-005	0.00000E+000	-1.36422E-006	-5.99601E-002	1.37658E-002	3.57730E+000	9	...........
	72	0.97333	3.30985E-003	-9.91718E-005	0.00000E+000	-3.28244E-007	-5.99601E-002	3.28461E-003	3.57730E+000	9	...........
STARTTIMEOFFSET	QUANT	89.02834	Start Time Offset (s)
