EXPLAIN
TAG	PWR800_DISCHARGE
TITLE	LABEL	PWR Cyclic Charge Discharge (Cell) - Discharge Step	Test &Identifier
DATE	LABEL	12-7-2017	Date
TIME	LABEL	16:38:18	Time
NOTES	NOTES	2	&Notes...
	supercap test cell
	6M KOH
PSTAT	PSTAT	IFC5000-01520	Potentiostat
CAPACITY	QUANT	1.00000E-003	Capacity (A-hr)
CELLTYPE	SELECTOR	1	&Cell Type
WORKINGCONNECTION	SELECTOR	0	&Working Lead
MAXDISCHARGETIME	VARIABLEANDUNITS	1.00000E+002	s	1.00000E+002	second(s)	Max &Discharge Time
DISCHARGEMODE	MULTIPARAM	0	1.00000E-004	&Discharge Mode	Constant Current	Amp(s)
SAMPLETIME	QUANT	1.00000E-002	Sa&mple Period (s)
DISCHARGESTOPAT1	MULTIPARAM	3	0.00000E+000	Discharge Stop At &1	Voltage < Limit	V
DISCHARGESTOPAT2	MULTIPARAM	0	0.00000E+000	Discharge Stop At &2	None	N/A
AESBHCSELECTOR	TOGGLE	F	Save Both Half Cells
IRCOMP	TOGGLE	F	IR &Measure
EOC	QUANT	0	Open Circuit (V)
SEQUENCER	TOGGLE	TRUE	Run as Sequence
PSTATMODEL	IQUANT	53	Pstat Model
PSTATSECTION	LABEL	IFC5000-01520	Pstat Section
PSTATSERIALNO	LABEL	01520	Pstat Serial Number
CTRLMODE	IQUANT	0	Control Mode
ELECTROMETER	IQUANT	1	RE=0 or CS=1
IESTAB	IQUANT	0	I/E Stability
CASPEED	IQUANT	4	Control Amp Speed
CONVENTION	IQUANT	1	Current Convention
ICHRANGE	IQUANT	2	Ich Range
ICHRANGEMODE	TOGGLE	T	Ich Auto Range
ICHOFFSETENABLE	TOGGLE	F	Ich Offset Enable
ICHOFFSET	QUANT	0	Ich Offset (V)
ICHFILTER	IQUANT	1	Ich Filter
VCHRANGE	IQUANT	2	Vch Range
VCHRANGEMODE	TOGGLE	T	Vch Auto Range
VCHOFFSETENABLE	TOGGLE	F	Vch Offset Enable
VCHOFFSET	QUANT	0	Vch Offset (V)
VCHFILTER	IQUANT	1	Vch Filter
IERANGELOWERLIMIT	IQUANT	9	I/E Range Lower Limit
IERANGEMODE	TOGGLE	F	I/E AutoRange
IERANGE	IQUANT	9	I/E Range
ACHSELECT	IQUANT	1	Ach Select
ACHRANGE	IQUANT	2	Ach Range
ACHOFFSETENABLE	TOGGLE	F	Ach Offset Enable
ACHOFFSET	QUANT	0	Ach Offset (V)
ACHFILTER	IQUANT	1	Ach Filter
CABLEID	IQUANT	14	Cable ID
DCCALDATE	LABEL	5-7-2017	DC Calibration Date
ACCALDATE	LABEL	12/3/2015	AC Calibration Date
FRAMEWORKVERSION	QUANT	7.01	Framework Version
INSTRUMENTVERSION	LABEL	4.00	Instrument Version
CURVE	TABLE	71
	Pt	T	Vf	Im	Vu	Pwr	Sig	Ach	Temp	IERange	Over
	#	s	V	A	V	W	V	V	deg C	#	bits
	0	0.013333	8.44337E-001	-9.84957E-005	0.00000E+000	-8.31635E-005	-5.99601E-002	8.44615E-001	3.57790E+000	9	...........
	1	0.026667	8.31239E-001	-9.84373E-005	0.00000E+000	-8.18249E-005	-5.99601E-002	8.31522E-001	3.57790E+000	9	...........
	2	0.04	8.18712E-001	-9.86123E-005	0.00000E+000	-8.07351E-005	-5.99601E-002	8.18992E-001	3.57790E+000	9	...........
	3	0.053333	8.06578E-001	-9.90322E-005	0.00000E+000	-7.98772E-005	-5.99601E-002	8.06837E-001	3.57790E+000	9	...........
	4	0.066667	7.94716E-001	-9.91896E-005	0.00000E+000	-7.88276E-005	-5.99601E-002	7.94967E-001	3.57790E+000	9	...........
	5	0.08	7.83052E-001	-9.76507E-005	0.00000E+000	-7.64656E-005	-5.99601E-002	7.83282E-001	3.57790E+000	9	...........
	6	0.093333	7.71547E-001	-9.69735E-005	0.00000E+000	-7.48195E-005	-5.99601E-002	7.71771E-001	3.57790E+000	9	...........
	7	0.106667	7.60160E-001	-9.93615E-005	0.00000E+000	-7.55306E-005	-5.99601E-002	7.60377E-001	3.57790E+000	9	...........
	8	0.12	7.48901E-001	-9.92677E-005	0.00000E+000	-7.43416E-005	-5.99601E-002	7.49093E-001	3.57790E+000	9	...........
	9	0.133333	7.37710E-001	-9.96647E-005	0.00000E+000	-7.35236E-005	-5.99601E-002	7.37909E-001	3.57790E+000	9	...........
	10	0.146667	7.26685E-001	-9.77455E-005	0.00000E+000	-7.10302E-005	-5.99601E-002	7.26860E-001	3.57790E+000	9	...........
	11	0.16	7.15662E-001	-9.96719E-005	0.00000E+000	-7.13314E-005	-5.99601E-002	7.15885E-001	3.57790E+000	9	...........
	12	0.173333	7.04788E-001	-9.88895E-005	0.00000E+000	-6.96961E-005	-5.99601E-002	7.05013E-001	3.57790E+000	9	...........
	13	0.186667	6.93975E-001	-9.86665E-005	0.00000E+000	-6.84721E-005	-5.99601E-002	6.94200E-001	3.57790E+000	9	...........
	14	0.2	6.83215E-001	-9.88249E-005	0.00000E+000	-6.75187E-005	-5.99601E-002	6.83462E-001	3.57790E+000	9	...........
	15	0.213333	6.72552E-001	-9.74038E-005	0.00000E+000	-6.55091E-005	-5.99601E-002	6.72770E-001	3.57790E+000	9	...........
	16	0.226667	6.61836E-001	-9.88332E-005	0.00000E+000	-6.54114E-005	-5.99601E-002	6.62088E-001	3.57790E+000	9	...........
	17	0.24	6.51147E-001	-9.94761E-005	0.00000E+000	-6.47736E-005	-5.99601E-002	6.51386E-001	3.57790E+000	9	...........
	18	0.253333	6.40391E-001	-9.93635E-005	0.00000E+000	-6.36315E-005	-5.99601E-002	6.40661E-001	3.57790E+000	9	...........
	19	0.266667	6.29538E-001	-9.91989E-005	0.00000E+000	-6.24495E-005	-5.99601E-002	6.29783E-001	3.57790E+000	9	...........
	20	0.28	6.18525E-001	-9.96667E-005	0.00000E+000	-6.16464E-005	-5.99601E-002	6.18758E-001	3.57790E+000	9	...........
	21	0.293333	6.07278E-001	-9.83706E-005	0.00000E+000	-5.97384E-005	-5.99601E-002	6.07546E-001	3.57790E+000	9	...........
	22	0.306667	5.95885E-001	-9.97584E-005	0.00000E+000	-5.94446E-005	-5.99601E-002	5.96137E-001	3.57790E+000	9	...........
	23	0.32	5.84261E-001	-9.89218E-005	0.00000E+000	-5.77961E-005	-5.99601E-002	5.84512E-001	3.57790E+000	9	...........
	24	0.333333	5.72474E-001	-9.97897E-005	0.00000E+000	-5.71270E-005	-5.99601E-002	5.72681E-001	3.57790E+000	9	...........
	25	0.346667	5.60455E-001	-9.96157E-005	0.00000E+000	-5.58301E-005	-5.99601E-002	5.60651E-001	3.57790E+000	9	...........
	26	0.36	5.48265E-001	-9.79549E-005	0.00000E+000	-5.37053E-005	-5.99601E-002	5.48474E-001	3.57790E+000	9	...........
	27	0.373333	5.35913E-001	-9.88072E-005	0.00000E+000	-5.29521E-005	-5.99601E-002	5.36110E-001	3.57790E+000	9	...........
	28	0.386667	5.23406E-001	-9.82831E-005	0.00000E+000	-5.14420E-005	-5.99601E-002	5.23615E-001	3.57790E+000	9	...........
	29	0.4	5.10779E-001	-9.92854E-005	0.00000E+000	-5.07129E-005	-5.99601E-002	5.10960E-001	3.57790E+000	9	...........
	30	0.413333	4.97979E-001	-9.88676E-005	0.00000E+000	-4.92340E-005	-5.99601E-002	4.98159E-001	3.57725E+000	9	...........
	31	0.426667	4.85242E-001	-9.88864E-005	0.00000E+000	-4.79838E-005	-5.99601E-002	4.85380E-001	3.57660E+000	9	...........
	32	0.44	4.72459E-001	-9.97615E-005	0.00000E+000	-4.71333E-005	-5.99601E-002	4.72560E-001	3.57660E+000	9	...........
	33	0.453333	4.59405E-001	-9.91156E-005	0.00000E+000	-4.55342E-005	-5.99601E-002	4.59504E-001	3.57660E+000	9	...........
	34	0.466667	4.46287E-001	-9.86894E-005	0.00000E+000	-4.40439E-005	-5.99601E-002	4.46384E-001	3.57660E+000	9	...........
	35	0.48	4.33107E-001	-9.89051E-005	0.00000E+000	-4.28365E-005	-5.99601E-002	4.33199E-001	3.57660E+000	9	...........
	36	0.493333	4.19880E-001	-9.90927E-005	0.00000E+000	-4.16070E-005	-5.99601E-002	4.19974E-001	3.57660E+000	9	...........
	37	0.506667	4.06630E-001	-9.80445E-005	0.00000E+000	-3.98678E-005	-5.99601E-002	4.06714E-001	3.57660E+000	9	...........
	38	0.52	3.93353E-001	-9.77663E-005	0.00000E+000	-3.84566E-005	-5.99601E-002	3.93433E-001	3.57660E+000	9	...........
	39	0.533333	3.80071E-001	-9.83758E-005	0.00000E+000	-3.73898E-005	-5.99601E-002	3.80148E-001	3.57660E+000	9	...........
	40	0.546667	3.66801E-001	-9.95052E-005	0.00000E+000	-3.64987E-005	-5.99601E-002	3.66874E-001	3.57660E+000	9	...........
	41	0.56	3.53531E-001	-9.95855E-005	0.00000E+000	-3.52066E-005	-5.99601E-002	3.53604E-001	3.57660E+000	9	...........
	42	0.573333	3.40293E-001	-9.89510E-005	0.00000E+000	-3.36723E-005	-5.99601E-002	3.40368E-001	3.57660E+000	9	...........
	43	0.586667	3.27090E-001	-9.86467E-005	0.00000E+000	-3.22663E-005	-5.99601E-002	3.27164E-001	3.57660E+000	9	...........
	44	0.6	3.13913E-001	-9.83019E-005	0.00000E+000	-3.08583E-005	-5.99601E-002	3.13980E-001	3.57660E+000	9	...........
	45	0.613333	3.00790E-001	-9.92364E-005	0.00000E+000	-2.98493E-005	-5.99601E-002	3.00849E-001	3.57660E+000	9	...........
	46	0.626667	2.87710E-001	-9.97886E-005	0.00000E+000	-2.87101E-005	-5.99601E-002	2.87775E-001	3.57660E+000	9	...........
	47	0.64	2.74696E-001	-9.97803E-005	0.00000E+000	-2.74092E-005	-5.99601E-002	2.74757E-001	3.57660E+000	9	...........
	48	0.653333	2.61739E-001	-9.86228E-005	0.00000E+000	-2.58134E-005	-5.99601E-002	2.61800E-001	3.57660E+000	9	...........
	49	0.666667	2.48844E-001	-9.91573E-005	0.00000E+000	-2.46746E-005	-5.99601E-002	2.48895E-001	3.57660E+000	9	...........
	50	0.68	2.36008E-001	-9.75705E-005	0.00000E+000	-2.30274E-005	-5.99601E-002	2.36053E-001	3.57660E+000	9	...........
	51	0.693333	2.23232E-001	-9.90364E-005	0.00000E+000	-2.21081E-005	-5.99601E-002	2.23277E-001	3.57660E+000	9	...........
	52	0.706667	2.10517E-001	-9.96542E-005	0.00000E+000	-2.09790E-005	-5.99601E-002	2.10562E-001	3.57660E+000	9	...........
	53	0.72	1.97888E-001	-9.78257E-005	0.00000E+000	-1.93585E-005	-5.99601E-002	1.97925E-001	3.57660E+000	9	...........
	54	0.733333	1.85310E-001	-9.95667E-005	0.00000E+000	-1.84507E-005	-5.99601E-002	1.85352E-001	3.57660E+000	9	...........
	55	0.746667	1.72796E-001	-9.85613E-005	0.00000E+000	-1.70310E-005	-5.99601E-002	1.72834E-001	3.57660E+000	9	...........
	56	0.76	1.60347E-001	-9.91781E-005	0.00000E+000	-1.59029E-005	-5.99601E-002	1.60373E-001	3.57660E+000	9	...........
	57	0.773333	1.47965E-001	-9.88207E-005	0.00000E+000	-1.46220E-005	-5.99601E-002	1.47987E-001	3.57660E+000	9	...........
	58	0.786667	1.35638E-001	-9.82216E-005	0.00000E+000	-1.33226E-005	-5.99601E-002	1.35667E-001	3.57660E+000	9	...........
	59	0.8	1.23386E-001	-9.88822E-005	0.00000E+000	-1.22007E-005	-5.99601E-002	1.23408E-001	3.57660E+000	9	...........
	60	0.813333	1.11204E-001	-1.00476E-004	0.00000E+000	-1.11734E-005	-5.99601E-002	1.11220E-001	3.57660E+000	9	...........
	61	0.826667	9.91110E-002	-9.91989E-005	0.00000E+000	-9.83170E-006	-5.99601E-002	9.91265E-002	3.57660E+000	9	...........
	62	0.84	8.71088E-002	-9.83633E-005	0.00000E+000	-8.56831E-006	-5.99601E-002	8.71206E-002	3.57660E+000	9	...........
	63	0.853333	7.52138E-002	-9.78466E-005	0.00000E+000	-7.35941E-006	-5.99601E-002	7.52200E-002	3.57660E+000	9	...........
	64	0.866667	6.34273E-002	-9.93437E-005	0.00000E+000	-6.30111E-006	-5.99601E-002	6.34338E-002	3.57660E+000	9	...........
	65	0.88	5.17656E-002	-9.84092E-005	0.00000E+000	-5.09421E-006	-5.99601E-002	5.17699E-002	3.57660E+000	9	...........
	66	0.893333	4.02622E-002	-9.78320E-005	0.00000E+000	-3.93893E-006	-5.99601E-002	4.02653E-002	3.57660E+000	9	...........
	67	0.906667	2.88774E-002	-9.79028E-005	0.00000E+000	-2.82718E-006	-5.99601E-002	2.88733E-002	3.57660E+000	9	...........
	68	0.92	1.76402E-002	-9.97970E-005	0.00000E+000	-1.76043E-006	-5.99601E-002	1.76294E-002	3.57660E+000	9	...........
	69	0.933333	6.56902E-003	-9.81154E-005	0.00000E+000	-6.44522E-007	-5.99601E-002	6.55007E-003	3.57660E+000	9	...........
	70	0.936667	-2.69031E-004	-9.84436E-005	0.00000E+000	2.64844E-008	-5.99601E-002	-2.93516E-004	3.57660E+000	9	...........
STARTTIMEOFFSET	QUANT	1205.819	Start Time Offset (s)
