EXPLAIN
TAG	PWR800_DISCHARGE
TITLE	LABEL	PWR Cyclic Charge Discharge (Cell) - Discharge Step	Test &Identifier
DATE	LABEL	12-7-2017	Date
TIME	LABEL	16:29:26	Time
NOTES	NOTES	2	&Notes...
	supercap test cell
	6M KOH
PSTAT	PSTAT	IFC5000-01520	Potentiostat
CAPACITY	QUANT	1.00000E-003	Capacity (A-hr)
CELLTYPE	SELECTOR	1	&Cell Type
WORKINGCONNECTION	SELECTOR	0	&Working Lead
MAXDISCHARGETIME	VARIABLEANDUNITS	1.00000E+002	s	1.00000E+002	second(s)	Max &Discharge Time
DISCHARGEMODE	MULTIPARAM	0	1.00000E-004	&Discharge Mode	Constant Current	Amp(s)
SAMPLETIME	QUANT	1.00000E-002	Sa&mple Period (s)
DISCHARGESTOPAT1	MULTIPARAM	3	0.00000E+000	Discharge Stop At &1	Voltage < Limit	V
DISCHARGESTOPAT2	MULTIPARAM	0	0.00000E+000	Discharge Stop At &2	None	N/A
AESBHCSELECTOR	TOGGLE	F	Save Both Half Cells
IRCOMP	TOGGLE	F	IR &Measure
EOC	QUANT	0	Open Circuit (V)
SEQUENCER	TOGGLE	TRUE	Run as Sequence
PSTATMODEL	IQUANT	53	Pstat Model
PSTATSECTION	LABEL	IFC5000-01520	Pstat Section
PSTATSERIALNO	LABEL	01520	Pstat Serial Number
CTRLMODE	IQUANT	0	Control Mode
ELECTROMETER	IQUANT	1	RE=0 or CS=1
IESTAB	IQUANT	0	I/E Stability
CASPEED	IQUANT	4	Control Amp Speed
CONVENTION	IQUANT	1	Current Convention
ICHRANGE	IQUANT	2	Ich Range
ICHRANGEMODE	TOGGLE	T	Ich Auto Range
ICHOFFSETENABLE	TOGGLE	F	Ich Offset Enable
ICHOFFSET	QUANT	0	Ich Offset (V)
ICHFILTER	IQUANT	1	Ich Filter
VCHRANGE	IQUANT	2	Vch Range
VCHRANGEMODE	TOGGLE	T	Vch Auto Range
VCHOFFSETENABLE	TOGGLE	F	Vch Offset Enable
VCHOFFSET	QUANT	0	Vch Offset (V)
VCHFILTER	IQUANT	1	Vch Filter
IERANGELOWERLIMIT	IQUANT	9	I/E Range Lower Limit
IERANGEMODE	TOGGLE	F	I/E AutoRange
IERANGE	IQUANT	9	I/E Range
ACHSELECT	IQUANT	1	Ach Select
ACHRANGE	IQUANT	2	Ach Range
ACHOFFSETENABLE	TOGGLE	F	Ach Offset Enable
ACHOFFSET	QUANT	0	Ach Offset (V)
ACHFILTER	IQUANT	1	Ach Filter
CABLEID	IQUANT	14	Cable ID
DCCALDATE	LABEL	5-7-2017	DC Calibration Date
ACCALDATE	LABEL	12/3/2015	AC Calibration Date
FRAMEWORKVERSION	QUANT	7.01	Framework Version
INSTRUMENTVERSION	LABEL	4.00	Instrument Version
CURVE	TABLE	71
	Pt	T	Vf	Im	Vu	Pwr	Sig	Ach	Temp	IERange	Over
	#	s	V	A	V	W	V	V	deg C	#	bits
	0	0.013333	8.44981E-001	-9.88041E-005	0.00000E+000	-8.34876E-005	-5.99601E-002	8.45313E-001	3.57710E+000	9	...........
	1	0.026667	8.31976E-001	-9.84988E-005	0.00000E+000	-8.19487E-005	-5.99601E-002	8.32301E-001	3.57710E+000	9	...........
	2	0.04	8.19573E-001	-9.75382E-005	0.00000E+000	-7.99397E-005	-5.99601E-002	8.19875E-001	3.57710E+000	9	...........
	3	0.053333	8.07540E-001	-9.86353E-005	0.00000E+000	-7.96519E-005	-5.99601E-002	8.07853E-001	3.57710E+000	9	...........
	4	0.066667	7.95781E-001	-9.83102E-005	0.00000E+000	-7.82333E-005	-5.99601E-002	7.96103E-001	3.57710E+000	9	...........
	5	0.08	7.84219E-001	-9.88332E-005	0.00000E+000	-7.75069E-005	-5.99601E-002	7.84514E-001	3.57710E+000	9	...........
	6	0.093333	7.72835E-001	-9.88468E-005	0.00000E+000	-7.63922E-005	-5.99601E-002	7.73112E-001	3.57710E+000	9	...........
	7	0.106667	7.61569E-001	-9.77424E-005	0.00000E+000	-7.44376E-005	-5.99601E-002	7.61830E-001	3.57710E+000	9	...........
	8	0.12	7.50436E-001	-9.89760E-005	0.00000E+000	-7.42752E-005	-5.99601E-002	7.50695E-001	3.57710E+000	9	...........
	9	0.133333	7.39402E-001	-9.94406E-005	0.00000E+000	-7.35266E-005	-5.99601E-002	7.39648E-001	3.57710E+000	9	...........
	10	0.146667	7.28466E-001	-9.83779E-005	0.00000E+000	-7.16649E-005	-5.99601E-002	7.28723E-001	3.57710E+000	9	...........
	11	0.16	7.17627E-001	-9.83165E-005	0.00000E+000	-7.05545E-005	-5.99601E-002	7.17858E-001	3.57710E+000	9	...........
	12	0.173333	7.06858E-001	-9.74340E-005	0.00000E+000	-6.88720E-005	-5.99601E-002	7.07084E-001	3.57710E+000	9	...........
	13	0.186667	6.96169E-001	-9.89280E-005	0.00000E+000	-6.88706E-005	-5.99601E-002	6.96394E-001	3.57710E+000	9	...........
	14	0.2	6.85501E-001	-9.76517E-005	0.00000E+000	-6.69404E-005	-5.99601E-002	6.85727E-001	3.57710E+000	9	...........
	15	0.213333	6.74868E-001	-1.00618E-004	0.00000E+000	-6.79039E-005	-5.99601E-002	6.75084E-001	3.57710E+000	9	...........
	16	0.226667	6.64214E-001	-9.88749E-005	0.00000E+000	-6.56741E-005	-5.99601E-002	6.64408E-001	3.57710E+000	9	...........
	17	0.24	6.53453E-001	-1.00210E-004	0.00000E+000	-6.54822E-005	-5.99601E-002	6.53646E-001	3.57710E+000	9	...........
	18	0.253333	6.42601E-001	-9.82279E-005	0.00000E+000	-6.31214E-005	-5.99601E-002	6.42797E-001	3.57710E+000	9	...........
	19	0.266667	6.31600E-001	-9.84154E-005	0.00000E+000	-6.21592E-005	-5.99601E-002	6.31786E-001	3.57710E+000	9	...........
	20	0.28	6.20451E-001	-9.87540E-005	0.00000E+000	-6.12720E-005	-5.99601E-002	6.20619E-001	3.57710E+000	9	...........
	21	0.293333	6.09033E-001	-9.87780E-005	0.00000E+000	-6.01590E-005	-5.99601E-002	6.09285E-001	3.57710E+000	9	...........
	22	0.306667	5.97489E-001	-9.89468E-005	0.00000E+000	-5.91196E-005	-5.99601E-002	5.97718E-001	3.57710E+000	9	...........
	23	0.32	5.85748E-001	-9.83894E-005	0.00000E+000	-5.76314E-005	-5.99601E-002	5.85972E-001	3.57710E+000	9	...........
	24	0.333333	5.73855E-001	-9.82123E-005	0.00000E+000	-5.63596E-005	-5.99601E-002	5.74051E-001	3.57710E+000	9	...........
	25	0.346667	5.61782E-001	-9.91041E-005	0.00000E+000	-5.56749E-005	-5.99601E-002	5.61985E-001	3.57710E+000	9	...........
	26	0.36	5.49541E-001	-9.84175E-005	0.00000E+000	-5.40844E-005	-5.99601E-002	5.49740E-001	3.57710E+000	9	...........
	27	0.373333	5.37159E-001	-9.76819E-005	0.00000E+000	-5.24707E-005	-5.99601E-002	5.37401E-001	3.57710E+000	9	...........
	28	0.386667	5.24673E-001	-1.00238E-004	0.00000E+000	-5.25920E-005	-5.99601E-002	5.24907E-001	3.57710E+000	9	...........
	29	0.4	5.12083E-001	-9.91968E-005	0.00000E+000	-5.07970E-005	-5.99601E-002	5.12316E-001	3.57710E+000	9	...........
	30	0.413333	4.99361E-001	-9.91354E-005	0.00000E+000	-4.95043E-005	-5.99601E-002	4.99614E-001	3.57710E+000	9	...........
	31	0.426667	4.86657E-001	-9.94208E-005	0.00000E+000	-4.83839E-005	-5.99601E-002	4.86869E-001	3.57710E+000	9	...........
	32	0.44	4.74039E-001	-9.83894E-005	0.00000E+000	-4.66404E-005	-5.99601E-002	4.74150E-001	3.57710E+000	9	...........
	33	0.453333	4.61117E-001	-9.84029E-005	0.00000E+000	-4.53753E-005	-5.99601E-002	4.61216E-001	3.57710E+000	9	...........
	34	0.466667	4.48134E-001	-9.98751E-005	0.00000E+000	-4.47574E-005	-5.99601E-002	4.48233E-001	3.57710E+000	9	...........
	35	0.48	4.35114E-001	-9.77007E-005	0.00000E+000	-4.25110E-005	-5.99601E-002	4.35209E-001	3.57710E+000	9	...........
	36	0.493333	4.22060E-001	-9.85102E-005	0.00000E+000	-4.15772E-005	-5.99601E-002	4.22154E-001	3.57710E+000	9	...........
	37	0.506667	4.08991E-001	-9.85394E-005	0.00000E+000	-4.03017E-005	-5.99601E-002	4.09078E-001	3.57710E+000	9	...........
	38	0.52	3.95919E-001	-9.82352E-005	0.00000E+000	-3.88931E-005	-5.99601E-002	3.95996E-001	3.57710E+000	9	...........
	39	0.533333	3.82848E-001	-9.89645E-005	0.00000E+000	-3.78883E-005	-5.99601E-002	3.82920E-001	3.57710E+000	9	...........
	40	0.546667	3.69781E-001	-9.85280E-005	0.00000E+000	-3.64338E-005	-5.99601E-002	3.69858E-001	3.57710E+000	9	...........
	41	0.56	3.56737E-001	-9.95605E-005	0.00000E+000	-3.55170E-005	-5.99601E-002	3.56808E-001	3.57710E+000	9	...........
	42	0.573333	3.43719E-001	-9.82133E-005	0.00000E+000	-3.37578E-005	-5.99601E-002	3.43788E-001	3.57710E+000	9	...........
	43	0.586667	3.30735E-001	-9.77434E-005	0.00000E+000	-3.23272E-005	-5.99601E-002	3.30801E-001	3.57710E+000	9	...........
	44	0.6	3.17787E-001	-9.81914E-005	0.00000E+000	-3.12040E-005	-5.99601E-002	3.17858E-001	3.57710E+000	9	...........
	45	0.613333	3.04893E-001	-9.94479E-005	0.00000E+000	-3.03209E-005	-5.99601E-002	3.04958E-001	3.57710E+000	9	...........
	46	0.626667	2.92036E-001	-9.93750E-005	0.00000E+000	-2.90211E-005	-5.99601E-002	2.92099E-001	3.57710E+000	9	...........
	47	0.64	2.79232E-001	-9.92562E-005	0.00000E+000	-2.77155E-005	-5.99601E-002	2.79297E-001	3.57710E+000	9	...........
	48	0.653333	2.66486E-001	-9.87603E-005	0.00000E+000	-2.63183E-005	-5.99601E-002	2.66542E-001	3.57710E+000	9	...........
	49	0.666667	2.53791E-001	-9.94302E-005	0.00000E+000	-2.52345E-005	-5.99601E-002	2.53844E-001	3.57710E+000	9	...........
	50	0.68	2.41144E-001	-9.85800E-005	0.00000E+000	-2.37720E-005	-5.99601E-002	2.41194E-001	3.57723E+000	9	...........
	51	0.693333	2.28540E-001	-9.91281E-005	0.00000E+000	-2.26547E-005	-5.99601E-002	2.28587E-001	3.57810E+000	9	...........
	52	0.706667	2.15996E-001	-9.83977E-005	0.00000E+000	-2.12535E-005	-5.99601E-002	2.16041E-001	3.57810E+000	9	...........
	53	0.72	2.03504E-001	-9.84873E-005	0.00000E+000	-2.00425E-005	-5.99601E-002	2.03545E-001	3.57810E+000	9	...........
	54	0.733333	1.91052E-001	-9.94386E-005	0.00000E+000	-1.89979E-005	-5.99601E-002	1.91093E-001	3.57810E+000	9	...........
	55	0.746667	1.78656E-001	-9.75830E-005	0.00000E+000	-1.74338E-005	-5.99601E-002	1.78695E-001	3.57810E+000	9	...........
	56	0.76	1.66298E-001	-9.76736E-005	0.00000E+000	-1.62429E-005	-5.99601E-002	1.66332E-001	3.57810E+000	9	...........
	57	0.773333	1.53989E-001	-9.87728E-005	0.00000E+000	-1.52099E-005	-5.99601E-002	1.54021E-001	3.57810E+000	9	...........
	58	0.786667	1.41727E-001	-9.92979E-005	0.00000E+000	-1.40732E-005	-5.99601E-002	1.41753E-001	3.57810E+000	9	...........
	59	0.8	1.29518E-001	-9.87561E-005	0.00000E+000	-1.27907E-005	-5.99601E-002	1.29546E-001	3.57810E+000	9	...........
	60	0.813333	1.17380E-001	-9.80904E-005	0.00000E+000	-1.15139E-005	-5.99601E-002	1.17403E-001	3.57810E+000	9	...........
	61	0.826667	1.05301E-001	-9.87186E-005	0.00000E+000	-1.03952E-005	-5.99601E-002	1.05324E-001	3.57810E+000	9	...........
	62	0.84	9.33163E-002	-9.85738E-005	0.00000E+000	-9.19855E-006	-5.99601E-002	9.33368E-002	3.57810E+000	9	...........
	63	0.853333	8.14214E-002	-9.93813E-005	0.00000E+000	-8.09177E-006	-5.99601E-002	8.14411E-002	3.57810E+000	9	...........
	64	0.866667	6.96235E-002	-9.83154E-005	0.00000E+000	-6.84506E-006	-5.99601E-002	6.96336E-002	3.57810E+000	9	...........
	65	0.88	5.79191E-002	-9.80737E-005	0.00000E+000	-5.68034E-006	-5.99601E-002	5.79317E-002	3.57810E+000	9	...........
	66	0.893333	4.63596E-002	-9.90447E-005	0.00000E+000	-4.59168E-006	-5.99601E-002	4.63666E-002	3.57810E+000	9	...........
	67	0.906667	3.49213E-002	-9.79685E-005	0.00000E+000	-3.42119E-006	-5.99601E-002	3.49253E-002	3.57810E+000	9	...........
	68	0.92	2.36130E-002	-9.81706E-005	0.00000E+000	-2.31810E-006	-5.99601E-002	2.36061E-002	3.57810E+000	9	...........
	69	0.933333	1.24461E-002	-9.77653E-005	0.00000E+000	-1.21679E-006	-5.99601E-002	1.24315E-002	3.57810E+000	9	...........
	70	0.943333	2.80290E-003	-9.96855E-005	0.00000E+000	-2.79409E-007	-5.99601E-002	2.78217E-003	3.57810E+000	9	...........
STARTTIMEOFFSET	QUANT	829.642	Start Time Offset (s)
