EXPLAIN
TAG	PWR800_DISCHARGE
TITLE	LABEL	PWR Cyclic Charge Discharge (Cell) - Discharge Step	Test &Identifier
DATE	LABEL	12-7-2017	Date
TIME	LABEL	16:15:40	Time
NOTES	NOTES	2	&Notes...
	supercap test cell
	6M KOH
PSTAT	PSTAT	IFC5000-01520	Potentiostat
CAPACITY	QUANT	1.00000E-003	Capacity (A-hr)
CELLTYPE	SELECTOR	1	&Cell Type
WORKINGCONNECTION	SELECTOR	0	&Working Lead
MAXDISCHARGETIME	VARIABLEANDUNITS	1.00000E+002	s	1.00000E+002	second(s)	Max &Discharge Time
DISCHARGEMODE	MULTIPARAM	0	1.00000E-004	&Discharge Mode	Constant Current	Amp(s)
SAMPLETIME	QUANT	1.00000E-002	Sa&mple Period (s)
DISCHARGESTOPAT1	MULTIPARAM	3	0.00000E+000	Discharge Stop At &1	Voltage < Limit	V
DISCHARGESTOPAT2	MULTIPARAM	0	0.00000E+000	Discharge Stop At &2	None	N/A
AESBHCSELECTOR	TOGGLE	F	Save Both Half Cells
IRCOMP	TOGGLE	F	IR &Measure
EOC	QUANT	0	Open Circuit (V)
SEQUENCER	TOGGLE	TRUE	Run as Sequence
PSTATMODEL	IQUANT	53	Pstat Model
PSTATSECTION	LABEL	IFC5000-01520	Pstat Section
PSTATSERIALNO	LABEL	01520	Pstat Serial Number
CTRLMODE	IQUANT	0	Control Mode
ELECTROMETER	IQUANT	1	RE=0 or CS=1
IESTAB	IQUANT	0	I/E Stability
CASPEED	IQUANT	4	Control Amp Speed
CONVENTION	IQUANT	1	Current Convention
ICHRANGE	IQUANT	2	Ich Range
ICHRANGEMODE	TOGGLE	T	Ich Auto Range
ICHOFFSETENABLE	TOGGLE	F	Ich Offset Enable
ICHOFFSET	QUANT	0	Ich Offset (V)
ICHFILTER	IQUANT	1	Ich Filter
VCHRANGE	IQUANT	2	Vch Range
VCHRANGEMODE	TOGGLE	T	Vch Auto Range
VCHOFFSETENABLE	TOGGLE	F	Vch Offset Enable
VCHOFFSET	QUANT	0	Vch Offset (V)
VCHFILTER	IQUANT	1	Vch Filter
IERANGELOWERLIMIT	IQUANT	9	I/E Range Lower Limit
IERANGEMODE	TOGGLE	F	I/E AutoRange
IERANGE	IQUANT	9	I/E Range
ACHSELECT	IQUANT	1	Ach Select
ACHRANGE	IQUANT	2	Ach Range
ACHOFFSETENABLE	TOGGLE	F	Ach Offset Enable
ACHOFFSET	QUANT	0	Ach Offset (V)
ACHFILTER	IQUANT	1	Ach Filter
CABLEID	IQUANT	14	Cable ID
DCCALDATE	LABEL	5-7-2017	DC Calibration Date
ACCALDATE	LABEL	12/3/2015	AC Calibration Date
FRAMEWORKVERSION	QUANT	7.01	Framework Version
INSTRUMENTVERSION	LABEL	4.00	Instrument Version
CURVE	TABLE	72
	Pt	T	Vf	Im	Vu	Pwr	Sig	Ach	Temp	IERange	Over
	#	s	V	A	V	W	V	V	deg C	#	bits
	0	0.013333	8.39308E-001	-9.90406E-005	0.00000E+000	-8.31255E-005	-5.99601E-002	8.39570E-001	3.57820E+000	9	...........
	1	0.026667	8.26401E-001	-9.93698E-005	0.00000E+000	-8.21193E-005	-5.99601E-002	8.26625E-001	3.57820E+000	9	...........
	2	0.04	8.14014E-001	-9.91625E-005	0.00000E+000	-8.07196E-005	-5.99601E-002	8.14271E-001	3.57820E+000	9	...........
	3	0.053333	8.02064E-001	-9.94521E-005	0.00000E+000	-7.97670E-005	-5.99601E-002	8.02288E-001	3.57816E+000	9	...........
	4	0.066667	7.90355E-001	-9.89322E-005	0.00000E+000	-7.81915E-005	-5.99601E-002	7.90595E-001	3.57790E+000	9	...........
	5	0.08	7.78844E-001	-9.79310E-005	0.00000E+000	-7.62730E-005	-5.99601E-002	7.79120E-001	3.57790E+000	9	...........
	6	0.093333	7.67503E-001	-9.86176E-005	0.00000E+000	-7.56892E-005	-5.99601E-002	7.67809E-001	3.57790E+000	9	...........
	7	0.106667	7.56281E-001	-9.86061E-005	0.00000E+000	-7.45739E-005	-5.99601E-002	7.56574E-001	3.57790E+000	9	...........
	8	0.12	7.45178E-001	-9.93031E-005	0.00000E+000	-7.39985E-005	-5.99601E-002	7.45474E-001	3.57790E+000	9	...........
	9	0.133333	7.34103E-001	-9.80737E-005	0.00000E+000	-7.19962E-005	-5.99601E-002	7.34394E-001	3.57790E+000	9	...........
	10	0.146667	7.23055E-001	-9.90895E-005	0.00000E+000	-7.16472E-005	-5.99601E-002	7.23333E-001	3.57790E+000	9	...........
	11	0.16	7.11942E-001	-9.91687E-005	0.00000E+000	-7.06024E-005	-5.99601E-002	7.12205E-001	3.57790E+000	9	...........
	12	0.173333	7.00788E-001	-9.93510E-005	0.00000E+000	-6.96240E-005	-5.99601E-002	7.01050E-001	3.57790E+000	9	...........
	13	0.186667	6.89493E-001	-9.81768E-005	0.00000E+000	-6.76922E-005	-5.99601E-002	6.89770E-001	3.57790E+000	9	...........
	14	0.2	6.78095E-001	-9.89385E-005	0.00000E+000	-6.70896E-005	-5.99601E-002	6.78373E-001	3.57790E+000	9	...........
	15	0.213333	6.66592E-001	-9.96917E-005	0.00000E+000	-6.64537E-005	-5.99601E-002	6.66849E-001	3.57790E+000	9	...........
	16	0.226667	6.54948E-001	-9.91760E-005	0.00000E+000	-6.49552E-005	-5.99601E-002	6.55219E-001	3.57790E+000	9	...........
	17	0.24	6.43190E-001	-9.83863E-005	0.00000E+000	-6.32811E-005	-5.99601E-002	6.43479E-001	3.57790E+000	9	...........
	18	0.253333	6.31352E-001	-9.85540E-005	0.00000E+000	-6.22223E-005	-5.99601E-002	6.31627E-001	3.57790E+000	9	...........
	19	0.266667	6.19453E-001	-9.90187E-005	0.00000E+000	-6.13374E-005	-5.99601E-002	6.19717E-001	3.57790E+000	9	...........
	20	0.28	6.07400E-001	-9.82425E-005	0.00000E+000	-5.96724E-005	-5.99601E-002	6.07716E-001	3.57790E+000	9	...........
	21	0.293333	5.95365E-001	-9.82008E-005	0.00000E+000	-5.84653E-005	-5.99601E-002	5.95647E-001	3.57790E+000	9	...........
	22	0.306667	5.83236E-001	-9.95084E-005	0.00000E+000	-5.80368E-005	-5.99601E-002	5.83527E-001	3.57790E+000	9	...........
	23	0.32	5.71080E-001	-9.88832E-005	0.00000E+000	-5.64702E-005	-5.99601E-002	5.71373E-001	3.57790E+000	9	...........
	24	0.333333	5.58874E-001	-9.89582E-005	0.00000E+000	-5.53052E-005	-5.99601E-002	5.59146E-001	3.57790E+000	9	...........
	25	0.346667	5.46666E-001	-9.73996E-005	0.00000E+000	-5.32450E-005	-5.99601E-002	5.46929E-001	3.57790E+000	9	...........
	26	0.36	5.34403E-001	-9.98459E-005	0.00000E+000	-5.33579E-005	-5.99601E-002	5.34676E-001	3.57790E+000	9	...........
	27	0.373333	5.22181E-001	-9.84602E-005	0.00000E+000	-5.14140E-005	-5.99601E-002	5.22419E-001	3.57790E+000	9	...........
	28	0.386667	5.09901E-001	-9.82039E-005	0.00000E+000	-5.00743E-005	-5.99601E-002	5.10164E-001	3.57790E+000	9	...........
	29	0.4	4.97630E-001	-9.89968E-005	0.00000E+000	-4.92638E-005	-5.99601E-002	4.97893E-001	3.57790E+000	9	...........
	30	0.413333	4.85518E-001	-9.88791E-005	0.00000E+000	-4.80075E-005	-5.99601E-002	4.85687E-001	3.57790E+000	9	...........
	31	0.426667	4.73475E-001	-9.88238E-005	0.00000E+000	-4.67907E-005	-5.99601E-002	4.73574E-001	3.57790E+000	9	...........
	32	0.44	4.61238E-001	-9.83081E-005	0.00000E+000	-4.53434E-005	-5.99601E-002	4.61337E-001	3.57790E+000	9	...........
	33	0.453333	4.49021E-001	-9.85488E-005	0.00000E+000	-4.42505E-005	-5.99601E-002	4.49120E-001	3.57790E+000	9	...........
	34	0.466667	4.36815E-001	-9.95355E-005	0.00000E+000	-4.34786E-005	-5.99601E-002	4.36913E-001	3.57790E+000	9	...........
	35	0.48	4.24639E-001	-9.91218E-005	0.00000E+000	-4.20910E-005	-5.99601E-002	4.24731E-001	3.57790E+000	9	...........
	36	0.493333	4.12483E-001	-9.93094E-005	0.00000E+000	-4.09634E-005	-5.99601E-002	4.12573E-001	3.57790E+000	9	...........
	37	0.506667	4.00353E-001	-9.89416E-005	0.00000E+000	-3.96115E-005	-5.99601E-002	4.00434E-001	3.57790E+000	9	...........
	38	0.52	3.88245E-001	-9.82998E-005	0.00000E+000	-3.81644E-005	-5.99601E-002	3.88329E-001	3.57790E+000	9	...........
	39	0.533333	3.76155E-001	-9.84936E-005	0.00000E+000	-3.70489E-005	-5.99601E-002	3.76228E-001	3.57790E+000	9	...........
	40	0.546667	3.64084E-001	-9.90604E-005	0.00000E+000	-3.60663E-005	-5.99601E-002	3.64159E-001	3.57790E+000	9	...........
	41	0.56	3.52027E-001	-9.91698E-005	0.00000E+000	-3.49104E-005	-5.99601E-002	3.52103E-001	3.57790E+000	9	...........
	42	0.573333	3.39984E-001	-9.87801E-005	0.00000E+000	-3.35836E-005	-5.99601E-002	3.40058E-001	3.57790E+000	9	...........
	43	0.586667	3.27963E-001	-9.90416E-005	0.00000E+000	-3.24820E-005	-5.99601E-002	3.28035E-001	3.57790E+000	9	...........
	44	0.6	3.15949E-001	-9.88489E-005	0.00000E+000	-3.12311E-005	-5.99601E-002	3.16019E-001	3.57790E+000	9	...........
	45	0.613333	3.03936E-001	-9.87947E-005	0.00000E+000	-3.00273E-005	-5.99601E-002	3.04000E-001	3.57790E+000	9	...........
	46	0.626667	2.91920E-001	-9.86790E-005	0.00000E+000	-2.88064E-005	-5.99601E-002	2.91985E-001	3.57790E+000	9	...........
	47	0.64	2.79906E-001	-9.95469E-005	0.00000E+000	-2.78638E-005	-5.99601E-002	2.79971E-001	3.57790E+000	9	...........
	48	0.653333	2.67890E-001	-9.93229E-005	0.00000E+000	-2.66076E-005	-5.99601E-002	2.67949E-001	3.57790E+000	9	...........
	49	0.666667	2.55865E-001	-9.89489E-005	0.00000E+000	-2.53175E-005	-5.99601E-002	2.55922E-001	3.57790E+000	9	...........
	50	0.68	2.43838E-001	-9.88291E-005	0.00000E+000	-2.40983E-005	-5.99601E-002	2.43883E-001	3.57790E+000	9	...........
	51	0.693333	2.31804E-001	-9.81498E-005	0.00000E+000	-2.27515E-005	-5.99601E-002	2.31844E-001	3.57790E+000	9	...........
	52	0.706667	2.19767E-001	-9.88145E-005	0.00000E+000	-2.17161E-005	-5.99601E-002	2.19810E-001	3.57790E+000	9	...........
	53	0.72	2.07734E-001	-9.89364E-005	0.00000E+000	-2.05525E-005	-5.99601E-002	2.07773E-001	3.57790E+000	9	...........
	54	0.733333	1.95704E-001	-9.94729E-005	0.00000E+000	-1.94673E-005	-5.99601E-002	1.95747E-001	3.57790E+000	9	...........
	55	0.746667	1.83683E-001	-9.85227E-005	0.00000E+000	-1.80969E-005	-5.99601E-002	1.83718E-001	3.57790E+000	9	...........
	56	0.76	1.71673E-001	-9.91677E-005	0.00000E+000	-1.70244E-005	-5.99601E-002	1.71710E-001	3.57790E+000	9	...........
	57	0.773333	1.59683E-001	-9.87915E-005	0.00000E+000	-1.57754E-005	-5.99601E-002	1.59709E-001	3.57790E+000	9	...........
	58	0.786667	1.47716E-001	-9.84279E-005	0.00000E+000	-1.45394E-005	-5.99601E-002	1.47744E-001	3.57790E+000	9	...........
	59	0.8	1.35771E-001	-9.97345E-005	0.00000E+000	-1.35411E-005	-5.99601E-002	1.35797E-001	3.57790E+000	9	...........
	60	0.813333	1.23858E-001	-9.90458E-005	0.00000E+000	-1.22676E-005	-5.99601E-002	1.23881E-001	3.57790E+000	9	...........
	61	0.826667	1.11987E-001	-9.90260E-005	0.00000E+000	-1.10897E-005	-5.99601E-002	1.12009E-001	3.57790E+000	9	...........
	62	0.84	1.00176E-001	-9.86144E-005	0.00000E+000	-9.87878E-006	-5.99601E-002	1.00193E-001	3.57790E+000	9	...........
	63	0.853333	8.84148E-002	-9.83102E-005	0.00000E+000	-8.69207E-006	-5.99601E-002	8.84365E-002	3.57790E+000	9	...........
	64	0.866667	7.67317E-002	-9.87468E-005	0.00000E+000	-7.57700E-006	-5.99601E-002	7.67438E-002	3.57790E+000	9	...........
	65	0.88	6.51270E-002	-9.91614E-005	0.00000E+000	-6.45808E-006	-5.99601E-002	6.51342E-002	3.57790E+000	9	...........
	66	0.893333	5.36153E-002	-9.80726E-005	0.00000E+000	-5.25820E-006	-5.99601E-002	5.36213E-002	3.57790E+000	9	...........
	67	0.906667	4.22389E-002	-9.87988E-005	0.00000E+000	-4.17315E-006	-5.99601E-002	4.22379E-002	3.57790E+000	9	...........
	68	0.92	3.09478E-002	-9.81435E-005	0.00000E+000	-3.03733E-006	-5.99601E-002	3.09442E-002	3.57790E+000	9	...........
	69	0.933333	1.97797E-002	-9.91406E-005	0.00000E+000	-1.96097E-006	-5.99601E-002	1.97733E-002	3.57790E+000	9	...........
	70	0.946667	8.76505E-003	-9.91562E-005	0.00000E+000	-8.69109E-007	-5.99601E-002	8.74770E-003	3.57790E+000	9	...........
	71	0.95167	1.27367E-003	-9.97994E-005	0.00000E+000	-1.27111E-007	-5.99601E-002	1.24467E-003	3.57790E+000	9	...........
STARTTIMEOFFSET	QUANT	239.6767	Start Time Offset (s)
