EXPLAIN
TAG	PWR800_DISCHARGE
TITLE	LABEL	PWR Cyclic Charge Discharge (Cell) - Discharge Step	Test &Identifier
DATE	LABEL	12-7-2017	Date
TIME	LABEL	16:29:13	Time
NOTES	NOTES	2	&Notes...
	supercap test cell
	6M KOH
PSTAT	PSTAT	IFC5000-01520	Potentiostat
CAPACITY	QUANT	1.00000E-003	Capacity (A-hr)
CELLTYPE	SELECTOR	1	&Cell Type
WORKINGCONNECTION	SELECTOR	0	&Working Lead
MAXDISCHARGETIME	VARIABLEANDUNITS	1.00000E+002	s	1.00000E+002	second(s)	Max &Discharge Time
DISCHARGEMODE	MULTIPARAM	0	1.00000E-004	&Discharge Mode	Constant Current	Amp(s)
SAMPLETIME	QUANT	1.00000E-002	Sa&mple Period (s)
DISCHARGESTOPAT1	MULTIPARAM	3	0.00000E+000	Discharge Stop At &1	Voltage < Limit	V
DISCHARGESTOPAT2	MULTIPARAM	0	0.00000E+000	Discharge Stop At &2	None	N/A
AESBHCSELECTOR	TOGGLE	F	Save Both Half Cells
IRCOMP	TOGGLE	F	IR &Measure
EOC	QUANT	0	Open Circuit (V)
SEQUENCER	TOGGLE	TRUE	Run as Sequence
PSTATMODEL	IQUANT	53	Pstat Model
PSTATSECTION	LABEL	IFC5000-01520	Pstat Section
PSTATSERIALNO	LABEL	01520	Pstat Serial Number
CTRLMODE	IQUANT	0	Control Mode
ELECTROMETER	IQUANT	1	RE=0 or CS=1
IESTAB	IQUANT	0	I/E Stability
CASPEED	IQUANT	4	Control Amp Speed
CONVENTION	IQUANT	1	Current Convention
ICHRANGE	IQUANT	2	Ich Range
ICHRANGEMODE	TOGGLE	T	Ich Auto Range
ICHOFFSETENABLE	TOGGLE	F	Ich Offset Enable
ICHOFFSET	QUANT	0	Ich Offset (V)
ICHFILTER	IQUANT	1	Ich Filter
VCHRANGE	IQUANT	2	Vch Range
VCHRANGEMODE	TOGGLE	T	Vch Auto Range
VCHOFFSETENABLE	TOGGLE	F	Vch Offset Enable
VCHOFFSET	QUANT	0	Vch Offset (V)
VCHFILTER	IQUANT	1	Vch Filter
IERANGELOWERLIMIT	IQUANT	9	I/E Range Lower Limit
IERANGEMODE	TOGGLE	F	I/E AutoRange
IERANGE	IQUANT	9	I/E Range
ACHSELECT	IQUANT	1	Ach Select
ACHRANGE	IQUANT	2	Ach Range
ACHOFFSETENABLE	TOGGLE	F	Ach Offset Enable
ACHOFFSET	QUANT	0	Ach Offset (V)
ACHFILTER	IQUANT	1	Ach Filter
CABLEID	IQUANT	14	Cable ID
DCCALDATE	LABEL	5-7-2017	DC Calibration Date
ACCALDATE	LABEL	12/3/2015	AC Calibration Date
FRAMEWORKVERSION	QUANT	7.01	Framework Version
INSTRUMENTVERSION	LABEL	4.00	Instrument Version
CURVE	TABLE	71
	Pt	T	Vf	Im	Vu	Pwr	Sig	Ach	Temp	IERange	Over
	#	s	V	A	V	W	V	V	deg C	#	bits
	0	0.013333	8.44707E-001	-9.72048E-005	0.00000E+000	-8.21096E-005	-5.99601E-002	8.45032E-001	3.57810E+000	9	...........
	1	0.026667	8.31683E-001	-9.77247E-005	0.00000E+000	-8.12759E-005	-5.99601E-002	8.32003E-001	3.57810E+000	9	...........
	2	0.04	8.19277E-001	-9.79153E-005	0.00000E+000	-8.02198E-005	-5.99601E-002	8.19588E-001	3.57810E+000	9	...........
	3	0.053333	8.07227E-001	-9.87499E-005	0.00000E+000	-7.97136E-005	-5.99601E-002	8.07511E-001	3.57810E+000	9	...........
	4	0.066667	7.95483E-001	-9.87124E-005	0.00000E+000	-7.85240E-005	-5.99601E-002	7.95743E-001	3.57810E+000	9	...........
	5	0.08	7.83917E-001	-9.85530E-005	0.00000E+000	-7.72574E-005	-5.99601E-002	7.84189E-001	3.57810E+000	9	...........
	6	0.093333	7.72521E-001	-9.83550E-005	0.00000E+000	-7.59813E-005	-5.99601E-002	7.72789E-001	3.57810E+000	9	...........
	7	0.106667	7.61262E-001	-9.84946E-005	0.00000E+000	-7.49802E-005	-5.99601E-002	7.61516E-001	3.57810E+000	9	...........
	8	0.12	7.50115E-001	-9.80852E-005	0.00000E+000	-7.35751E-005	-5.99601E-002	7.50349E-001	3.57810E+000	9	...........
	9	0.133333	7.39075E-001	-9.93906E-005	0.00000E+000	-7.34571E-005	-5.99601E-002	7.39303E-001	3.57810E+000	9	...........
	10	0.146667	7.28149E-001	-9.91375E-005	0.00000E+000	-7.21869E-005	-5.99601E-002	7.28384E-001	3.57810E+000	9	...........
	11	0.16	7.17297E-001	-9.84831E-005	0.00000E+000	-7.06416E-005	-5.99601E-002	7.17544E-001	3.57810E+000	9	...........
	12	0.173333	7.06529E-001	-9.91698E-005	0.00000E+000	-7.00663E-005	-5.99601E-002	7.06743E-001	3.57810E+000	9	...........
	13	0.186667	6.95854E-001	-9.95750E-005	0.00000E+000	-6.92897E-005	-5.99601E-002	6.96054E-001	3.57810E+000	9	...........
	14	0.2	6.85176E-001	-9.84967E-005	0.00000E+000	-6.74876E-005	-5.99601E-002	6.85380E-001	3.57810E+000	9	...........
	15	0.213333	6.74532E-001	-9.85696E-005	0.00000E+000	-6.64884E-005	-5.99601E-002	6.74728E-001	3.57810E+000	9	...........
	16	0.226667	6.63842E-001	-9.92364E-005	0.00000E+000	-6.58773E-005	-5.99601E-002	6.64038E-001	3.57810E+000	9	...........
	17	0.24	6.53083E-001	-9.82196E-005	0.00000E+000	-6.41455E-005	-5.99601E-002	6.53288E-001	3.57810E+000	9	...........
	18	0.253333	6.42228E-001	-9.79664E-005	0.00000E+000	-6.29167E-005	-5.99601E-002	6.42458E-001	3.57810E+000	9	...........
	19	0.266667	6.31185E-001	-9.82373E-005	0.00000E+000	-6.20059E-005	-5.99601E-002	6.31413E-001	3.57810E+000	9	...........
	20	0.28	6.20013E-001	-9.69297E-005	0.00000E+000	-6.00977E-005	-5.99601E-002	6.20233E-001	3.57810E+000	9	...........
	21	0.293333	6.08573E-001	-9.87197E-005	0.00000E+000	-6.00781E-005	-5.99601E-002	6.08850E-001	3.57810E+000	9	...........
	22	0.306667	5.97006E-001	-9.89343E-005	0.00000E+000	-5.90643E-005	-5.99601E-002	5.97278E-001	3.57810E+000	9	...........
	23	0.32	5.85243E-001	-9.82112E-005	0.00000E+000	-5.74774E-005	-5.99601E-002	5.85528E-001	3.57810E+000	9	...........
	24	0.333333	5.73340E-001	-9.80768E-005	0.00000E+000	-5.62313E-005	-5.99601E-002	5.73580E-001	3.57810E+000	9	...........
	25	0.346667	5.61244E-001	-9.88384E-005	0.00000E+000	-5.54725E-005	-5.99601E-002	5.61490E-001	3.57810E+000	9	...........
	26	0.36	5.49008E-001	-9.87176E-005	0.00000E+000	-5.41967E-005	-5.99601E-002	5.49247E-001	3.57810E+000	9	...........
	27	0.373333	5.36637E-001	-9.84852E-005	0.00000E+000	-5.28508E-005	-5.99601E-002	5.36879E-001	3.57810E+000	9	...........
	28	0.386667	5.24119E-001	-9.91791E-005	0.00000E+000	-5.19817E-005	-5.99601E-002	5.24382E-001	3.57810E+000	9	...........
	29	0.4	5.11510E-001	-9.89426E-005	0.00000E+000	-5.06102E-005	-5.99601E-002	5.11766E-001	3.57810E+000	9	...........
	30	0.413333	4.98792E-001	-9.87124E-005	0.00000E+000	-4.92369E-005	-5.99601E-002	4.99049E-001	3.57810E+000	9	...........
	31	0.426667	4.86131E-001	-1.00713E-004	0.00000E+000	-4.89596E-005	-5.99601E-002	4.86308E-001	3.57729E+000	9	...........
	32	0.44	4.73467E-001	-9.86530E-005	0.00000E+000	-4.67090E-005	-5.99601E-002	4.73570E-001	3.57680E+000	9	...........
	33	0.453333	4.60535E-001	-9.90843E-005	0.00000E+000	-4.56318E-005	-5.99601E-002	4.60642E-001	3.57680E+000	9	...........
	34	0.466667	4.47559E-001	-9.91750E-005	0.00000E+000	-4.43866E-005	-5.99601E-002	4.47656E-001	3.57680E+000	9	...........
	35	0.48	4.34535E-001	-9.75173E-005	0.00000E+000	-4.23747E-005	-5.99601E-002	4.34633E-001	3.57680E+000	9	...........
	36	0.493333	4.21481E-001	-9.81873E-005	0.00000E+000	-4.13841E-005	-5.99601E-002	4.21579E-001	3.57680E+000	9	...........
	37	0.506667	4.08410E-001	-1.00112E-004	0.00000E+000	-4.08866E-005	-5.99601E-002	4.08504E-001	3.57680E+000	9	...........
	38	0.52	3.95340E-001	-9.72152E-005	0.00000E+000	-3.84331E-005	-5.99601E-002	3.95424E-001	3.57680E+000	9	...........
	39	0.533333	3.82265E-001	-9.86103E-005	0.00000E+000	-3.76953E-005	-5.99601E-002	3.82349E-001	3.57680E+000	9	...........
	40	0.546667	3.69205E-001	-9.93885E-005	0.00000E+000	-3.66948E-005	-5.99601E-002	3.69284E-001	3.57680E+000	9	...........
	41	0.56	3.56171E-001	-9.89489E-005	0.00000E+000	-3.52427E-005	-5.99601E-002	3.56244E-001	3.57680E+000	9	...........
	42	0.573333	3.43156E-001	-9.78497E-005	0.00000E+000	-3.35777E-005	-5.99601E-002	3.43229E-001	3.57680E+000	9	...........
	43	0.586667	3.30181E-001	-9.84394E-005	0.00000E+000	-3.25028E-005	-5.99601E-002	3.30253E-001	3.57680E+000	9	...........
	44	0.6	3.17244E-001	-9.95865E-005	0.00000E+000	-3.15932E-005	-5.99601E-002	3.17317E-001	3.57680E+000	9	...........
	45	0.613333	3.04347E-001	-9.88853E-005	0.00000E+000	-3.00954E-005	-5.99601E-002	3.04420E-001	3.57680E+000	9	...........
	46	0.626667	2.91501E-001	-9.82789E-005	0.00000E+000	-2.86484E-005	-5.99601E-002	2.91567E-001	3.57680E+000	9	...........
	47	0.64	2.78703E-001	-9.93344E-005	0.00000E+000	-2.76848E-005	-5.99601E-002	2.78772E-001	3.57680E+000	9	...........
	48	0.653333	2.65962E-001	-9.85384E-005	0.00000E+000	-2.62075E-005	-5.99601E-002	2.66023E-001	3.57680E+000	9	...........
	49	0.666667	2.53278E-001	-9.98230E-005	0.00000E+000	-2.52829E-005	-5.99601E-002	2.53334E-001	3.57680E+000	9	...........
	50	0.68	2.40655E-001	-9.77695E-005	0.00000E+000	-2.35287E-005	-5.99601E-002	2.40702E-001	3.57680E+000	9	...........
	51	0.693333	2.28066E-001	-9.87926E-005	0.00000E+000	-2.25312E-005	-5.99601E-002	2.28112E-001	3.57680E+000	9	...........
	52	0.706667	2.15530E-001	-9.86707E-005	0.00000E+000	-2.12665E-005	-5.99601E-002	2.15577E-001	3.57680E+000	9	...........
	53	0.72	2.03039E-001	-9.90260E-005	0.00000E+000	-2.01061E-005	-5.99601E-002	2.03086E-001	3.57680E+000	9	...........
	54	0.733333	1.90598E-001	-9.86134E-005	0.00000E+000	-1.87956E-005	-5.99601E-002	1.90641E-001	3.57680E+000	9	...........
	55	0.746667	1.78197E-001	-1.00328E-004	0.00000E+000	-1.78782E-005	-5.99601E-002	1.78236E-001	3.57680E+000	9	...........
	56	0.76	1.65843E-001	-9.95323E-005	0.00000E+000	-1.65068E-005	-5.99601E-002	1.65877E-001	3.57680E+000	9	...........
	57	0.773333	1.53543E-001	-9.95584E-005	0.00000E+000	-1.52865E-005	-5.99601E-002	1.53574E-001	3.57680E+000	9	...........
	58	0.786667	1.41289E-001	-9.83540E-005	0.00000E+000	-1.38963E-005	-5.99601E-002	1.41320E-001	3.57680E+000	9	...........
	59	0.8	1.29089E-001	-9.87926E-005	0.00000E+000	-1.27530E-005	-5.99601E-002	1.29114E-001	3.57680E+000	9	...........
	60	0.813333	1.16953E-001	-9.94448E-005	0.00000E+000	-1.16304E-005	-5.99601E-002	1.16980E-001	3.57680E+000	9	...........
	61	0.826667	1.04886E-001	-9.90916E-005	0.00000E+000	-1.03933E-005	-5.99601E-002	1.04911E-001	3.57680E+000	9	...........
	62	0.84	9.28976E-002	-9.87947E-005	0.00000E+000	-9.17778E-006	-5.99601E-002	9.29195E-002	3.57680E+000	9	...........
	63	0.853333	8.09983E-002	-9.90854E-005	0.00000E+000	-8.02574E-006	-5.99601E-002	8.10124E-002	3.57680E+000	9	...........
	64	0.866667	6.92015E-002	-9.92291E-005	0.00000E+000	-6.86680E-006	-5.99601E-002	6.92100E-002	3.57680E+000	9	...........
	65	0.88	5.75105E-002	-9.73631E-005	0.00000E+000	-5.59940E-006	-5.99601E-002	5.75143E-002	3.57680E+000	9	...........
	66	0.893333	4.59558E-002	-9.83654E-005	0.00000E+000	-4.52046E-006	-5.99601E-002	4.59652E-002	3.57680E+000	9	...........
	67	0.906667	3.45217E-002	-9.88905E-005	0.00000E+000	-3.41387E-006	-5.99601E-002	3.45243E-002	3.57680E+000	9	...........
	68	0.92	2.32105E-002	-9.83717E-005	0.00000E+000	-2.28326E-006	-5.99601E-002	2.32050E-002	3.57680E+000	9	...........
	69	0.933333	1.20392E-002	-9.93083E-005	0.00000E+000	-1.19559E-006	-5.99601E-002	1.20312E-002	3.57680E+000	9	...........
	70	0.943333	2.39506E-003	-9.94438E-005	0.00000E+000	-2.38173E-007	-5.99601E-002	2.37866E-003	3.57680E+000	9	...........
STARTTIMEOFFSET	QUANT	819.8486	Start Time Offset (s)
