EXPLAIN
TAG	PWR800_DISCHARGE
TITLE	LABEL	PWR Cyclic Charge Discharge (Cell) - Discharge Step	Test &Identifier
DATE	LABEL	12-7-2017	Date
TIME	LABEL	16:29:15	Time
NOTES	NOTES	2	&Notes...
	supercap test cell
	6M KOH
PSTAT	PSTAT	IFC5000-01520	Potentiostat
CAPACITY	QUANT	1.00000E-003	Capacity (A-hr)
CELLTYPE	SELECTOR	1	&Cell Type
WORKINGCONNECTION	SELECTOR	0	&Working Lead
MAXDISCHARGETIME	VARIABLEANDUNITS	1.00000E+002	s	1.00000E+002	second(s)	Max &Discharge Time
DISCHARGEMODE	MULTIPARAM	0	1.00000E-004	&Discharge Mode	Constant Current	Amp(s)
SAMPLETIME	QUANT	1.00000E-002	Sa&mple Period (s)
DISCHARGESTOPAT1	MULTIPARAM	3	0.00000E+000	Discharge Stop At &1	Voltage < Limit	V
DISCHARGESTOPAT2	MULTIPARAM	0	0.00000E+000	Discharge Stop At &2	None	N/A
AESBHCSELECTOR	TOGGLE	F	Save Both Half Cells
IRCOMP	TOGGLE	F	IR &Measure
EOC	QUANT	0	Open Circuit (V)
SEQUENCER	TOGGLE	TRUE	Run as Sequence
PSTATMODEL	IQUANT	53	Pstat Model
PSTATSECTION	LABEL	IFC5000-01520	Pstat Section
PSTATSERIALNO	LABEL	01520	Pstat Serial Number
CTRLMODE	IQUANT	0	Control Mode
ELECTROMETER	IQUANT	1	RE=0 or CS=1
IESTAB	IQUANT	0	I/E Stability
CASPEED	IQUANT	4	Control Amp Speed
CONVENTION	IQUANT	1	Current Convention
ICHRANGE	IQUANT	2	Ich Range
ICHRANGEMODE	TOGGLE	T	Ich Auto Range
ICHOFFSETENABLE	TOGGLE	F	Ich Offset Enable
ICHOFFSET	QUANT	0	Ich Offset (V)
ICHFILTER	IQUANT	1	Ich Filter
VCHRANGE	IQUANT	2	Vch Range
VCHRANGEMODE	TOGGLE	T	Vch Auto Range
VCHOFFSETENABLE	TOGGLE	F	Vch Offset Enable
VCHOFFSET	QUANT	0	Vch Offset (V)
VCHFILTER	IQUANT	1	Vch Filter
IERANGELOWERLIMIT	IQUANT	9	I/E Range Lower Limit
IERANGEMODE	TOGGLE	F	I/E AutoRange
IERANGE	IQUANT	9	I/E Range
ACHSELECT	IQUANT	1	Ach Select
ACHRANGE	IQUANT	2	Ach Range
ACHOFFSETENABLE	TOGGLE	F	Ach Offset Enable
ACHOFFSET	QUANT	0	Ach Offset (V)
ACHFILTER	IQUANT	1	Ach Filter
CABLEID	IQUANT	14	Cable ID
DCCALDATE	LABEL	5-7-2017	DC Calibration Date
ACCALDATE	LABEL	12/3/2015	AC Calibration Date
FRAMEWORKVERSION	QUANT	7.01	Framework Version
INSTRUMENTVERSION	LABEL	4.00	Instrument Version
CURVE	TABLE	71
	Pt	T	Vf	Im	Vu	Pwr	Sig	Ach	Temp	IERange	Over
	#	s	V	A	V	W	V	V	deg C	#	bits
	0	0.013333	8.45064E-001	-9.92594E-005	0.00000E+000	-8.38805E-005	-5.99601E-002	8.45391E-001	3.57790E+000	9	...........
	1	0.026667	8.32040E-001	-9.75653E-005	0.00000E+000	-8.11782E-005	-5.99601E-002	8.32372E-001	3.57790E+000	9	...........
	2	0.04	8.19621E-001	-9.82977E-005	0.00000E+000	-8.05668E-005	-5.99601E-002	8.19908E-001	3.57790E+000	9	...........
	3	0.053333	8.07572E-001	-9.92604E-005	0.00000E+000	-8.01600E-005	-5.99601E-002	8.07857E-001	3.57790E+000	9	...........
	4	0.066667	7.95837E-001	-9.80977E-005	0.00000E+000	-7.80697E-005	-5.99601E-002	7.96101E-001	3.57790E+000	9	...........
	5	0.08	7.84255E-001	-9.96105E-005	0.00000E+000	-7.81200E-005	-5.99601E-002	7.84545E-001	3.57790E+000	9	...........
	6	0.093333	7.72858E-001	-9.95730E-005	0.00000E+000	-7.69558E-005	-5.99601E-002	7.73117E-001	3.57790E+000	9	...........
	7	0.106667	7.61585E-001	-9.80028E-005	0.00000E+000	-7.46375E-005	-5.99601E-002	7.61855E-001	3.57790E+000	9	...........
	8	0.12	7.50425E-001	-9.97959E-005	0.00000E+000	-7.48894E-005	-5.99601E-002	7.50709E-001	3.57790E+000	9	...........
	9	0.133333	7.39377E-001	-9.87895E-005	0.00000E+000	-7.30427E-005	-5.99601E-002	7.39645E-001	3.57790E+000	9	...........
	10	0.146667	7.28463E-001	-9.68453E-005	0.00000E+000	-7.05482E-005	-5.99601E-002	7.28713E-001	3.57790E+000	9	...........
	11	0.16	7.17590E-001	-9.77017E-005	0.00000E+000	-7.01098E-005	-5.99601E-002	7.17844E-001	3.57790E+000	9	...........
	12	0.173333	7.06806E-001	-9.89916E-005	0.00000E+000	-6.99679E-005	-5.99601E-002	7.07085E-001	3.57790E+000	9	...........
	13	0.186667	6.96100E-001	-9.83810E-005	0.00000E+000	-6.84830E-005	-5.99601E-002	6.96345E-001	3.57790E+000	9	...........
	14	0.2	6.85410E-001	-9.89291E-005	0.00000E+000	-6.78070E-005	-5.99601E-002	6.85688E-001	3.57790E+000	9	...........
	15	0.213333	6.74761E-001	-9.89187E-005	0.00000E+000	-6.67464E-005	-5.99601E-002	6.75043E-001	3.57790E+000	9	...........
	16	0.226667	6.64078E-001	-9.91448E-005	0.00000E+000	-6.58399E-005	-5.99601E-002	6.64352E-001	3.57790E+000	9	...........
	17	0.24	6.53337E-001	-9.97147E-005	0.00000E+000	-6.51472E-005	-5.99601E-002	6.53588E-001	3.57790E+000	9	...........
	18	0.253333	6.42454E-001	-9.85748E-005	0.00000E+000	-6.33298E-005	-5.99601E-002	6.42717E-001	3.57790E+000	9	...........
	19	0.266667	6.31421E-001	-9.93125E-005	0.00000E+000	-6.27080E-005	-5.99601E-002	6.31697E-001	3.57790E+000	9	...........
	20	0.28	6.20259E-001	-9.91364E-005	0.00000E+000	-6.14903E-005	-5.99601E-002	6.20501E-001	3.57790E+000	9	...........
	21	0.293333	6.08803E-001	-9.74861E-005	0.00000E+000	-5.93498E-005	-5.99601E-002	6.09110E-001	3.57790E+000	9	...........
	22	0.306667	5.97268E-001	-9.79007E-005	0.00000E+000	-5.84730E-005	-5.99601E-002	5.97546E-001	3.57790E+000	9	...........
	23	0.32	5.85508E-001	-9.77028E-005	0.00000E+000	-5.72057E-005	-5.99601E-002	5.85785E-001	3.57790E+000	9	...........
	24	0.333333	5.73581E-001	-9.86832E-005	0.00000E+000	-5.66028E-005	-5.99601E-002	5.73852E-001	3.57790E+000	9	...........
	25	0.346667	5.61483E-001	-9.87790E-005	0.00000E+000	-5.54627E-005	-5.99601E-002	5.61755E-001	3.57790E+000	9	...........
	26	0.36	5.49242E-001	-9.89468E-005	0.00000E+000	-5.43457E-005	-5.99601E-002	5.49501E-001	3.57790E+000	9	...........
	27	0.373333	5.36866E-001	-9.93844E-005	0.00000E+000	-5.33561E-005	-5.99601E-002	5.37126E-001	3.57790E+000	9	...........
	28	0.386667	5.24370E-001	-9.97720E-005	0.00000E+000	-5.23174E-005	-5.99601E-002	5.24597E-001	3.57790E+000	9	...........
	29	0.4	5.11746E-001	-9.99647E-005	0.00000E+000	-5.11565E-005	-5.99601E-002	5.11968E-001	3.57790E+000	9	...........
	30	0.413333	4.99027E-001	-9.92198E-005	0.00000E+000	-4.95134E-005	-5.99601E-002	4.99245E-001	3.57790E+000	9	...........
	31	0.426667	4.86363E-001	-9.97105E-005	0.00000E+000	-4.84955E-005	-5.99601E-002	4.86487E-001	3.57790E+000	9	...........
	32	0.44	4.73683E-001	-9.92427E-005	0.00000E+000	-4.70095E-005	-5.99601E-002	4.73789E-001	3.57790E+000	9	...........
	33	0.453333	4.60747E-001	-9.96521E-005	0.00000E+000	-4.59144E-005	-5.99601E-002	4.60851E-001	3.57790E+000	9	...........
	34	0.466667	4.47765E-001	-9.85186E-005	0.00000E+000	-4.41132E-005	-5.99601E-002	4.47864E-001	3.57790E+000	9	...........
	35	0.48	4.34736E-001	-9.81581E-005	0.00000E+000	-4.26729E-005	-5.99601E-002	4.34829E-001	3.57790E+000	9	...........
	36	0.493333	4.21683E-001	-9.85363E-005	0.00000E+000	-4.15511E-005	-5.99601E-002	4.21765E-001	3.57790E+000	9	...........
	37	0.506667	4.08604E-001	-9.97397E-005	0.00000E+000	-4.07541E-005	-5.99601E-002	4.08685E-001	3.57790E+000	9	...........
	38	0.52	3.95521E-001	-9.84821E-005	0.00000E+000	-3.89518E-005	-5.99601E-002	3.95606E-001	3.57790E+000	9	...........
	39	0.533333	3.82438E-001	-9.72548E-005	0.00000E+000	-3.71940E-005	-5.99601E-002	3.82517E-001	3.57790E+000	9	...........
	40	0.546667	3.69371E-001	-9.94323E-005	0.00000E+000	-3.67274E-005	-5.99601E-002	3.69448E-001	3.57790E+000	9	...........
	41	0.56	3.56325E-001	-9.90697E-005	0.00000E+000	-3.53010E-005	-5.99601E-002	3.56394E-001	3.57790E+000	9	...........
	42	0.573333	3.43302E-001	-9.87561E-005	0.00000E+000	-3.39031E-005	-5.99601E-002	3.43377E-001	3.57790E+000	9	...........
	43	0.586667	3.30311E-001	-9.82508E-005	0.00000E+000	-3.24533E-005	-5.99601E-002	3.30386E-001	3.57790E+000	9	...........
	44	0.6	3.17374E-001	-9.77601E-005	0.00000E+000	-3.10265E-005	-5.99601E-002	3.17438E-001	3.57790E+000	9	...........
	45	0.613333	3.04465E-001	-9.91854E-005	0.00000E+000	-3.01985E-005	-5.99601E-002	3.04534E-001	3.57790E+000	9	...........
	46	0.626667	2.91613E-001	-9.78705E-005	0.00000E+000	-2.85403E-005	-5.99601E-002	2.91678E-001	3.57790E+000	9	...........
	47	0.64	2.78812E-001	-9.79018E-005	0.00000E+000	-2.72962E-005	-5.99601E-002	2.78875E-001	3.57790E+000	9	...........
	48	0.653333	2.66058E-001	-9.96084E-005	0.00000E+000	-2.65016E-005	-5.99601E-002	2.66122E-001	3.57790E+000	9	...........
	49	0.666667	2.53364E-001	-9.85311E-005	0.00000E+000	-2.49642E-005	-5.99601E-002	2.53428E-001	3.57790E+000	9	...........
	50	0.68	2.40731E-001	-9.90447E-005	0.00000E+000	-2.38431E-005	-5.99601E-002	2.40781E-001	3.57810E+000	9	...........
	51	0.693333	2.28128E-001	-9.87238E-005	0.00000E+000	-2.25216E-005	-5.99601E-002	2.28176E-001	3.57810E+000	9	...........
	52	0.706667	2.15586E-001	-1.00227E-004	0.00000E+000	-2.16076E-005	-5.99601E-002	2.15628E-001	3.57810E+000	9	...........
	53	0.72	2.03094E-001	-9.75173E-005	0.00000E+000	-1.98051E-005	-5.99601E-002	2.03135E-001	3.57810E+000	9	...........
	54	0.733333	1.90636E-001	-9.90208E-005	0.00000E+000	-1.88769E-005	-5.99601E-002	1.90681E-001	3.57810E+000	9	...........
	55	0.746667	1.78222E-001	-9.88572E-005	0.00000E+000	-1.76185E-005	-5.99601E-002	1.78265E-001	3.57810E+000	9	...........
	56	0.76	1.65872E-001	-9.80081E-005	0.00000E+000	-1.62568E-005	-5.99601E-002	1.65909E-001	3.57810E+000	9	...........
	57	0.773333	1.53563E-001	-9.82404E-005	0.00000E+000	-1.50861E-005	-5.99601E-002	1.53596E-001	3.57810E+000	9	...........
	58	0.786667	1.41298E-001	-9.92208E-005	0.00000E+000	-1.40197E-005	-5.99601E-002	1.41330E-001	3.57810E+000	9	...........
	59	0.8	1.29090E-001	-9.82508E-005	0.00000E+000	-1.26832E-005	-5.99601E-002	1.29122E-001	3.57810E+000	9	...........
	60	0.813333	1.16954E-001	-9.90322E-005	0.00000E+000	-1.15822E-005	-5.99601E-002	1.16976E-001	3.57810E+000	9	...........
	61	0.826667	1.04879E-001	-9.85467E-005	0.00000E+000	-1.03355E-005	-5.99601E-002	1.04903E-001	3.57810E+000	9	...........
	62	0.84	9.28865E-002	-9.83227E-005	0.00000E+000	-9.13286E-006	-5.99601E-002	9.29072E-002	3.57810E+000	9	...........
	63	0.853333	8.09820E-002	-9.90843E-005	0.00000E+000	-8.02405E-006	-5.99601E-002	8.09967E-002	3.57810E+000	9	...........
	64	0.866667	6.91771E-002	-9.89468E-005	0.00000E+000	-6.84485E-006	-5.99601E-002	6.91839E-002	3.57810E+000	9	...........
	65	0.88	5.74729E-002	-9.83633E-005	0.00000E+000	-5.65323E-006	-5.99601E-002	5.74817E-002	3.57810E+000	9	...........
	66	0.893333	4.59093E-002	-9.88759E-005	0.00000E+000	-4.53933E-006	-5.99601E-002	4.59190E-002	3.57810E+000	9	...........
	67	0.906667	3.44686E-002	-9.94802E-005	0.00000E+000	-3.42894E-006	-5.99601E-002	3.44706E-002	3.57810E+000	9	...........
	68	0.92	2.31588E-002	-9.82623E-005	0.00000E+000	-2.27563E-006	-5.99601E-002	2.31544E-002	3.57810E+000	9	...........
	69	0.933333	1.19922E-002	-9.89093E-005	0.00000E+000	-1.18614E-006	-5.99601E-002	1.19849E-002	3.57810E+000	9	...........
	70	0.943333	2.35559E-003	-9.91409E-005	0.00000E+000	-2.33536E-007	-5.99601E-002	2.33804E-003	3.57810E+000	9	...........
STARTTIMEOFFSET	QUANT	821.8069	Start Time Offset (s)
