EXPLAIN
TAG	PWR800_DISCHARGE
TITLE	LABEL	PWR Cyclic Charge Discharge (Cell) - Discharge Step	Test &Identifier
DATE	LABEL	12-7-2017	Date
TIME	LABEL	16:17:55	Time
NOTES	NOTES	2	&Notes...
	supercap test cell
	6M KOH
PSTAT	PSTAT	IFC5000-01520	Potentiostat
CAPACITY	QUANT	1.00000E-003	Capacity (A-hr)
CELLTYPE	SELECTOR	1	&Cell Type
WORKINGCONNECTION	SELECTOR	0	&Working Lead
MAXDISCHARGETIME	VARIABLEANDUNITS	1.00000E+002	s	1.00000E+002	second(s)	Max &Discharge Time
DISCHARGEMODE	MULTIPARAM	0	1.00000E-004	&Discharge Mode	Constant Current	Amp(s)
SAMPLETIME	QUANT	1.00000E-002	Sa&mple Period (s)
DISCHARGESTOPAT1	MULTIPARAM	3	0.00000E+000	Discharge Stop At &1	Voltage < Limit	V
DISCHARGESTOPAT2	MULTIPARAM	0	0.00000E+000	Discharge Stop At &2	None	N/A
AESBHCSELECTOR	TOGGLE	F	Save Both Half Cells
IRCOMP	TOGGLE	F	IR &Measure
EOC	QUANT	0	Open Circuit (V)
SEQUENCER	TOGGLE	TRUE	Run as Sequence
PSTATMODEL	IQUANT	53	Pstat Model
PSTATSECTION	LABEL	IFC5000-01520	Pstat Section
PSTATSERIALNO	LABEL	01520	Pstat Serial Number
CTRLMODE	IQUANT	0	Control Mode
ELECTROMETER	IQUANT	1	RE=0 or CS=1
IESTAB	IQUANT	0	I/E Stability
CASPEED	IQUANT	4	Control Amp Speed
CONVENTION	IQUANT	1	Current Convention
ICHRANGE	IQUANT	2	Ich Range
ICHRANGEMODE	TOGGLE	T	Ich Auto Range
ICHOFFSETENABLE	TOGGLE	F	Ich Offset Enable
ICHOFFSET	QUANT	0	Ich Offset (V)
ICHFILTER	IQUANT	1	Ich Filter
VCHRANGE	IQUANT	2	Vch Range
VCHRANGEMODE	TOGGLE	T	Vch Auto Range
VCHOFFSETENABLE	TOGGLE	F	Vch Offset Enable
VCHOFFSET	QUANT	0	Vch Offset (V)
VCHFILTER	IQUANT	1	Vch Filter
IERANGELOWERLIMIT	IQUANT	9	I/E Range Lower Limit
IERANGEMODE	TOGGLE	F	I/E AutoRange
IERANGE	IQUANT	9	I/E Range
ACHSELECT	IQUANT	1	Ach Select
ACHRANGE	IQUANT	2	Ach Range
ACHOFFSETENABLE	TOGGLE	F	Ach Offset Enable
ACHOFFSET	QUANT	0	Ach Offset (V)
ACHFILTER	IQUANT	1	Ach Filter
CABLEID	IQUANT	14	Cable ID
DCCALDATE	LABEL	5-7-2017	DC Calibration Date
ACCALDATE	LABEL	12/3/2015	AC Calibration Date
FRAMEWORKVERSION	QUANT	7.01	Framework Version
INSTRUMENTVERSION	LABEL	4.00	Instrument Version
CURVE	TABLE	72
	Pt	T	Vf	Im	Vu	Pwr	Sig	Ach	Temp	IERange	Over
	#	s	V	A	V	W	V	V	deg C	#	bits
	0	0.013333	8.41865E-001	-9.88186E-005	0.00000E+000	-8.31920E-005	-5.99601E-002	8.42187E-001	3.57850E+000	9	...........
	1	0.026667	8.28964E-001	-9.88801E-005	0.00000E+000	-8.19681E-005	-5.99601E-002	8.29266E-001	3.57850E+000	9	...........
	2	0.04	8.16620E-001	-9.83467E-005	0.00000E+000	-8.03118E-005	-5.99601E-002	8.16922E-001	3.57850E+000	9	...........
	3	0.053333	8.04665E-001	-9.92833E-005	0.00000E+000	-7.98898E-005	-5.99601E-002	8.04958E-001	3.57850E+000	9	...........
	4	0.066667	7.92986E-001	-9.82383E-005	0.00000E+000	-7.79016E-005	-5.99601E-002	7.93279E-001	3.57850E+000	9	...........
	5	0.08	7.81516E-001	-9.79466E-005	0.00000E+000	-7.65469E-005	-5.99601E-002	7.81802E-001	3.57850E+000	9	...........
	6	0.093333	7.70231E-001	-9.82737E-005	0.00000E+000	-7.56935E-005	-5.99601E-002	7.70521E-001	3.57850E+000	9	...........
	7	0.106667	7.59066E-001	-9.86728E-005	0.00000E+000	-7.48991E-005	-5.99601E-002	7.59340E-001	3.57850E+000	9	...........
	8	0.12	7.48007E-001	-9.78611E-005	0.00000E+000	-7.32008E-005	-5.99601E-002	7.48273E-001	3.57850E+000	9	...........
	9	0.133333	7.37026E-001	-9.84415E-005	0.00000E+000	-7.25540E-005	-5.99601E-002	7.37330E-001	3.57850E+000	9	...........
	10	0.146667	7.26174E-001	-9.86207E-005	0.00000E+000	-7.16157E-005	-5.99601E-002	7.26433E-001	3.57850E+000	9	...........
	11	0.16	7.15282E-001	-9.88978E-005	0.00000E+000	-7.07398E-005	-5.99601E-002	7.15568E-001	3.57850E+000	9	...........
	12	0.173333	7.04396E-001	-9.83300E-005	0.00000E+000	-6.92632E-005	-5.99601E-002	7.04665E-001	3.57850E+000	9	...........
	13	0.186667	6.93453E-001	-9.90489E-005	0.00000E+000	-6.86857E-005	-5.99601E-002	6.93708E-001	3.57850E+000	9	...........
	14	0.2	6.82380E-001	-9.85207E-005	0.00000E+000	-6.72285E-005	-5.99601E-002	6.82630E-001	3.57850E+000	9	...........
	15	0.213333	6.71211E-001	-9.88999E-005	0.00000E+000	-6.63827E-005	-5.99601E-002	6.71460E-001	3.57850E+000	9	...........
	16	0.226667	6.59839E-001	-9.88530E-005	0.00000E+000	-6.52271E-005	-5.99601E-002	6.60107E-001	3.57850E+000	9	...........
	17	0.24	6.48384E-001	-9.86624E-005	0.00000E+000	-6.39710E-005	-5.99601E-002	6.48621E-001	3.57850E+000	9	...........
	18	0.253333	6.36774E-001	-9.87863E-005	0.00000E+000	-6.29046E-005	-5.99601E-002	6.37001E-001	3.57850E+000	9	...........
	19	0.266667	6.25031E-001	-9.92041E-005	0.00000E+000	-6.20057E-005	-5.99601E-002	6.25279E-001	3.57850E+000	9	...........
	20	0.28	6.13176E-001	-9.96230E-005	0.00000E+000	-6.10864E-005	-5.99601E-002	6.13423E-001	3.57850E+000	9	...........
	21	0.293333	6.01182E-001	-9.89395E-005	0.00000E+000	-5.94807E-005	-5.99601E-002	6.01451E-001	3.57850E+000	9	...........
	22	0.306667	5.89152E-001	-9.86842E-005	0.00000E+000	-5.81400E-005	-5.99601E-002	5.89407E-001	3.57850E+000	9	...........
	23	0.32	5.77021E-001	-9.87092E-005	0.00000E+000	-5.69573E-005	-5.99601E-002	5.77263E-001	3.57850E+000	9	...........
	24	0.333333	5.64806E-001	-9.83790E-005	0.00000E+000	-5.55651E-005	-5.99601E-002	5.65017E-001	3.57850E+000	9	...........
	25	0.346667	5.52518E-001	-9.96553E-005	0.00000E+000	-5.50613E-005	-5.99601E-002	5.52725E-001	3.57850E+000	9	...........
	26	0.36	5.40172E-001	-9.91020E-005	0.00000E+000	-5.35322E-005	-5.99601E-002	5.40414E-001	3.57850E+000	9	...........
	27	0.373333	5.27800E-001	-9.86936E-005	0.00000E+000	-5.20905E-005	-5.99601E-002	5.28042E-001	3.57850E+000	9	...........
	28	0.386667	5.15404E-001	-9.86644E-005	0.00000E+000	-5.08521E-005	-5.99601E-002	5.15629E-001	3.57850E+000	9	...........
	29	0.4	5.02925E-001	-9.83310E-005	0.00000E+000	-4.94531E-005	-5.99601E-002	5.03190E-001	3.57850E+000	9	...........
	30	0.413333	4.90484E-001	-9.89468E-005	0.00000E+000	-4.85318E-005	-5.99601E-002	4.90741E-001	3.57850E+000	9	...........
	31	0.426667	4.78364E-001	-9.85217E-005	0.00000E+000	-4.71292E-005	-5.99601E-002	4.78445E-001	3.57850E+000	9	...........
	32	0.44	4.65877E-001	-9.86613E-005	0.00000E+000	-4.59641E-005	-5.99601E-002	4.65983E-001	3.57850E+000	9	...........
	33	0.453333	4.53401E-001	-9.85061E-005	0.00000E+000	-4.46627E-005	-5.99601E-002	4.53504E-001	3.57850E+000	9	...........
	34	0.466667	4.40921E-001	-9.87290E-005	0.00000E+000	-4.35317E-005	-5.99601E-002	4.41021E-001	3.57850E+000	9	...........
	35	0.48	4.28455E-001	-9.84946E-005	0.00000E+000	-4.22005E-005	-5.99601E-002	4.28548E-001	3.57805E+000	9	...........
	36	0.493333	4.15994E-001	-9.95500E-005	0.00000E+000	-4.14122E-005	-5.99601E-002	4.16083E-001	3.57730E+000	9	...........
	37	0.506667	4.03545E-001	-9.81925E-005	0.00000E+000	-3.96251E-005	-5.99601E-002	4.03637E-001	3.57730E+000	9	...........
	38	0.52	3.91127E-001	-9.90051E-005	0.00000E+000	-3.87236E-005	-5.99601E-002	3.91209E-001	3.57730E+000	9	...........
	39	0.533333	3.78730E-001	-9.90583E-005	0.00000E+000	-3.75163E-005	-5.99601E-002	3.78811E-001	3.57730E+000	9	...........
	40	0.546667	3.66364E-001	-9.87259E-005	0.00000E+000	-3.61696E-005	-5.99601E-002	3.66442E-001	3.57730E+000	9	...........
	41	0.56	3.54016E-001	-9.90072E-005	0.00000E+000	-3.50501E-005	-5.99601E-002	3.54091E-001	3.57730E+000	9	...........
	42	0.573333	3.41692E-001	-9.94688E-005	0.00000E+000	-3.39877E-005	-5.99601E-002	3.41764E-001	3.57730E+000	9	...........
	43	0.586667	3.29393E-001	-9.81081E-005	0.00000E+000	-3.23161E-005	-5.99601E-002	3.29464E-001	3.57730E+000	9	...........
	44	0.6	3.17118E-001	-9.83925E-005	0.00000E+000	-3.12021E-005	-5.99601E-002	3.17187E-001	3.57730E+000	9	...........
	45	0.613333	3.04864E-001	-9.86665E-005	0.00000E+000	-3.00799E-005	-5.99601E-002	3.04929E-001	3.57730E+000	9	...........
	46	0.626667	2.92625E-001	-9.87728E-005	0.00000E+000	-2.89034E-005	-5.99601E-002	2.92691E-001	3.57730E+000	9	...........
	47	0.64	2.80399E-001	-9.85769E-005	0.00000E+000	-2.76409E-005	-5.99601E-002	2.80455E-001	3.57730E+000	9	...........
	48	0.653333	2.68187E-001	-9.89999E-005	0.00000E+000	-2.65504E-005	-5.99601E-002	2.68242E-001	3.57730E+000	9	...........
	49	0.666667	2.55974E-001	-9.90624E-005	0.00000E+000	-2.53574E-005	-5.99601E-002	2.56030E-001	3.57730E+000	9	...........
	50	0.68	2.43776E-001	-9.95532E-005	0.00000E+000	-2.42687E-005	-5.99601E-002	2.43819E-001	3.57730E+000	9	...........
	51	0.693333	2.31581E-001	-9.94323E-005	0.00000E+000	-2.30267E-005	-5.99601E-002	2.31624E-001	3.57730E+000	9	...........
	52	0.706667	2.19393E-001	-9.85196E-005	0.00000E+000	-2.16145E-005	-5.99601E-002	2.19432E-001	3.57730E+000	9	...........
	53	0.72	2.07213E-001	-9.91635E-005	0.00000E+000	-2.05480E-005	-5.99601E-002	2.07252E-001	3.57730E+000	9	...........
	54	0.733333	1.95056E-001	-9.83988E-005	0.00000E+000	-1.91933E-005	-5.99601E-002	1.95088E-001	3.57730E+000	9	...........
	55	0.746667	1.82909E-001	-9.85832E-005	0.00000E+000	-1.80318E-005	-5.99601E-002	1.82945E-001	3.57730E+000	9	...........
	56	0.76	1.70782E-001	-9.91437E-005	0.00000E+000	-1.69319E-005	-5.99601E-002	1.70813E-001	3.57730E+000	9	...........
	57	0.773333	1.58685E-001	-9.89239E-005	0.00000E+000	-1.56977E-005	-5.99601E-002	1.58712E-001	3.57730E+000	9	...........
	58	0.786667	1.46617E-001	-9.82310E-005	0.00000E+000	-1.44023E-005	-5.99601E-002	1.46644E-001	3.57730E+000	9	...........
	59	0.8	1.34575E-001	-9.89530E-005	0.00000E+000	-1.33166E-005	-5.99601E-002	1.34593E-001	3.57730E+000	9	...........
	60	0.813333	1.22573E-001	-9.95584E-005	0.00000E+000	-1.22031E-005	-5.99601E-002	1.22595E-001	3.57730E+000	9	...........
	61	0.826667	1.10620E-001	-9.85613E-005	0.00000E+000	-1.09029E-005	-5.99601E-002	1.10639E-001	3.57730E+000	9	...........
	62	0.84	9.87180E-002	-9.91145E-005	0.00000E+000	-9.78439E-006	-5.99601E-002	9.87325E-002	3.57730E+000	9	...........
	63	0.853333	8.68825E-002	-9.79112E-005	0.00000E+000	-8.50677E-006	-5.99601E-002	8.69016E-002	3.57730E+000	9	...........
	64	0.866667	7.51277E-002	-9.88228E-005	0.00000E+000	-7.42433E-006	-5.99601E-002	7.51346E-002	3.57730E+000	9	...........
	65	0.88	6.34597E-002	-9.83029E-005	0.00000E+000	-6.23827E-006	-5.99601E-002	6.34646E-002	3.57730E+000	9	...........
	66	0.893333	5.18833E-002	-9.92552E-005	0.00000E+000	-5.14969E-006	-5.99601E-002	5.18931E-002	3.57730E+000	9	...........
	67	0.906667	4.04408E-002	-9.88978E-005	0.00000E+000	-3.99951E-006	-5.99601E-002	4.04439E-002	3.57730E+000	9	...........
	68	0.92	2.90980E-002	-9.93344E-005	0.00000E+000	-2.89043E-006	-5.99601E-002	2.90896E-002	3.57730E+000	9	...........
	69	0.933333	1.78794E-002	-9.89728E-005	0.00000E+000	-1.76957E-006	-5.99601E-002	1.78668E-002	3.57730E+000	9	...........
	70	0.946667	6.79882E-003	-9.90718E-005	0.00000E+000	-6.73572E-007	-5.99601E-002	6.78019E-003	3.57730E+000	9	...........
	71	0.95	-4.35824E-005	-9.86978E-005	0.00000E+000	4.30149E-009	-5.99601E-002	-7.38751E-005	3.57730E+000	9	...........
STARTTIMEOFFSET	QUANT	335.9266	Start Time Offset (s)
