EXPLAIN
TAG	PWR800_DISCHARGE
TITLE	LABEL	PWR Cyclic Charge Discharge (Cell) - Discharge Step	Test &Identifier
DATE	LABEL	12-7-2017	Date
TIME	LABEL	16:44:16	Time
NOTES	NOTES	2	&Notes...
	supercap test cell
	6M KOH
PSTAT	PSTAT	IFC5000-01520	Potentiostat
CAPACITY	QUANT	1.00000E-003	Capacity (A-hr)
CELLTYPE	SELECTOR	1	&Cell Type
WORKINGCONNECTION	SELECTOR	0	&Working Lead
MAXDISCHARGETIME	VARIABLEANDUNITS	1.00000E+002	s	1.00000E+002	second(s)	Max &Discharge Time
DISCHARGEMODE	MULTIPARAM	0	1.00000E-004	&Discharge Mode	Constant Current	Amp(s)
SAMPLETIME	QUANT	1.00000E-002	Sa&mple Period (s)
DISCHARGESTOPAT1	MULTIPARAM	3	0.00000E+000	Discharge Stop At &1	Voltage < Limit	V
DISCHARGESTOPAT2	MULTIPARAM	0	0.00000E+000	Discharge Stop At &2	None	N/A
AESBHCSELECTOR	TOGGLE	F	Save Both Half Cells
IRCOMP	TOGGLE	F	IR &Measure
EOC	QUANT	0	Open Circuit (V)
SEQUENCER	TOGGLE	TRUE	Run as Sequence
PSTATMODEL	IQUANT	53	Pstat Model
PSTATSECTION	LABEL	IFC5000-01520	Pstat Section
PSTATSERIALNO	LABEL	01520	Pstat Serial Number
CTRLMODE	IQUANT	0	Control Mode
ELECTROMETER	IQUANT	1	RE=0 or CS=1
IESTAB	IQUANT	0	I/E Stability
CASPEED	IQUANT	4	Control Amp Speed
CONVENTION	IQUANT	1	Current Convention
ICHRANGE	IQUANT	2	Ich Range
ICHRANGEMODE	TOGGLE	T	Ich Auto Range
ICHOFFSETENABLE	TOGGLE	F	Ich Offset Enable
ICHOFFSET	QUANT	0	Ich Offset (V)
ICHFILTER	IQUANT	1	Ich Filter
VCHRANGE	IQUANT	2	Vch Range
VCHRANGEMODE	TOGGLE	T	Vch Auto Range
VCHOFFSETENABLE	TOGGLE	F	Vch Offset Enable
VCHOFFSET	QUANT	0	Vch Offset (V)
VCHFILTER	IQUANT	1	Vch Filter
IERANGELOWERLIMIT	IQUANT	9	I/E Range Lower Limit
IERANGEMODE	TOGGLE	F	I/E AutoRange
IERANGE	IQUANT	9	I/E Range
ACHSELECT	IQUANT	1	Ach Select
ACHRANGE	IQUANT	2	Ach Range
ACHOFFSETENABLE	TOGGLE	F	Ach Offset Enable
ACHOFFSET	QUANT	0	Ach Offset (V)
ACHFILTER	IQUANT	1	Ach Filter
CABLEID	IQUANT	14	Cable ID
DCCALDATE	LABEL	5-7-2017	DC Calibration Date
ACCALDATE	LABEL	12/3/2015	AC Calibration Date
FRAMEWORKVERSION	QUANT	7.01	Framework Version
INSTRUMENTVERSION	LABEL	4.00	Instrument Version
CURVE	TABLE	71
	Pt	T	Vf	Im	Vu	Pwr	Sig	Ach	Temp	IERange	Over
	#	s	V	A	V	W	V	V	deg C	#	bits
	0	0.013333	8.45215E-001	-9.84884E-005	0.00000E+000	-8.32438E-005	-5.99601E-002	8.45493E-001	3.57850E+000	9	...........
	1	0.026667	8.32061E-001	-9.80956E-005	0.00000E+000	-8.16215E-005	-5.99601E-002	8.32353E-001	3.57850E+000	9	...........
	2	0.04	8.19511E-001	-9.88614E-005	0.00000E+000	-8.10179E-005	-5.99601E-002	8.19783E-001	3.57850E+000	9	...........
	3	0.053333	8.07336E-001	-9.92104E-005	0.00000E+000	-8.00961E-005	-5.99601E-002	8.07570E-001	3.57850E+000	9	...........
	4	0.066667	7.95408E-001	-9.78351E-005	0.00000E+000	-7.78188E-005	-5.99601E-002	7.95637E-001	3.57850E+000	9	...........
	5	0.08	7.83686E-001	-9.70391E-005	0.00000E+000	-7.60482E-005	-5.99601E-002	7.83897E-001	3.57850E+000	9	...........
	6	0.093333	7.72098E-001	-9.87113E-005	0.00000E+000	-7.62148E-005	-5.99601E-002	7.72345E-001	3.57850E+000	9	...........
	7	0.106667	7.60658E-001	-9.87019E-005	0.00000E+000	-7.50784E-005	-5.99601E-002	7.60900E-001	3.57850E+000	9	...........
	8	0.12	7.49318E-001	-9.98855E-005	0.00000E+000	-7.48461E-005	-5.99601E-002	7.49574E-001	3.57850E+000	9	...........
	9	0.133333	7.38073E-001	-9.86957E-005	0.00000E+000	-7.28446E-005	-5.99601E-002	7.38315E-001	3.57850E+000	9	...........
	10	0.146667	7.26944E-001	-9.98459E-005	0.00000E+000	-7.25824E-005	-5.99601E-002	7.27195E-001	3.57850E+000	9	...........
	11	0.16	7.15881E-001	-9.83050E-005	0.00000E+000	-7.03747E-005	-5.99601E-002	7.16128E-001	3.57850E+000	9	...........
	12	0.173333	7.04918E-001	-9.89947E-005	0.00000E+000	-6.97832E-005	-5.99601E-002	7.05164E-001	3.57850E+000	9	...........
	13	0.186667	6.94052E-001	-9.82091E-005	0.00000E+000	-6.81622E-005	-5.99601E-002	6.94278E-001	3.57850E+000	9	...........
	14	0.2	6.83214E-001	-9.85373E-005	0.00000E+000	-6.73221E-005	-5.99601E-002	6.83453E-001	3.57850E+000	9	...........
	15	0.213333	6.72475E-001	-9.83279E-005	0.00000E+000	-6.61231E-005	-5.99601E-002	6.72685E-001	3.57801E+000	9	...........
	16	0.226667	6.61744E-001	-9.79862E-005	0.00000E+000	-6.48417E-005	-5.99601E-002	6.61964E-001	3.57720E+000	9	...........
	17	0.24	6.51045E-001	-9.74923E-005	0.00000E+000	-6.34718E-005	-5.99601E-002	6.51291E-001	3.57720E+000	9	...........
	18	0.253333	6.40306E-001	-9.89114E-005	0.00000E+000	-6.33335E-005	-5.99601E-002	6.40537E-001	3.57720E+000	9	...........
	19	0.266667	6.29475E-001	-9.84509E-005	0.00000E+000	-6.19724E-005	-5.99601E-002	6.29703E-001	3.57720E+000	9	...........
	20	0.28	6.18559E-001	-9.79560E-005	0.00000E+000	-6.05915E-005	-5.99601E-002	6.18774E-001	3.57720E+000	9	...........
	21	0.293333	6.07370E-001	-9.90572E-005	0.00000E+000	-6.01644E-005	-5.99601E-002	6.07618E-001	3.57720E+000	9	...........
	22	0.306667	5.96067E-001	-9.84550E-005	0.00000E+000	-5.86858E-005	-5.99601E-002	5.96307E-001	3.57720E+000	9	...........
	23	0.32	5.84520E-001	-1.00858E-004	0.00000E+000	-5.89533E-005	-5.99601E-002	5.84737E-001	3.57720E+000	9	...........
	24	0.333333	5.72806E-001	-9.92917E-005	0.00000E+000	-5.68748E-005	-5.99601E-002	5.72973E-001	3.57720E+000	9	...........
	25	0.346667	5.60830E-001	-9.85300E-005	0.00000E+000	-5.52586E-005	-5.99601E-002	5.61050E-001	3.57720E+000	9	...........
	26	0.36	5.48688E-001	-9.88395E-005	0.00000E+000	-5.42320E-005	-5.99601E-002	5.48900E-001	3.57720E+000	9	...........
	27	0.373333	5.36373E-001	-9.83279E-005	0.00000E+000	-5.27405E-005	-5.99601E-002	5.36580E-001	3.57720E+000	9	...........
	28	0.386667	5.23878E-001	-9.91385E-005	0.00000E+000	-5.19364E-005	-5.99601E-002	5.24096E-001	3.57720E+000	9	...........
	29	0.4	5.11245E-001	-9.79330E-005	0.00000E+000	-5.00678E-005	-5.99601E-002	5.11475E-001	3.57720E+000	9	...........
	30	0.413333	4.98453E-001	-9.79778E-005	0.00000E+000	-4.88374E-005	-5.99601E-002	4.98709E-001	3.57720E+000	9	...........
	31	0.426667	4.85695E-001	-9.83894E-005	0.00000E+000	-4.77872E-005	-5.99601E-002	4.85876E-001	3.57720E+000	9	...........
	32	0.44	4.72883E-001	-9.86686E-005	0.00000E+000	-4.66587E-005	-5.99601E-002	4.72988E-001	3.57720E+000	9	...........
	33	0.453333	4.59795E-001	-9.91906E-005	0.00000E+000	-4.56074E-005	-5.99601E-002	4.59891E-001	3.57720E+000	9	...........
	34	0.466667	4.46620E-001	-9.80081E-005	0.00000E+000	-4.37724E-005	-5.99601E-002	4.46718E-001	3.57720E+000	9	...........
	35	0.48	4.33383E-001	-9.96199E-005	0.00000E+000	-4.31736E-005	-5.99601E-002	4.33478E-001	3.57720E+000	9	...........
	36	0.493333	4.20107E-001	-9.96449E-005	0.00000E+000	-4.18615E-005	-5.99601E-002	4.20201E-001	3.57720E+000	9	...........
	37	0.506667	4.06799E-001	-9.78070E-005	0.00000E+000	-3.97877E-005	-5.99601E-002	4.06884E-001	3.57720E+000	9	...........
	38	0.52	3.93454E-001	-9.81737E-005	0.00000E+000	-3.86269E-005	-5.99601E-002	3.93533E-001	3.57720E+000	9	...........
	39	0.533333	3.80093E-001	-9.74559E-005	0.00000E+000	-3.70423E-005	-5.99601E-002	3.80172E-001	3.57720E+000	9	...........
	40	0.546667	3.66739E-001	-9.86301E-005	0.00000E+000	-3.61715E-005	-5.99601E-002	3.66815E-001	3.57720E+000	9	...........
	41	0.56	3.53391E-001	-9.82894E-005	0.00000E+000	-3.47346E-005	-5.99601E-002	3.53464E-001	3.57720E+000	9	...........
	42	0.573333	3.40058E-001	-9.80206E-005	0.00000E+000	-3.33327E-005	-5.99601E-002	3.40128E-001	3.57720E+000	9	...........
	43	0.586667	3.26758E-001	-9.87415E-005	0.00000E+000	-3.22646E-005	-5.99601E-002	3.26826E-001	3.57720E+000	9	...........
	44	0.6	3.13495E-001	-9.85915E-005	0.00000E+000	-3.09079E-005	-5.99601E-002	3.13562E-001	3.57720E+000	9	...........
	45	0.613333	3.00274E-001	-9.83654E-005	0.00000E+000	-2.95366E-005	-5.99601E-002	3.00342E-001	3.57720E+000	9	...........
	46	0.626667	2.87099E-001	-9.92062E-005	0.00000E+000	-2.84820E-005	-5.99601E-002	2.87169E-001	3.57720E+000	9	...........
	47	0.64	2.73992E-001	-9.79205E-005	0.00000E+000	-2.68294E-005	-5.99601E-002	2.74051E-001	3.57720E+000	9	...........
	48	0.653333	2.60937E-001	-9.89916E-005	0.00000E+000	-2.58306E-005	-5.99601E-002	2.60994E-001	3.57720E+000	9	...........
	49	0.666667	2.47956E-001	-9.96730E-005	0.00000E+000	-2.47145E-005	-5.99601E-002	2.48012E-001	3.57720E+000	9	...........
	50	0.68	2.35055E-001	-9.93875E-005	0.00000E+000	-2.33615E-005	-5.99601E-002	2.35105E-001	3.57720E+000	9	...........
	51	0.693333	2.22218E-001	-9.85582E-005	0.00000E+000	-2.19014E-005	-5.99601E-002	2.22261E-001	3.57720E+000	9	...........
	52	0.706667	2.09456E-001	-9.88905E-005	0.00000E+000	-2.07132E-005	-5.99601E-002	2.09494E-001	3.57720E+000	9	...........
	53	0.72	1.96756E-001	-9.85498E-005	0.00000E+000	-1.93902E-005	-5.99601E-002	1.96795E-001	3.57720E+000	9	...........
	54	0.733333	1.84134E-001	-9.93490E-005	0.00000E+000	-1.82935E-005	-5.99601E-002	1.84173E-001	3.57720E+000	9	...........
	55	0.746667	1.71577E-001	-9.78403E-005	0.00000E+000	-1.67872E-005	-5.99601E-002	1.71617E-001	3.57720E+000	9	...........
	56	0.76	1.59105E-001	-9.77257E-005	0.00000E+000	-1.55487E-005	-5.99601E-002	1.59136E-001	3.57720E+000	9	...........
	57	0.773333	1.46690E-001	-9.91896E-005	0.00000E+000	-1.45501E-005	-5.99601E-002	1.46717E-001	3.57720E+000	9	...........
	58	0.786667	1.34346E-001	-9.93198E-005	0.00000E+000	-1.33432E-005	-5.99601E-002	1.34370E-001	3.57720E+000	9	...........
	59	0.8	1.22078E-001	-9.77101E-005	0.00000E+000	-1.19282E-005	-5.99601E-002	1.22103E-001	3.57720E+000	9	...........
	60	0.813333	1.09887E-001	-9.89676E-005	0.00000E+000	-1.08752E-005	-5.99601E-002	1.09910E-001	3.57720E+000	9	...........
	61	0.826667	9.77838E-002	-1.00069E-004	0.00000E+000	-9.78512E-006	-5.99601E-002	9.78002E-002	3.57720E+000	9	...........
	62	0.84	8.57848E-002	-9.95084E-005	0.00000E+000	-8.53630E-006	-5.99601E-002	8.58005E-002	3.57720E+000	9	...........
	63	0.853333	7.38985E-002	-9.86196E-005	0.00000E+000	-7.28784E-006	-5.99601E-002	7.39008E-002	3.57720E+000	9	...........
	64	0.866667	6.21252E-002	-9.76851E-005	0.00000E+000	-6.06870E-006	-5.99601E-002	6.21318E-002	3.57720E+000	9	...........
	65	0.88	5.04858E-002	-9.92146E-005	0.00000E+000	-5.00892E-006	-5.99601E-002	5.04864E-002	3.57720E+000	9	...........
	66	0.893333	3.90079E-002	-9.92073E-005	0.00000E+000	-3.86987E-006	-5.99601E-002	3.90107E-002	3.57720E+000	9	...........
	67	0.906667	2.76500E-002	-9.94000E-005	0.00000E+000	-2.74841E-006	-5.99601E-002	2.76495E-002	3.57720E+000	9	...........
	68	0.92	1.64505E-002	-9.91656E-005	0.00000E+000	-1.63133E-006	-5.99601E-002	1.64435E-002	3.57720E+000	9	...........
	69	0.933333	5.42224E-003	-9.83800E-005	0.00000E+000	-5.33440E-007	-5.99601E-002	5.40507E-003	3.57720E+000	9	...........
	70	0.935	-6.99005E-004	-9.54346E-005	0.00000E+000	6.67092E-008	-5.99601E-002	-7.13676E-004	3.57720E+000	9	...........
STARTTIMEOFFSET	QUANT	1459.115	Start Time Offset (s)
