EXPLAIN
TAG	PWR800_DISCHARGE
TITLE	LABEL	PWR Cyclic Charge Discharge (Cell) - Discharge Step	Test &Identifier
DATE	LABEL	12-7-2017	Date
TIME	LABEL	16:29:57	Time
NOTES	NOTES	2	&Notes...
	supercap test cell
	6M KOH
PSTAT	PSTAT	IFC5000-01520	Potentiostat
CAPACITY	QUANT	1.00000E-003	Capacity (A-hr)
CELLTYPE	SELECTOR	1	&Cell Type
WORKINGCONNECTION	SELECTOR	0	&Working Lead
MAXDISCHARGETIME	VARIABLEANDUNITS	1.00000E+002	s	1.00000E+002	second(s)	Max &Discharge Time
DISCHARGEMODE	MULTIPARAM	0	1.00000E-004	&Discharge Mode	Constant Current	Amp(s)
SAMPLETIME	QUANT	1.00000E-002	Sa&mple Period (s)
DISCHARGESTOPAT1	MULTIPARAM	3	0.00000E+000	Discharge Stop At &1	Voltage < Limit	V
DISCHARGESTOPAT2	MULTIPARAM	0	0.00000E+000	Discharge Stop At &2	None	N/A
AESBHCSELECTOR	TOGGLE	F	Save Both Half Cells
IRCOMP	TOGGLE	F	IR &Measure
EOC	QUANT	0	Open Circuit (V)
SEQUENCER	TOGGLE	TRUE	Run as Sequence
PSTATMODEL	IQUANT	53	Pstat Model
PSTATSECTION	LABEL	IFC5000-01520	Pstat Section
PSTATSERIALNO	LABEL	01520	Pstat Serial Number
CTRLMODE	IQUANT	0	Control Mode
ELECTROMETER	IQUANT	1	RE=0 or CS=1
IESTAB	IQUANT	0	I/E Stability
CASPEED	IQUANT	4	Control Amp Speed
CONVENTION	IQUANT	1	Current Convention
ICHRANGE	IQUANT	2	Ich Range
ICHRANGEMODE	TOGGLE	T	Ich Auto Range
ICHOFFSETENABLE	TOGGLE	F	Ich Offset Enable
ICHOFFSET	QUANT	0	Ich Offset (V)
ICHFILTER	IQUANT	1	Ich Filter
VCHRANGE	IQUANT	2	Vch Range
VCHRANGEMODE	TOGGLE	T	Vch Auto Range
VCHOFFSETENABLE	TOGGLE	F	Vch Offset Enable
VCHOFFSET	QUANT	0	Vch Offset (V)
VCHFILTER	IQUANT	1	Vch Filter
IERANGELOWERLIMIT	IQUANT	9	I/E Range Lower Limit
IERANGEMODE	TOGGLE	F	I/E AutoRange
IERANGE	IQUANT	9	I/E Range
ACHSELECT	IQUANT	1	Ach Select
ACHRANGE	IQUANT	2	Ach Range
ACHOFFSETENABLE	TOGGLE	F	Ach Offset Enable
ACHOFFSET	QUANT	0	Ach Offset (V)
ACHFILTER	IQUANT	1	Ach Filter
CABLEID	IQUANT	14	Cable ID
DCCALDATE	LABEL	5-7-2017	DC Calibration Date
ACCALDATE	LABEL	12/3/2015	AC Calibration Date
FRAMEWORKVERSION	QUANT	7.01	Framework Version
INSTRUMENTVERSION	LABEL	4.00	Instrument Version
CURVE	TABLE	71
	Pt	T	Vf	Im	Vu	Pwr	Sig	Ach	Temp	IERange	Over
	#	s	V	A	V	W	V	V	deg C	#	bits
	0	0.013333	8.44302E-001	-9.82789E-005	0.00000E+000	-8.29771E-005	-5.99601E-002	8.44642E-001	3.57810E+000	9	...........
	1	0.026667	8.31307E-001	-9.83946E-005	0.00000E+000	-8.17962E-005	-5.99601E-002	8.31617E-001	3.57810E+000	9	...........
	2	0.04	8.18902E-001	-9.93240E-005	0.00000E+000	-8.13365E-005	-5.99601E-002	8.19220E-001	3.57810E+000	9	...........
	3	0.053333	8.06868E-001	-9.87790E-005	0.00000E+000	-7.97017E-005	-5.99601E-002	8.07157E-001	3.57810E+000	9	...........
	4	0.066667	7.95110E-001	-9.89791E-005	0.00000E+000	-7.86993E-005	-5.99601E-002	7.95407E-001	3.57810E+000	9	...........
	5	0.08	7.83545E-001	-9.87936E-005	0.00000E+000	-7.74092E-005	-5.99601E-002	7.83832E-001	3.57810E+000	9	...........
	6	0.093333	7.72162E-001	-9.83362E-005	0.00000E+000	-7.59315E-005	-5.99601E-002	7.72457E-001	3.57810E+000	9	...........
	7	0.106667	7.60904E-001	-9.84092E-005	0.00000E+000	-7.48799E-005	-5.99601E-002	7.61157E-001	3.57810E+000	9	...........
	8	0.12	7.49764E-001	-9.95052E-005	0.00000E+000	-7.46054E-005	-5.99601E-002	7.50011E-001	3.57810E+000	9	...........
	9	0.133333	7.38714E-001	-9.87697E-005	0.00000E+000	-7.29626E-005	-5.99601E-002	7.38980E-001	3.57810E+000	9	...........
	10	0.146667	7.27789E-001	-9.87978E-005	0.00000E+000	-7.19040E-005	-5.99601E-002	7.28050E-001	3.57810E+000	9	...........
	11	0.16	7.16913E-001	-9.84165E-005	0.00000E+000	-7.05560E-005	-5.99601E-002	7.17179E-001	3.57810E+000	9	...........
	12	0.173333	7.06125E-001	-9.87999E-005	0.00000E+000	-6.97651E-005	-5.99601E-002	7.06405E-001	3.57810E+000	9	...........
	13	0.186667	6.95428E-001	-9.86457E-005	0.00000E+000	-6.86010E-005	-5.99601E-002	6.95698E-001	3.57810E+000	9	...........
	14	0.2	6.84771E-001	-9.91625E-005	0.00000E+000	-6.79036E-005	-5.99601E-002	6.85007E-001	3.57810E+000	9	...........
	15	0.213333	6.74152E-001	-9.94438E-005	0.00000E+000	-6.70402E-005	-5.99601E-002	6.74387E-001	3.57810E+000	9	...........
	16	0.226667	6.63485E-001	-9.94563E-005	0.00000E+000	-6.59878E-005	-5.99601E-002	6.63738E-001	3.57810E+000	9	...........
	17	0.24	6.52739E-001	-9.83685E-005	0.00000E+000	-6.42090E-005	-5.99601E-002	6.53001E-001	3.57810E+000	9	...........
	18	0.253333	6.41906E-001	-9.89541E-005	0.00000E+000	-6.35192E-005	-5.99601E-002	6.42151E-001	3.57810E+000	9	...........
	19	0.266667	6.30905E-001	-9.76163E-005	0.00000E+000	-6.15866E-005	-5.99601E-002	6.31164E-001	3.57810E+000	9	...........
	20	0.28	6.19779E-001	-9.94948E-005	0.00000E+000	-6.16648E-005	-5.99601E-002	6.20007E-001	3.57810E+000	9	...........
	21	0.293333	6.08359E-001	-9.85029E-005	0.00000E+000	-5.99251E-005	-5.99601E-002	6.08656E-001	3.57810E+000	9	...........
	22	0.306667	5.96841E-001	-9.88082E-005	0.00000E+000	-5.89728E-005	-5.99601E-002	5.97140E-001	3.57810E+000	9	...........
	23	0.32	5.85086E-001	-9.93948E-005	0.00000E+000	-5.81546E-005	-5.99601E-002	5.85378E-001	3.57810E+000	9	...........
	24	0.333333	5.73216E-001	-9.77590E-005	0.00000E+000	-5.60370E-005	-5.99601E-002	5.73447E-001	3.57810E+000	9	...........
	25	0.346667	5.61115E-001	-9.87540E-005	0.00000E+000	-5.54124E-005	-5.99601E-002	5.61392E-001	3.57810E+000	9	...........
	26	0.36	5.48891E-001	-9.83331E-005	0.00000E+000	-5.39741E-005	-5.99601E-002	5.49152E-001	3.57810E+000	9	...........
	27	0.373333	5.36535E-001	-9.88384E-005	0.00000E+000	-5.30303E-005	-5.99601E-002	5.36775E-001	3.57810E+000	9	...........
	28	0.386667	5.24058E-001	-9.86634E-005	0.00000E+000	-5.17053E-005	-5.99601E-002	5.24292E-001	3.57810E+000	9	...........
	29	0.4	5.11435E-001	-9.82904E-005	0.00000E+000	-5.02692E-005	-5.99601E-002	5.11698E-001	3.57810E+000	9	...........
	30	0.413333	4.98699E-001	-9.83362E-005	0.00000E+000	-4.90402E-005	-5.99601E-002	4.98991E-001	3.57810E+000	9	...........
	31	0.426667	4.86065E-001	-9.86269E-005	0.00000E+000	-4.79391E-005	-5.99601E-002	4.86233E-001	3.57810E+000	9	...........
	32	0.44	4.73396E-001	-9.78789E-005	0.00000E+000	-4.63355E-005	-5.99601E-002	4.73502E-001	3.57810E+000	9	...........
	33	0.453333	4.60462E-001	-9.74746E-005	0.00000E+000	-4.48834E-005	-5.99601E-002	4.60564E-001	3.57810E+000	9	...........
	34	0.466667	4.47471E-001	-9.95584E-005	0.00000E+000	-4.45495E-005	-5.99601E-002	4.47577E-001	3.57722E+000	9	...........
	35	0.48	4.34449E-001	-9.87509E-005	0.00000E+000	-4.29023E-005	-5.99601E-002	4.34541E-001	3.57670E+000	9	...........
	36	0.493333	4.21381E-001	-9.82352E-005	0.00000E+000	-4.13944E-005	-5.99601E-002	4.21474E-001	3.57670E+000	9	...........
	37	0.506667	4.08305E-001	-9.83498E-005	0.00000E+000	-4.01567E-005	-5.99601E-002	4.08391E-001	3.57670E+000	9	...........
	38	0.52	3.95208E-001	-9.83321E-005	0.00000E+000	-3.88617E-005	-5.99601E-002	3.95290E-001	3.57670E+000	9	...........
	39	0.533333	3.82121E-001	-9.92823E-005	0.00000E+000	-3.79378E-005	-5.99601E-002	3.82200E-001	3.57670E+000	9	...........
	40	0.546667	3.69043E-001	-9.93385E-005	0.00000E+000	-3.66602E-005	-5.99601E-002	3.69119E-001	3.57670E+000	9	...........
	41	0.56	3.55983E-001	-9.87822E-005	0.00000E+000	-3.51648E-005	-5.99601E-002	3.56058E-001	3.57670E+000	9	...........
	42	0.573333	3.42947E-001	-9.91270E-005	0.00000E+000	-3.39953E-005	-5.99601E-002	3.43016E-001	3.57670E+000	9	...........
	43	0.586667	3.29949E-001	-9.86832E-005	0.00000E+000	-3.25604E-005	-5.99601E-002	3.30017E-001	3.57670E+000	9	...........
	44	0.6	3.17005E-001	-9.78622E-005	0.00000E+000	-3.10228E-005	-5.99601E-002	3.17070E-001	3.57670E+000	9	...........
	45	0.613333	3.04084E-001	-9.85457E-005	0.00000E+000	-2.99662E-005	-5.99601E-002	3.04150E-001	3.57670E+000	9	...........
	46	0.626667	2.91213E-001	-9.94771E-005	0.00000E+000	-2.89690E-005	-5.99601E-002	2.91273E-001	3.57670E+000	9	...........
	47	0.64	2.78400E-001	-9.83790E-005	0.00000E+000	-2.73887E-005	-5.99601E-002	2.78466E-001	3.57670E+000	9	...........
	48	0.653333	2.65640E-001	-9.76413E-005	0.00000E+000	-2.59375E-005	-5.99601E-002	2.65698E-001	3.57670E+000	9	...........
	49	0.666667	2.52931E-001	-9.73569E-005	0.00000E+000	-2.46245E-005	-5.99601E-002	2.52985E-001	3.57670E+000	9	...........
	50	0.68	2.40284E-001	-9.80820E-005	0.00000E+000	-2.35676E-005	-5.99601E-002	2.40333E-001	3.57670E+000	9	...........
	51	0.693333	2.27671E-001	-9.89468E-005	0.00000E+000	-2.25273E-005	-5.99601E-002	2.27712E-001	3.57670E+000	9	...........
	52	0.706667	2.15110E-001	-9.83352E-005	0.00000E+000	-2.11529E-005	-5.99601E-002	2.15157E-001	3.57670E+000	9	...........
	53	0.72	2.02613E-001	-9.99668E-005	0.00000E+000	-2.02545E-005	-5.99601E-002	2.02657E-001	3.57670E+000	9	...........
	54	0.733333	1.90162E-001	-9.91625E-005	0.00000E+000	-1.88569E-005	-5.99601E-002	1.90197E-001	3.57670E+000	9	...........
	55	0.746667	1.77749E-001	-9.90031E-005	0.00000E+000	-1.75977E-005	-5.99601E-002	1.77783E-001	3.57670E+000	9	...........
	56	0.76	1.65385E-001	-9.94782E-005	0.00000E+000	-1.64522E-005	-5.99601E-002	1.65424E-001	3.57670E+000	9	...........
	57	0.773333	1.53077E-001	-9.91677E-005	0.00000E+000	-1.51803E-005	-5.99601E-002	1.53107E-001	3.57670E+000	9	...........
	58	0.786667	1.40815E-001	-9.82050E-005	0.00000E+000	-1.38287E-005	-5.99601E-002	1.40842E-001	3.57670E+000	9	...........
	59	0.8	1.28618E-001	-9.74809E-005	0.00000E+000	-1.25378E-005	-5.99601E-002	1.28644E-001	3.57670E+000	9	...........
	60	0.813333	1.16482E-001	-9.81664E-005	0.00000E+000	-1.14346E-005	-5.99601E-002	1.16506E-001	3.57670E+000	9	...........
	61	0.826667	1.04420E-001	-9.79674E-005	0.00000E+000	-1.02298E-005	-5.99601E-002	1.04442E-001	3.57670E+000	9	...........
	62	0.84	9.24332E-002	-9.90395E-005	0.00000E+000	-9.15454E-006	-5.99601E-002	9.24526E-002	3.57670E+000	9	...........
	63	0.853333	8.05464E-002	-9.79122E-005	0.00000E+000	-7.88647E-006	-5.99601E-002	8.05620E-002	3.57670E+000	9	...........
	64	0.866667	6.87577E-002	-9.75465E-005	0.00000E+000	-6.70707E-006	-5.99601E-002	6.87686E-002	3.57670E+000	9	...........
	65	0.88	5.70662E-002	-9.93125E-005	0.00000E+000	-5.66738E-006	-5.99601E-002	5.70758E-002	3.57670E+000	9	...........
	66	0.893333	4.55220E-002	-9.88603E-005	0.00000E+000	-4.50032E-006	-5.99601E-002	4.55254E-002	3.57670E+000	9	...........
	67	0.906667	3.40972E-002	-9.88520E-005	0.00000E+000	-3.37058E-006	-5.99601E-002	3.40985E-002	3.57670E+000	9	...........
	68	0.92	2.27989E-002	-9.90135E-005	0.00000E+000	-2.25740E-006	-5.99601E-002	2.27928E-002	3.57670E+000	9	...........
	69	0.933333	1.16540E-002	-9.98230E-005	0.00000E+000	-1.16334E-006	-5.99601E-002	1.16411E-002	3.57670E+000	9	...........
	70	0.941667	2.70741E-003	-9.88136E-005	0.00000E+000	-2.67529E-007	-5.99601E-002	2.68401E-003	3.57670E+000	9	...........
STARTTIMEOFFSET	QUANT	851.1805	Start Time Offset (s)
