EXPLAIN
TAG	PWR800_DISCHARGE
TITLE	LABEL	PWR Cyclic Charge Discharge (Cell) - Discharge Step	Test &Identifier
DATE	LABEL	12-7-2017	Date
TIME	LABEL	16:49:12	Time
NOTES	NOTES	2	&Notes...
	supercap test cell
	6M KOH
PSTAT	PSTAT	IFC5000-01520	Potentiostat
CAPACITY	QUANT	1.00000E-003	Capacity (A-hr)
CELLTYPE	SELECTOR	1	&Cell Type
WORKINGCONNECTION	SELECTOR	0	&Working Lead
MAXDISCHARGETIME	VARIABLEANDUNITS	1.00000E+002	s	1.00000E+002	second(s)	Max &Discharge Time
DISCHARGEMODE	MULTIPARAM	0	1.00000E-004	&Discharge Mode	Constant Current	Amp(s)
SAMPLETIME	QUANT	1.00000E-002	Sa&mple Period (s)
DISCHARGESTOPAT1	MULTIPARAM	3	0.00000E+000	Discharge Stop At &1	Voltage < Limit	V
DISCHARGESTOPAT2	MULTIPARAM	0	0.00000E+000	Discharge Stop At &2	None	N/A
AESBHCSELECTOR	TOGGLE	F	Save Both Half Cells
IRCOMP	TOGGLE	F	IR &Measure
EOC	QUANT	0	Open Circuit (V)
SEQUENCER	TOGGLE	TRUE	Run as Sequence
PSTATMODEL	IQUANT	53	Pstat Model
PSTATSECTION	LABEL	IFC5000-01520	Pstat Section
PSTATSERIALNO	LABEL	01520	Pstat Serial Number
CTRLMODE	IQUANT	0	Control Mode
ELECTROMETER	IQUANT	1	RE=0 or CS=1
IESTAB	IQUANT	0	I/E Stability
CASPEED	IQUANT	4	Control Amp Speed
CONVENTION	IQUANT	1	Current Convention
ICHRANGE	IQUANT	2	Ich Range
ICHRANGEMODE	TOGGLE	T	Ich Auto Range
ICHOFFSETENABLE	TOGGLE	F	Ich Offset Enable
ICHOFFSET	QUANT	0	Ich Offset (V)
ICHFILTER	IQUANT	1	Ich Filter
VCHRANGE	IQUANT	2	Vch Range
VCHRANGEMODE	TOGGLE	T	Vch Auto Range
VCHOFFSETENABLE	TOGGLE	F	Vch Offset Enable
VCHOFFSET	QUANT	0	Vch Offset (V)
VCHFILTER	IQUANT	1	Vch Filter
IERANGELOWERLIMIT	IQUANT	9	I/E Range Lower Limit
IERANGEMODE	TOGGLE	F	I/E AutoRange
IERANGE	IQUANT	9	I/E Range
ACHSELECT	IQUANT	1	Ach Select
ACHRANGE	IQUANT	2	Ach Range
ACHOFFSETENABLE	TOGGLE	F	Ach Offset Enable
ACHOFFSET	QUANT	0	Ach Offset (V)
ACHFILTER	IQUANT	1	Ach Filter
CABLEID	IQUANT	14	Cable ID
DCCALDATE	LABEL	5-7-2017	DC Calibration Date
ACCALDATE	LABEL	12/3/2015	AC Calibration Date
FRAMEWORKVERSION	QUANT	7.01	Framework Version
INSTRUMENTVERSION	LABEL	4.00	Instrument Version
CURVE	TABLE	70
	Pt	T	Vf	Im	Vu	Pwr	Sig	Ach	Temp	IERange	Over
	#	s	V	A	V	W	V	V	deg C	#	bits
	0	0.013333	8.46819E-001	-1.00152E-004	0.00000E+000	-8.48109E-005	-5.99601E-002	8.47146E-001	3.57790E+000	9	...........
	1	0.026667	8.33612E-001	-9.90906E-005	0.00000E+000	-8.26031E-005	-5.99601E-002	8.33916E-001	3.57790E+000	9	...........
	2	0.04	8.21016E-001	-9.78757E-005	0.00000E+000	-8.03576E-005	-5.99601E-002	8.21296E-001	3.57790E+000	9	...........
	3	0.053333	8.08762E-001	-9.88603E-005	0.00000E+000	-7.99544E-005	-5.99601E-002	8.09051E-001	3.57790E+000	9	...........
	4	0.066667	7.96800E-001	-9.85821E-005	0.00000E+000	-7.85502E-005	-5.99601E-002	7.97057E-001	3.57790E+000	9	...........
	5	0.08	7.85007E-001	-9.83060E-005	0.00000E+000	-7.71709E-005	-5.99601E-002	7.85251E-001	3.57790E+000	9	...........
	6	0.093333	7.73360E-001	-9.84300E-005	0.00000E+000	-7.61218E-005	-5.99601E-002	7.73622E-001	3.57790E+000	9	...........
	7	0.106667	7.61829E-001	-9.88655E-005	0.00000E+000	-7.53186E-005	-5.99601E-002	7.62096E-001	3.57790E+000	9	...........
	8	0.12	7.50439E-001	-9.96324E-005	0.00000E+000	-7.47680E-005	-5.99601E-002	7.50686E-001	3.57790E+000	9	...........
	9	0.133333	7.39113E-001	-9.84623E-005	0.00000E+000	-7.27748E-005	-5.99601E-002	7.39353E-001	3.57790E+000	9	...........
	10	0.146667	7.27898E-001	-9.85613E-005	0.00000E+000	-7.17426E-005	-5.99601E-002	7.28139E-001	3.57790E+000	9	...........
	11	0.16	7.16754E-001	-9.83123E-005	0.00000E+000	-7.04657E-005	-5.99601E-002	7.17008E-001	3.57790E+000	9	...........
	12	0.173333	7.05697E-001	-9.90312E-005	0.00000E+000	-6.98860E-005	-5.99601E-002	7.05935E-001	3.57790E+000	9	...........
	13	0.186667	6.94718E-001	-9.94313E-005	0.00000E+000	-6.90767E-005	-5.99601E-002	6.94963E-001	3.57790E+000	9	...........
	14	0.2	6.83810E-001	-9.72537E-005	0.00000E+000	-6.65031E-005	-5.99601E-002	6.84055E-001	3.57790E+000	9	...........
	15	0.213333	6.73010E-001	-1.00024E-004	0.00000E+000	-6.73172E-005	-5.99601E-002	6.73223E-001	3.57790E+000	9	...........
	16	0.226667	6.62199E-001	-9.82987E-005	0.00000E+000	-6.50933E-005	-5.99601E-002	6.62444E-001	3.57790E+000	9	...........
	17	0.24	6.51442E-001	-9.85175E-005	0.00000E+000	-6.41785E-005	-5.99601E-002	6.51696E-001	3.57790E+000	9	...........
	18	0.253333	6.40672E-001	-9.83487E-005	0.00000E+000	-6.30093E-005	-5.99601E-002	6.40917E-001	3.57790E+000	9	...........
	19	0.266667	6.29809E-001	-9.98689E-005	0.00000E+000	-6.28983E-005	-5.99601E-002	6.30076E-001	3.57790E+000	9	...........
	20	0.28	6.18866E-001	-9.95938E-005	0.00000E+000	-6.16353E-005	-5.99601E-002	6.19082E-001	3.57790E+000	9	...........
	21	0.293333	6.07670E-001	-9.84686E-005	0.00000E+000	-5.98364E-005	-5.99601E-002	6.07943E-001	3.57790E+000	9	...........
	22	0.306667	5.96351E-001	-9.87572E-005	0.00000E+000	-5.88939E-005	-5.99601E-002	5.96603E-001	3.57790E+000	9	...........
	23	0.32	5.84794E-001	-9.92208E-005	0.00000E+000	-5.80237E-005	-5.99601E-002	5.85063E-001	3.57790E+000	9	...........
	24	0.333333	5.73041E-001	-9.89947E-005	0.00000E+000	-5.67280E-005	-5.99601E-002	5.73291E-001	3.57790E+000	9	...........
	25	0.346667	5.61066E-001	-9.88426E-005	0.00000E+000	-5.54573E-005	-5.99601E-002	5.61315E-001	3.57790E+000	9	...........
	26	0.36	5.48889E-001	-9.99543E-005	0.00000E+000	-5.48638E-005	-5.99601E-002	5.49097E-001	3.57790E+000	9	...........
	27	0.373333	5.36537E-001	-1.00727E-004	0.00000E+000	-5.40440E-005	-5.99601E-002	5.36741E-001	3.57790E+000	9	...........
	28	0.386667	5.23999E-001	-9.82404E-005	0.00000E+000	-5.14779E-005	-5.99601E-002	5.24212E-001	3.57790E+000	9	...........
	29	0.4	5.11302E-001	-9.80935E-005	0.00000E+000	-5.01554E-005	-5.99601E-002	5.11516E-001	3.57790E+000	9	...........
	30	0.413333	4.98486E-001	-9.88957E-005	0.00000E+000	-4.92981E-005	-5.99601E-002	4.98698E-001	3.57790E+000	9	...........
	31	0.426667	4.85666E-001	-9.84904E-005	0.00000E+000	-4.78335E-005	-5.99601E-002	4.85833E-001	3.57790E+000	9	...........
	32	0.44	4.72799E-001	-9.96417E-005	0.00000E+000	-4.71106E-005	-5.99601E-002	4.72897E-001	3.57790E+000	9	...........
	33	0.453333	4.59636E-001	-9.76674E-005	0.00000E+000	-4.48914E-005	-5.99601E-002	4.59734E-001	3.57790E+000	9	...........
	34	0.466667	4.46395E-001	-9.92531E-005	0.00000E+000	-4.43061E-005	-5.99601E-002	4.46488E-001	3.57790E+000	9	...........
	35	0.48	4.33083E-001	-9.94782E-005	0.00000E+000	-4.30823E-005	-5.99601E-002	4.33172E-001	3.57790E+000	9	...........
	36	0.493333	4.19728E-001	-9.95928E-005	0.00000E+000	-4.18019E-005	-5.99601E-002	4.19816E-001	3.57790E+000	9	...........
	37	0.506667	4.06336E-001	-9.95698E-005	0.00000E+000	-4.04588E-005	-5.99601E-002	4.06414E-001	3.57790E+000	9	...........
	38	0.52	3.92913E-001	-9.92010E-005	0.00000E+000	-3.89773E-005	-5.99601E-002	3.92986E-001	3.57790E+000	9	...........
	39	0.533333	3.79469E-001	-9.82081E-005	0.00000E+000	-3.72670E-005	-5.99601E-002	3.79542E-001	3.57790E+000	9	...........
	40	0.546667	3.66026E-001	-9.85259E-005	0.00000E+000	-3.60630E-005	-5.99601E-002	3.66095E-001	3.57752E+000	9	...........
	41	0.56	3.52585E-001	-9.78486E-005	0.00000E+000	-3.45000E-005	-5.99601E-002	3.52654E-001	3.57730E+000	9	...........
	42	0.573333	3.39166E-001	-9.90718E-005	0.00000E+000	-3.36018E-005	-5.99601E-002	3.39232E-001	3.57730E+000	9	...........
	43	0.586667	3.25782E-001	-9.89603E-005	0.00000E+000	-3.22395E-005	-5.99601E-002	3.25845E-001	3.57730E+000	9	...........
	44	0.6	3.12431E-001	-9.75767E-005	0.00000E+000	-3.04860E-005	-5.99601E-002	3.12500E-001	3.57730E+000	9	...........
	45	0.613333	2.99133E-001	-9.93948E-005	0.00000E+000	-2.97323E-005	-5.99601E-002	2.99190E-001	3.57730E+000	9	...........
	46	0.626667	2.85881E-001	-9.89134E-005	0.00000E+000	-2.82775E-005	-5.99601E-002	2.85939E-001	3.57730E+000	9	...........
	47	0.64	2.72685E-001	-9.74465E-005	0.00000E+000	-2.65722E-005	-5.99601E-002	2.72742E-001	3.57730E+000	9	...........
	48	0.653333	2.59552E-001	-9.88218E-005	0.00000E+000	-2.56494E-005	-5.99601E-002	2.59605E-001	3.57730E+000	9	...........
	49	0.666667	2.46501E-001	-9.90135E-005	0.00000E+000	-2.44069E-005	-5.99601E-002	2.46543E-001	3.57730E+000	9	...........
	50	0.68	2.33509E-001	-9.76590E-005	0.00000E+000	-2.28043E-005	-5.99601E-002	2.33555E-001	3.57730E+000	9	...........
	51	0.693333	2.20590E-001	-9.80268E-005	0.00000E+000	-2.16237E-005	-5.99601E-002	2.20635E-001	3.57730E+000	9	...........
	52	0.706667	2.07749E-001	-9.81227E-005	0.00000E+000	-2.03849E-005	-5.99601E-002	2.07790E-001	3.57730E+000	9	...........
	53	0.72	1.94988E-001	-9.90749E-005	0.00000E+000	-1.93184E-005	-5.99601E-002	1.95022E-001	3.57730E+000	9	...........
	54	0.733333	1.82298E-001	-9.89676E-005	0.00000E+000	-1.80416E-005	-5.99601E-002	1.82333E-001	3.57730E+000	9	...........
	55	0.746667	1.69686E-001	-9.83144E-005	0.00000E+000	-1.66826E-005	-5.99601E-002	1.69719E-001	3.57730E+000	9	...........
	56	0.76	1.57152E-001	-9.90135E-005	0.00000E+000	-1.55602E-005	-5.99601E-002	1.57173E-001	3.57730E+000	9	...........
	57	0.773333	1.44682E-001	-9.94448E-005	0.00000E+000	-1.43879E-005	-5.99601E-002	1.44705E-001	3.57730E+000	9	...........
	58	0.786667	1.32295E-001	-9.88520E-005	0.00000E+000	-1.30776E-005	-5.99601E-002	1.32312E-001	3.57730E+000	9	...........
	59	0.8	1.19984E-001	-9.90385E-005	0.00000E+000	-1.18831E-005	-5.99601E-002	1.20006E-001	3.57730E+000	9	...........
	60	0.813333	1.07757E-001	-9.85926E-005	0.00000E+000	-1.06241E-005	-5.99601E-002	1.07773E-001	3.57730E+000	9	...........
	61	0.826667	9.56238E-002	-9.77736E-005	0.00000E+000	-9.34948E-006	-5.99601E-002	9.56333E-002	3.57730E+000	9	...........
	62	0.84	8.35960E-002	-9.81008E-005	0.00000E+000	-8.20084E-006	-5.99601E-002	8.36016E-002	3.57730E+000	9	...........
	63	0.853333	7.16818E-002	-9.90604E-005	0.00000E+000	-7.10082E-006	-5.99601E-002	7.16890E-002	3.57730E+000	9	...........
	64	0.866667	5.98891E-002	-9.89780E-005	0.00000E+000	-5.92770E-006	-5.99601E-002	5.98946E-002	3.57730E+000	9	...........
	65	0.88	4.82472E-002	-1.00024E-004	0.00000E+000	-4.82588E-006	-5.99601E-002	4.82523E-002	3.57730E+000	9	...........
	66	0.893333	3.67555E-002	-9.82310E-005	0.00000E+000	-3.61053E-006	-5.99601E-002	3.67550E-002	3.57730E+000	9	...........
	67	0.906667	2.54031E-002	-9.81612E-005	0.00000E+000	-2.49360E-006	-5.99601E-002	2.53967E-002	3.57730E+000	9	...........
	68	0.92	1.42116E-002	-9.78757E-005	0.00000E+000	-1.39097E-006	-5.99601E-002	1.41972E-002	3.57730E+000	9	...........
	69	0.931667	3.87045E-003	-9.90615E-005	0.00000E+000	-3.83412E-007	-5.99601E-002	3.85513E-003	3.57730E+000	9	...........
STARTTIMEOFFSET	QUANT	1668.917	Start Time Offset (s)
