EXPLAIN
TAG	PWR800_DISCHARGE
TITLE	LABEL	PWR Cyclic Charge Discharge (Cell) - Discharge Step	Test &Identifier
DATE	LABEL	12-7-2017	Date
TIME	LABEL	16:10:59	Time
NOTES	NOTES	2	&Notes...
	supercap test cell
	6M KOH
PSTAT	PSTAT	IFC5000-01520	Potentiostat
CAPACITY	QUANT	1.00000E-003	Capacity (A-hr)
CELLTYPE	SELECTOR	1	&Cell Type
WORKINGCONNECTION	SELECTOR	0	&Working Lead
MAXDISCHARGETIME	VARIABLEANDUNITS	1.00000E+002	s	1.00000E+002	second(s)	Max &Discharge Time
DISCHARGEMODE	MULTIPARAM	0	1.00000E-004	&Discharge Mode	Constant Current	Amp(s)
SAMPLETIME	QUANT	1.00000E-002	Sa&mple Period (s)
DISCHARGESTOPAT1	MULTIPARAM	3	0.00000E+000	Discharge Stop At &1	Voltage < Limit	V
DISCHARGESTOPAT2	MULTIPARAM	0	0.00000E+000	Discharge Stop At &2	None	N/A
AESBHCSELECTOR	TOGGLE	F	Save Both Half Cells
IRCOMP	TOGGLE	F	IR &Measure
EOC	QUANT	0	Open Circuit (V)
SEQUENCER	TOGGLE	TRUE	Run as Sequence
PSTATMODEL	IQUANT	53	Pstat Model
PSTATSECTION	LABEL	IFC5000-01520	Pstat Section
PSTATSERIALNO	LABEL	01520	Pstat Serial Number
CTRLMODE	IQUANT	0	Control Mode
ELECTROMETER	IQUANT	1	RE=0 or CS=1
IESTAB	IQUANT	0	I/E Stability
CASPEED	IQUANT	4	Control Amp Speed
CONVENTION	IQUANT	1	Current Convention
ICHRANGE	IQUANT	2	Ich Range
ICHRANGEMODE	TOGGLE	T	Ich Auto Range
ICHOFFSETENABLE	TOGGLE	F	Ich Offset Enable
ICHOFFSET	QUANT	0	Ich Offset (V)
ICHFILTER	IQUANT	1	Ich Filter
VCHRANGE	IQUANT	2	Vch Range
VCHRANGEMODE	TOGGLE	T	Vch Auto Range
VCHOFFSETENABLE	TOGGLE	F	Vch Offset Enable
VCHOFFSET	QUANT	0	Vch Offset (V)
VCHFILTER	IQUANT	1	Vch Filter
IERANGELOWERLIMIT	IQUANT	9	I/E Range Lower Limit
IERANGEMODE	TOGGLE	F	I/E AutoRange
IERANGE	IQUANT	9	I/E Range
ACHSELECT	IQUANT	1	Ach Select
ACHRANGE	IQUANT	2	Ach Range
ACHOFFSETENABLE	TOGGLE	F	Ach Offset Enable
ACHOFFSET	QUANT	0	Ach Offset (V)
ACHFILTER	IQUANT	1	Ach Filter
CABLEID	IQUANT	14	Cable ID
DCCALDATE	LABEL	5-7-2017	DC Calibration Date
ACCALDATE	LABEL	12/3/2015	AC Calibration Date
FRAMEWORKVERSION	QUANT	7.01	Framework Version
INSTRUMENTVERSION	LABEL	4.00	Instrument Version
CURVE	TABLE	75
	Pt	T	Vf	Im	Vu	Pwr	Sig	Ach	Temp	IERange	Over
	#	s	V	A	V	W	V	V	deg C	#	bits
	0	0.013333	8.32479E-001	-9.85717E-005	0.00000E+000	-8.20589E-005	-5.99601E-002	8.32797E-001	3.57800E+000	9	...........
	1	0.026667	8.19129E-001	-9.88447E-005	0.00000E+000	-8.09666E-005	-5.99601E-002	8.19426E-001	3.57800E+000	9	...........
	2	0.04	8.06309E-001	-9.80112E-005	0.00000E+000	-7.90273E-005	-5.99601E-002	8.06581E-001	3.57800E+000	9	...........
	3	0.053333	7.93844E-001	-9.91218E-005	0.00000E+000	-7.86872E-005	-5.99601E-002	7.94090E-001	3.57800E+000	9	...........
	4	0.066667	7.81567E-001	-9.88561E-005	0.00000E+000	-7.72627E-005	-5.99601E-002	7.81821E-001	3.57800E+000	9	...........
	5	0.08	7.69437E-001	-9.86582E-005	0.00000E+000	-7.59113E-005	-5.99601E-002	7.69691E-001	3.57800E+000	9	...........
	6	0.093333	7.57398E-001	-9.81466E-005	0.00000E+000	-7.43360E-005	-5.99601E-002	7.57635E-001	3.57800E+000	9	...........
	7	0.106667	7.45398E-001	-9.85936E-005	0.00000E+000	-7.34915E-005	-5.99601E-002	7.45659E-001	3.57800E+000	9	...........
	8	0.12	7.33441E-001	-9.91791E-005	0.00000E+000	-7.27421E-005	-5.99601E-002	7.33678E-001	3.57800E+000	9	...........
	9	0.133333	7.21528E-001	-9.83946E-005	0.00000E+000	-7.09945E-005	-5.99601E-002	7.21765E-001	3.57800E+000	9	...........
	10	0.146667	7.09571E-001	-9.91197E-005	0.00000E+000	-7.03325E-005	-5.99601E-002	7.09844E-001	3.57800E+000	9	...........
	11	0.16	6.97714E-001	-9.80852E-005	0.00000E+000	-6.84354E-005	-5.99601E-002	6.97942E-001	3.57800E+000	9	...........
	12	0.173333	6.85836E-001	-9.83154E-005	0.00000E+000	-6.74283E-005	-5.99601E-002	6.86069E-001	3.57800E+000	9	...........
	13	0.186667	6.74006E-001	-9.82789E-005	0.00000E+000	-6.62406E-005	-5.99601E-002	6.74234E-001	3.57800E+000	9	...........
	14	0.2	6.62160E-001	-9.85675E-005	0.00000E+000	-6.52675E-005	-5.99601E-002	6.62409E-001	3.57800E+000	9	...........
	15	0.213333	6.50361E-001	-9.82477E-005	0.00000E+000	-6.38964E-005	-5.99601E-002	6.50599E-001	3.57800E+000	9	...........
	16	0.226667	6.38606E-001	-9.95000E-005	0.00000E+000	-6.35413E-005	-5.99601E-002	6.38853E-001	3.57800E+000	9	...........
	17	0.24	6.26867E-001	-9.84967E-005	0.00000E+000	-6.17443E-005	-5.99601E-002	6.27108E-001	3.57800E+000	9	...........
	18	0.253333	6.15160E-001	-9.85603E-005	0.00000E+000	-6.06303E-005	-5.99601E-002	6.15427E-001	3.57800E+000	9	...........
	19	0.266667	6.03493E-001	-9.86061E-005	0.00000E+000	-5.95081E-005	-5.99601E-002	6.03766E-001	3.57800E+000	9	...........
	20	0.28	5.91918E-001	-9.94406E-005	0.00000E+000	-5.88607E-005	-5.99601E-002	5.92191E-001	3.57800E+000	9	...........
	21	0.293333	5.80338E-001	-9.83415E-005	0.00000E+000	-5.70713E-005	-5.99601E-002	5.80593E-001	3.57800E+000	9	...........
	22	0.306667	5.68854E-001	-9.79518E-005	0.00000E+000	-5.57203E-005	-5.99601E-002	5.69096E-001	3.57800E+000	9	...........
	23	0.32	5.57359E-001	-9.84050E-005	0.00000E+000	-5.48469E-005	-5.99601E-002	5.57631E-001	3.57800E+000	9	...........
	24	0.333333	5.45977E-001	-9.85675E-005	0.00000E+000	-5.38156E-005	-5.99601E-002	5.46222E-001	3.57800E+000	9	...........
	25	0.346667	5.34635E-001	-9.89207E-005	0.00000E+000	-5.28865E-005	-5.99601E-002	5.34877E-001	3.57800E+000	9	...........
	26	0.36	5.23322E-001	-9.99678E-005	0.00000E+000	-5.23154E-005	-5.99601E-002	5.23556E-001	3.57800E+000	9	...........
	27	0.373333	5.12064E-001	-9.76486E-005	0.00000E+000	-5.00024E-005	-5.99601E-002	5.12304E-001	3.57800E+000	9	...........
	28	0.386667	5.00837E-001	-9.91937E-005	0.00000E+000	-4.96798E-005	-5.99601E-002	5.01090E-001	3.57800E+000	9	...........
	29	0.4	4.89695E-001	-9.83581E-005	0.00000E+000	-4.81655E-005	-5.99601E-002	4.89941E-001	3.57800E+000	9	...........
	30	0.413333	4.78905E-001	-9.84915E-005	0.00000E+000	-4.71681E-005	-5.99601E-002	4.79009E-001	3.57800E+000	9	...........
	31	0.426667	4.67813E-001	-9.88030E-005	0.00000E+000	-4.62213E-005	-5.99601E-002	4.67917E-001	3.57800E+000	9	...........
	32	0.44	4.56764E-001	-9.89551E-005	0.00000E+000	-4.51991E-005	-5.99601E-002	4.56861E-001	3.57800E+000	9	...........
	33	0.453333	4.45733E-001	-9.90145E-005	0.00000E+000	-4.41340E-005	-5.99601E-002	4.45830E-001	3.57800E+000	9	...........
	34	0.466667	4.34724E-001	-9.90218E-005	0.00000E+000	-4.30471E-005	-5.99601E-002	4.34818E-001	3.57800E+000	9	...........
	35	0.48	4.23733E-001	-9.83446E-005	0.00000E+000	-4.16718E-005	-5.99601E-002	4.23828E-001	3.57800E+000	9	...........
	36	0.493333	4.12746E-001	-9.89291E-005	0.00000E+000	-4.08326E-005	-5.99601E-002	4.12842E-001	3.57800E+000	9	...........
	37	0.506667	4.01760E-001	-9.82779E-005	0.00000E+000	-3.94841E-005	-5.99601E-002	4.01842E-001	3.57800E+000	9	...........
	38	0.52	3.90764E-001	-9.83696E-005	0.00000E+000	-3.84393E-005	-5.99601E-002	3.90846E-001	3.57800E+000	9	...........
	39	0.533333	3.79759E-001	-9.84498E-005	0.00000E+000	-3.73872E-005	-5.99601E-002	3.79838E-001	3.57800E+000	9	...........
	40	0.546667	3.68738E-001	-9.83477E-005	0.00000E+000	-3.62646E-005	-5.99601E-002	3.68813E-001	3.57800E+000	9	...........
	41	0.56	3.57706E-001	-9.78768E-005	0.00000E+000	-3.50111E-005	-5.99601E-002	3.57784E-001	3.57800E+000	9	...........
	42	0.573333	3.46653E-001	-9.91218E-005	0.00000E+000	-3.43609E-005	-5.99601E-002	3.46725E-001	3.57800E+000	9	...........
	43	0.586667	3.35591E-001	-9.84831E-005	0.00000E+000	-3.30501E-005	-5.99601E-002	3.35661E-001	3.57800E+000	9	...........
	44	0.6	3.24509E-001	-9.93490E-005	0.00000E+000	-3.22396E-005	-5.99601E-002	3.24576E-001	3.57800E+000	9	...........
	45	0.613333	3.13414E-001	-9.81987E-005	0.00000E+000	-3.07768E-005	-5.99601E-002	3.13477E-001	3.57800E+000	9	...........
	46	0.626667	3.02292E-001	-9.83904E-005	0.00000E+000	-2.97427E-005	-5.99601E-002	3.02350E-001	3.57800E+000	9	...........
	47	0.64	2.91147E-001	-9.87634E-005	0.00000E+000	-2.87547E-005	-5.99601E-002	2.91204E-001	3.57800E+000	9	...........
	48	0.653333	2.79984E-001	-9.87915E-005	0.00000E+000	-2.76601E-005	-5.99601E-002	2.80041E-001	3.57800E+000	9	...........
	49	0.666667	2.68809E-001	-9.86426E-005	0.00000E+000	-2.65160E-005	-5.99601E-002	2.68864E-001	3.57800E+000	9	...........
	50	0.68	2.57625E-001	-9.87770E-005	0.00000E+000	-2.54474E-005	-5.99601E-002	2.57669E-001	3.57800E+000	9	...........
	51	0.693333	2.46422E-001	-9.92354E-005	0.00000E+000	-2.44538E-005	-5.99601E-002	2.46468E-001	3.57800E+000	9	...........
	52	0.706667	2.35204E-001	-9.86551E-005	0.00000E+000	-2.32040E-005	-5.99601E-002	2.35253E-001	3.57800E+000	9	...........
	53	0.72	2.23977E-001	-9.89405E-005	0.00000E+000	-2.21604E-005	-5.99601E-002	2.24022E-001	3.57800E+000	9	...........
	54	0.733333	2.12758E-001	-9.82435E-005	0.00000E+000	-2.09021E-005	-5.99601E-002	2.12797E-001	3.57800E+000	9	...........
	55	0.746667	2.01535E-001	-9.84238E-005	0.00000E+000	-1.98358E-005	-5.99601E-002	2.01573E-001	3.57800E+000	9	...........
	56	0.76	1.90313E-001	-9.88155E-005	0.00000E+000	-1.88059E-005	-5.99601E-002	1.90354E-001	3.57800E+000	9	...........
	57	0.773333	1.79117E-001	-9.84571E-005	0.00000E+000	-1.76354E-005	-5.99601E-002	1.79148E-001	3.57800E+000	9	...........
	58	0.786667	1.67931E-001	-9.90854E-005	0.00000E+000	-1.66395E-005	-5.99601E-002	1.67959E-001	3.57800E+000	9	...........
	59	0.8	1.56773E-001	-9.96386E-005	0.00000E+000	-1.56206E-005	-5.99601E-002	1.56796E-001	3.57800E+000	9	...........
	60	0.813333	1.45643E-001	-9.92458E-005	0.00000E+000	-1.44544E-005	-5.99601E-002	1.45669E-001	3.57800E+000	9	...........
	61	0.826667	1.34559E-001	-9.85457E-005	0.00000E+000	-1.32602E-005	-5.99601E-002	1.34583E-001	3.57800E+000	9	...........
	62	0.84	1.23523E-001	-9.84634E-005	0.00000E+000	-1.21625E-005	-5.99601E-002	1.23546E-001	3.57845E+000	9	...........
	63	0.853333	1.12538E-001	-9.86853E-005	0.00000E+000	-1.11058E-005	-5.99601E-002	1.12557E-001	3.57860E+000	9	...........
	64	0.866667	1.01621E-001	-9.89510E-005	0.00000E+000	-1.00555E-005	-5.99601E-002	1.01633E-001	3.57860E+000	9	...........
	65	0.88	9.07814E-002	-9.79768E-005	0.00000E+000	-8.89447E-006	-5.99601E-002	9.07974E-002	3.57860E+000	9	...........
	66	0.893333	8.00231E-002	-9.85384E-005	0.00000E+000	-7.88535E-006	-5.99601E-002	8.00322E-002	3.57860E+000	9	...........
	67	0.906667	6.93644E-002	-9.94261E-005	0.00000E+000	-6.89663E-006	-5.99601E-002	6.93620E-002	3.57860E+000	9	...........
	68	0.92	5.88002E-002	-9.80153E-005	0.00000E+000	-5.76332E-006	-5.99601E-002	5.88009E-002	3.57860E+000	9	...........
	69	0.933333	4.83576E-002	-9.83081E-005	0.00000E+000	-4.75394E-006	-5.99601E-002	4.83628E-002	3.57860E+000	9	...........
	70	0.946667	3.80446E-002	-9.86082E-005	0.00000E+000	-3.75151E-006	-5.99601E-002	3.80436E-002	3.57860E+000	9	...........
	71	0.96	2.78285E-002	-9.86790E-005	0.00000E+000	-2.74609E-006	-5.99601E-002	2.78212E-002	3.57860E+000	9	...........
	72	0.97333	1.77562E-002	-9.89676E-005	0.00000E+000	-1.75729E-006	-5.99601E-002	1.77445E-002	3.57860E+000	9	...........
	73	0.98667	7.82282E-003	-9.95740E-005	0.00000E+000	-7.78950E-007	-5.99601E-002	7.80638E-003	3.57860E+000	9	...........
	74	0.99167	1.07588E-003	-9.84519E-005	0.00000E+000	-1.05923E-007	-5.99601E-002	1.06110E-003	3.57860E+000	9	...........
STARTTIMEOFFSET	QUANT	38.625	Start Time Offset (s)
