EXPLAIN
TAG	PWR800_DISCHARGE
TITLE	LABEL	PWR Cyclic Charge Discharge (Cell) - Discharge Step	Test &Identifier
DATE	LABEL	12-7-2017	Date
TIME	LABEL	16:12:44	Time
NOTES	NOTES	2	&Notes...
	supercap test cell
	6M KOH
PSTAT	PSTAT	IFC5000-01520	Potentiostat
CAPACITY	QUANT	1.00000E-003	Capacity (A-hr)
CELLTYPE	SELECTOR	1	&Cell Type
WORKINGCONNECTION	SELECTOR	0	&Working Lead
MAXDISCHARGETIME	VARIABLEANDUNITS	1.00000E+002	s	1.00000E+002	second(s)	Max &Discharge Time
DISCHARGEMODE	MULTIPARAM	0	1.00000E-004	&Discharge Mode	Constant Current	Amp(s)
SAMPLETIME	QUANT	1.00000E-002	Sa&mple Period (s)
DISCHARGESTOPAT1	MULTIPARAM	3	0.00000E+000	Discharge Stop At &1	Voltage < Limit	V
DISCHARGESTOPAT2	MULTIPARAM	0	0.00000E+000	Discharge Stop At &2	None	N/A
AESBHCSELECTOR	TOGGLE	F	Save Both Half Cells
IRCOMP	TOGGLE	F	IR &Measure
EOC	QUANT	0	Open Circuit (V)
SEQUENCER	TOGGLE	TRUE	Run as Sequence
PSTATMODEL	IQUANT	53	Pstat Model
PSTATSECTION	LABEL	IFC5000-01520	Pstat Section
PSTATSERIALNO	LABEL	01520	Pstat Serial Number
CTRLMODE	IQUANT	0	Control Mode
ELECTROMETER	IQUANT	1	RE=0 or CS=1
IESTAB	IQUANT	0	I/E Stability
CASPEED	IQUANT	4	Control Amp Speed
CONVENTION	IQUANT	1	Current Convention
ICHRANGE	IQUANT	2	Ich Range
ICHRANGEMODE	TOGGLE	T	Ich Auto Range
ICHOFFSETENABLE	TOGGLE	F	Ich Offset Enable
ICHOFFSET	QUANT	0	Ich Offset (V)
ICHFILTER	IQUANT	1	Ich Filter
VCHRANGE	IQUANT	2	Vch Range
VCHRANGEMODE	TOGGLE	T	Vch Auto Range
VCHOFFSETENABLE	TOGGLE	F	Vch Offset Enable
VCHOFFSET	QUANT	0	Vch Offset (V)
VCHFILTER	IQUANT	1	Vch Filter
IERANGELOWERLIMIT	IQUANT	9	I/E Range Lower Limit
IERANGEMODE	TOGGLE	F	I/E AutoRange
IERANGE	IQUANT	9	I/E Range
ACHSELECT	IQUANT	1	Ach Select
ACHRANGE	IQUANT	2	Ach Range
ACHOFFSETENABLE	TOGGLE	F	Ach Offset Enable
ACHOFFSET	QUANT	0	Ach Offset (V)
ACHFILTER	IQUANT	1	Ach Filter
CABLEID	IQUANT	14	Cable ID
DCCALDATE	LABEL	5-7-2017	DC Calibration Date
ACCALDATE	LABEL	12/3/2015	AC Calibration Date
FRAMEWORKVERSION	QUANT	7.01	Framework Version
INSTRUMENTVERSION	LABEL	4.00	Instrument Version
CURVE	TABLE	73
	Pt	T	Vf	Im	Vu	Pwr	Sig	Ach	Temp	IERange	Over
	#	s	V	A	V	W	V	V	deg C	#	bits
	0	0.013333	8.38273E-001	-9.81862E-005	0.00000E+000	-8.23068E-005	-5.99601E-002	8.38626E-001	3.57780E+000	9	...........
	1	0.026667	8.25190E-001	-9.86238E-005	0.00000E+000	-8.13834E-005	-5.99601E-002	8.25527E-001	3.57780E+000	9	...........
	2	0.04	8.12658E-001	-9.81508E-005	0.00000E+000	-7.97630E-005	-5.99601E-002	8.12962E-001	3.57780E+000	9	...........
	3	0.053333	8.00514E-001	-9.88186E-005	0.00000E+000	-7.91057E-005	-5.99601E-002	8.00782E-001	3.57780E+000	9	...........
	4	0.066667	7.88575E-001	-9.87082E-005	0.00000E+000	-7.78389E-005	-5.99601E-002	7.88852E-001	3.57780E+000	9	...........
	5	0.08	7.76807E-001	-9.88082E-005	0.00000E+000	-7.67549E-005	-5.99601E-002	7.77086E-001	3.57780E+000	9	...........
	6	0.093333	7.65169E-001	-9.90010E-005	0.00000E+000	-7.57525E-005	-5.99601E-002	7.65439E-001	3.57780E+000	9	...........
	7	0.106667	7.53577E-001	-9.84779E-005	0.00000E+000	-7.42108E-005	-5.99601E-002	7.53856E-001	3.57780E+000	9	...........
	8	0.12	7.41999E-001	-9.83977E-005	0.00000E+000	-7.30110E-005	-5.99601E-002	7.42253E-001	3.57780E+000	9	...........
	9	0.133333	7.30409E-001	-9.85227E-005	0.00000E+000	-7.19619E-005	-5.99601E-002	7.30654E-001	3.57780E+000	9	...........
	10	0.146667	7.18772E-001	-9.85832E-005	0.00000E+000	-7.08588E-005	-5.99601E-002	7.19020E-001	3.57780E+000	9	...........
	11	0.16	7.07047E-001	-9.91448E-005	0.00000E+000	-7.01000E-005	-5.99601E-002	7.07283E-001	3.57780E+000	9	...........
	12	0.173333	6.95300E-001	-9.88207E-005	0.00000E+000	-6.87100E-005	-5.99601E-002	6.95544E-001	3.57780E+000	9	...........
	13	0.186667	6.83483E-001	-9.81768E-005	0.00000E+000	-6.71022E-005	-5.99601E-002	6.83737E-001	3.57780E+000	9	...........
	14	0.2	6.71651E-001	-9.81873E-005	0.00000E+000	-6.59476E-005	-5.99601E-002	6.71882E-001	3.57780E+000	9	...........
	15	0.213333	6.59719E-001	-9.83394E-005	0.00000E+000	-6.48764E-005	-5.99601E-002	6.59971E-001	3.57780E+000	9	...........
	16	0.226667	6.47802E-001	-9.82831E-005	0.00000E+000	-6.36680E-005	-5.99601E-002	6.48037E-001	3.57780E+000	9	...........
	17	0.24	6.35824E-001	-9.87613E-005	0.00000E+000	-6.27948E-005	-5.99601E-002	6.36053E-001	3.57780E+000	9	...........
	18	0.253333	6.23864E-001	-9.98376E-005	0.00000E+000	-6.22851E-005	-5.99601E-002	6.24101E-001	3.57780E+000	9	...........
	19	0.266667	6.11858E-001	-9.85894E-005	0.00000E+000	-6.03227E-005	-5.99601E-002	6.12091E-001	3.57780E+000	9	...........
	20	0.28	5.99828E-001	-9.85196E-005	0.00000E+000	-5.90948E-005	-5.99601E-002	6.00090E-001	3.57780E+000	9	...........
	21	0.293333	5.87846E-001	-9.94625E-005	0.00000E+000	-5.84687E-005	-5.99601E-002	5.88098E-001	3.57780E+000	9	...........
	22	0.306667	5.75871E-001	-9.90301E-005	0.00000E+000	-5.70285E-005	-5.99601E-002	5.76103E-001	3.57780E+000	9	...........
	23	0.32	5.63917E-001	-9.84550E-005	0.00000E+000	-5.55205E-005	-5.99601E-002	5.64161E-001	3.57780E+000	9	...........
	24	0.333333	5.51963E-001	-9.88499E-005	0.00000E+000	-5.45615E-005	-5.99601E-002	5.52191E-001	3.57780E+000	9	...........
	25	0.346667	5.40037E-001	-9.86280E-005	0.00000E+000	-5.32628E-005	-5.99601E-002	5.40296E-001	3.57780E+000	9	...........
	26	0.36	5.28138E-001	-9.86113E-005	0.00000E+000	-5.20804E-005	-5.99601E-002	5.28375E-001	3.57780E+000	9	...........
	27	0.373333	5.16306E-001	-9.81393E-005	0.00000E+000	-5.06699E-005	-5.99601E-002	5.16529E-001	3.57780E+000	9	...........
	28	0.386667	5.04425E-001	-9.89082E-005	0.00000E+000	-4.98918E-005	-5.99601E-002	5.04703E-001	3.57780E+000	9	...........
	29	0.4	4.92692E-001	-9.89697E-005	0.00000E+000	-4.87616E-005	-5.99601E-002	4.92920E-001	3.57780E+000	9	...........
	30	0.413333	4.81178E-001	-9.82602E-005	0.00000E+000	-4.72806E-005	-5.99601E-002	4.81318E-001	3.57780E+000	9	...........
	31	0.426667	4.69560E-001	-9.82998E-005	0.00000E+000	-4.61576E-005	-5.99601E-002	4.69656E-001	3.57780E+000	9	...........
	32	0.44	4.57873E-001	-9.83946E-005	0.00000E+000	-4.50522E-005	-5.99601E-002	4.57973E-001	3.57780E+000	9	...........
	33	0.453333	4.46236E-001	-9.88020E-005	0.00000E+000	-4.40890E-005	-5.99601E-002	4.46334E-001	3.57780E+000	9	...........
	34	0.466667	4.34632E-001	-9.88603E-005	0.00000E+000	-4.29679E-005	-5.99601E-002	4.34730E-001	3.57780E+000	9	...........
	35	0.48	4.23050E-001	-9.92000E-005	0.00000E+000	-4.19665E-005	-5.99601E-002	4.23145E-001	3.57780E+000	9	...........
	36	0.493333	4.11501E-001	-9.96917E-005	0.00000E+000	-4.10233E-005	-5.99601E-002	4.11586E-001	3.57780E+000	9	...........
	37	0.506667	3.99972E-001	-9.87645E-005	0.00000E+000	-3.95030E-005	-5.99601E-002	4.00050E-001	3.57780E+000	9	...........
	38	0.52	3.88444E-001	-9.89395E-005	0.00000E+000	-3.84325E-005	-5.99601E-002	3.88524E-001	3.57780E+000	9	...........
	39	0.533333	3.76926E-001	-9.92781E-005	0.00000E+000	-3.74205E-005	-5.99601E-002	3.77002E-001	3.57780E+000	9	...........
	40	0.546667	3.65411E-001	-9.84800E-005	0.00000E+000	-3.59857E-005	-5.99601E-002	3.65486E-001	3.57780E+000	9	...........
	41	0.56	3.53892E-001	-9.88843E-005	0.00000E+000	-3.49944E-005	-5.99601E-002	3.53967E-001	3.57780E+000	9	...........
	42	0.573333	3.42354E-001	-9.88801E-005	0.00000E+000	-3.38520E-005	-5.99601E-002	3.42422E-001	3.57780E+000	9	...........
	43	0.586667	3.30808E-001	-9.89572E-005	0.00000E+000	-3.27358E-005	-5.99601E-002	3.30868E-001	3.57780E+000	9	...........
	44	0.6	3.19233E-001	-9.92771E-005	0.00000E+000	-3.16925E-005	-5.99601E-002	3.19303E-001	3.57780E+000	9	...........
	45	0.613333	3.07651E-001	-1.00016E-004	0.00000E+000	-3.07699E-005	-5.99601E-002	3.07714E-001	3.57780E+000	9	...........
	46	0.626667	2.96041E-001	-9.91395E-005	0.00000E+000	-2.93494E-005	-5.99601E-002	2.96102E-001	3.57780E+000	9	...........
	47	0.64	2.84410E-001	-9.75673E-005	0.00000E+000	-2.77492E-005	-5.99601E-002	2.84470E-001	3.57780E+000	9	...........
	48	0.653333	2.72761E-001	-9.81716E-005	0.00000E+000	-2.67774E-005	-5.99601E-002	2.72813E-001	3.57780E+000	9	...........
	49	0.666667	2.61090E-001	-9.83519E-005	0.00000E+000	-2.56787E-005	-5.99601E-002	2.61143E-001	3.57780E+000	9	...........
	50	0.68	2.49414E-001	-9.86926E-005	0.00000E+000	-2.46153E-005	-5.99601E-002	2.49466E-001	3.57780E+000	9	...........
	51	0.693333	2.37718E-001	-9.86571E-005	0.00000E+000	-2.34525E-005	-5.99601E-002	2.37760E-001	3.57780E+000	9	...........
	52	0.706667	2.26000E-001	-9.87905E-005	0.00000E+000	-2.23267E-005	-5.99601E-002	2.26044E-001	3.57780E+000	9	...........
	53	0.72	2.14289E-001	-9.87332E-005	0.00000E+000	-2.11574E-005	-5.99601E-002	2.14326E-001	3.57780E+000	9	...........
	54	0.733333	2.02560E-001	-9.89343E-005	0.00000E+000	-2.00401E-005	-5.99601E-002	2.02600E-001	3.57780E+000	9	...........
	55	0.746667	1.90835E-001	-9.88332E-005	0.00000E+000	-1.88609E-005	-5.99601E-002	1.90868E-001	3.57780E+000	9	...........
	56	0.76	1.79102E-001	-9.86228E-005	0.00000E+000	-1.76635E-005	-5.99601E-002	1.79135E-001	3.57780E+000	9	...........
	57	0.773333	1.67385E-001	-9.85967E-005	0.00000E+000	-1.65036E-005	-5.99601E-002	1.67411E-001	3.57780E+000	9	...........
	58	0.786667	1.55678E-001	-9.84008E-005	0.00000E+000	-1.53188E-005	-5.99601E-002	1.55702E-001	3.57780E+000	9	...........
	59	0.8	1.43985E-001	-9.82560E-005	0.00000E+000	-1.41474E-005	-5.99601E-002	1.44004E-001	3.57780E+000	9	...........
	60	0.813333	1.32320E-001	-9.85186E-005	0.00000E+000	-1.30360E-005	-5.99601E-002	1.32342E-001	3.57780E+000	9	...........
	61	0.826667	1.20692E-001	-9.85728E-005	0.00000E+000	-1.18969E-005	-5.99601E-002	1.20710E-001	3.57780E+000	9	...........
	62	0.84	1.09105E-001	-9.84894E-005	0.00000E+000	-1.07457E-005	-5.99601E-002	1.09125E-001	3.57780E+000	9	...........
	63	0.853333	9.75685E-002	-9.93125E-005	0.00000E+000	-9.68977E-006	-5.99601E-002	9.75844E-002	3.57859E+000	9	...........
	64	0.866667	8.60951E-002	-9.92271E-005	0.00000E+000	-8.54296E-006	-5.99601E-002	8.61113E-002	3.57870E+000	9	...........
	65	0.88	7.47099E-002	-9.90260E-005	0.00000E+000	-7.39822E-006	-5.99601E-002	7.47167E-002	3.57870E+000	9	...........
	66	0.893333	6.34096E-002	-9.82143E-005	0.00000E+000	-6.22773E-006	-5.99601E-002	6.34176E-002	3.57870E+000	9	...........
	67	0.906667	5.22023E-002	-9.87593E-005	0.00000E+000	-5.15546E-006	-5.99601E-002	5.22056E-002	3.57870E+000	9	...........
	68	0.92	4.11438E-002	-9.84029E-005	0.00000E+000	-4.04867E-006	-5.99601E-002	4.11479E-002	3.57870E+000	9	...........
	69	0.933333	3.01759E-002	-9.91781E-005	0.00000E+000	-2.99278E-006	-5.99601E-002	3.01738E-002	3.57870E+000	9	...........
	70	0.946667	1.93474E-002	-9.91583E-005	0.00000E+000	-1.91846E-006	-5.99601E-002	1.93378E-002	3.57870E+000	9	...........
	71	0.96	8.66213E-003	-9.86561E-005	0.00000E+000	-8.54572E-007	-5.99601E-002	8.64416E-003	3.57870E+000	9	...........
	72	0.96667	7.39981E-004	-9.84352E-005	0.00000E+000	-7.28402E-008	-5.99601E-002	7.18093E-004	3.57870E+000	9	...........
STARTTIMEOFFSET	QUANT	113.7917	Start Time Offset (s)
