EXPLAIN
TAG	PWR800_DISCHARGE
TITLE	LABEL	PWR Cyclic Charge Discharge (Cell) - Discharge Step	Test &Identifier
DATE	LABEL	12-7-2017	Date
TIME	LABEL	16:53:02	Time
NOTES	NOTES	2	&Notes...
	supercap test cell
	6M KOH
PSTAT	PSTAT	IFC5000-01520	Potentiostat
CAPACITY	QUANT	1.00000E-003	Capacity (A-hr)
CELLTYPE	SELECTOR	1	&Cell Type
WORKINGCONNECTION	SELECTOR	0	&Working Lead
MAXDISCHARGETIME	VARIABLEANDUNITS	1.00000E+002	s	1.00000E+002	second(s)	Max &Discharge Time
DISCHARGEMODE	MULTIPARAM	0	1.00000E-004	&Discharge Mode	Constant Current	Amp(s)
SAMPLETIME	QUANT	1.00000E-002	Sa&mple Period (s)
DISCHARGESTOPAT1	MULTIPARAM	3	0.00000E+000	Discharge Stop At &1	Voltage < Limit	V
DISCHARGESTOPAT2	MULTIPARAM	0	0.00000E+000	Discharge Stop At &2	None	N/A
AESBHCSELECTOR	TOGGLE	F	Save Both Half Cells
IRCOMP	TOGGLE	F	IR &Measure
EOC	QUANT	0	Open Circuit (V)
SEQUENCER	TOGGLE	TRUE	Run as Sequence
PSTATMODEL	IQUANT	53	Pstat Model
PSTATSECTION	LABEL	IFC5000-01520	Pstat Section
PSTATSERIALNO	LABEL	01520	Pstat Serial Number
CTRLMODE	IQUANT	0	Control Mode
ELECTROMETER	IQUANT	1	RE=0 or CS=1
IESTAB	IQUANT	0	I/E Stability
CASPEED	IQUANT	4	Control Amp Speed
CONVENTION	IQUANT	1	Current Convention
ICHRANGE	IQUANT	2	Ich Range
ICHRANGEMODE	TOGGLE	T	Ich Auto Range
ICHOFFSETENABLE	TOGGLE	F	Ich Offset Enable
ICHOFFSET	QUANT	0	Ich Offset (V)
ICHFILTER	IQUANT	1	Ich Filter
VCHRANGE	IQUANT	2	Vch Range
VCHRANGEMODE	TOGGLE	T	Vch Auto Range
VCHOFFSETENABLE	TOGGLE	F	Vch Offset Enable
VCHOFFSET	QUANT	0	Vch Offset (V)
VCHFILTER	IQUANT	1	Vch Filter
IERANGELOWERLIMIT	IQUANT	9	I/E Range Lower Limit
IERANGEMODE	TOGGLE	F	I/E AutoRange
IERANGE	IQUANT	9	I/E Range
ACHSELECT	IQUANT	1	Ach Select
ACHRANGE	IQUANT	2	Ach Range
ACHOFFSETENABLE	TOGGLE	F	Ach Offset Enable
ACHOFFSET	QUANT	0	Ach Offset (V)
ACHFILTER	IQUANT	1	Ach Filter
CABLEID	IQUANT	14	Cable ID
DCCALDATE	LABEL	5-7-2017	DC Calibration Date
ACCALDATE	LABEL	12/3/2015	AC Calibration Date
FRAMEWORKVERSION	QUANT	7.01	Framework Version
INSTRUMENTVERSION	LABEL	4.00	Instrument Version
CURVE	TABLE	70
	Pt	T	Vf	Im	Vu	Pwr	Sig	Ach	Temp	IERange	Over
	#	s	V	A	V	W	V	V	deg C	#	bits
	0	0.013333	8.46337E-001	-9.84113E-005	0.00000E+000	-8.32891E-005	-5.99601E-002	8.46633E-001	3.57780E+000	9	...........
	1	0.026667	8.33103E-001	-9.81904E-005	0.00000E+000	-8.18027E-005	-5.99601E-002	8.33391E-001	3.57780E+000	9	...........
	2	0.04	8.20465E-001	-9.82102E-005	0.00000E+000	-8.05780E-005	-5.99601E-002	8.20738E-001	3.57780E+000	9	...........
	3	0.053333	8.08194E-001	-9.81570E-005	0.00000E+000	-7.93299E-005	-5.99601E-002	8.08460E-001	3.57780E+000	9	...........
	4	0.066667	7.96211E-001	-9.91739E-005	0.00000E+000	-7.89633E-005	-5.99601E-002	7.96453E-001	3.57780E+000	9	...........
	5	0.08	7.84374E-001	-9.92187E-005	0.00000E+000	-7.78246E-005	-5.99601E-002	7.84642E-001	3.57780E+000	9	...........
	6	0.093333	7.72703E-001	-9.86061E-005	0.00000E+000	-7.61933E-005	-5.99601E-002	7.72956E-001	3.57780E+000	9	...........
	7	0.106667	7.61155E-001	-9.78789E-005	0.00000E+000	-7.45010E-005	-5.99601E-002	7.61407E-001	3.57780E+000	9	...........
	8	0.12	7.49727E-001	-9.77278E-005	0.00000E+000	-7.32692E-005	-5.99601E-002	7.49969E-001	3.57780E+000	9	...........
	9	0.133333	7.38366E-001	-9.89520E-005	0.00000E+000	-7.30628E-005	-5.99601E-002	7.38606E-001	3.57780E+000	9	...........
	10	0.146667	7.27111E-001	-9.97793E-005	0.00000E+000	-7.25506E-005	-5.99601E-002	7.27354E-001	3.57780E+000	9	...........
	11	0.16	7.15932E-001	-9.79862E-005	0.00000E+000	-7.01515E-005	-5.99601E-002	7.16176E-001	3.57780E+000	9	...........
	12	0.173333	7.04838E-001	-9.84404E-005	0.00000E+000	-6.93846E-005	-5.99601E-002	7.05074E-001	3.57780E+000	9	...........
	13	0.186667	6.93833E-001	-9.83644E-005	0.00000E+000	-6.82484E-005	-5.99601E-002	6.94063E-001	3.57780E+000	9	...........
	14	0.2	6.82880E-001	-9.86571E-005	0.00000E+000	-6.73710E-005	-5.99601E-002	6.83109E-001	3.57780E+000	9	...........
	15	0.213333	6.72020E-001	-9.82685E-005	0.00000E+000	-6.60384E-005	-5.99601E-002	6.72258E-001	3.57780E+000	9	...........
	16	0.226667	6.61196E-001	-9.85842E-005	0.00000E+000	-6.51835E-005	-5.99601E-002	6.61440E-001	3.57780E+000	9	...........
	17	0.24	6.50418E-001	-9.89499E-005	0.00000E+000	-6.43588E-005	-5.99601E-002	6.50667E-001	3.57780E+000	9	...........
	18	0.253333	6.39595E-001	-9.76246E-005	0.00000E+000	-6.24403E-005	-5.99601E-002	6.39871E-001	3.57780E+000	9	...........
	19	0.266667	6.28726E-001	-9.90364E-005	0.00000E+000	-6.22668E-005	-5.99601E-002	6.28967E-001	3.57780E+000	9	...........
	20	0.28	6.17751E-001	-9.87561E-005	0.00000E+000	-6.10067E-005	-5.99601E-002	6.17998E-001	3.57780E+000	9	...........
	21	0.293333	6.06539E-001	-9.96282E-005	0.00000E+000	-6.04284E-005	-5.99601E-002	6.06844E-001	3.57780E+000	9	...........
	22	0.306667	5.95219E-001	-9.93583E-005	0.00000E+000	-5.91400E-005	-5.99601E-002	5.95481E-001	3.57780E+000	9	...........
	23	0.32	5.83647E-001	-9.89374E-005	0.00000E+000	-5.77445E-005	-5.99601E-002	5.83913E-001	3.57780E+000	9	...........
	24	0.333333	5.71900E-001	-9.78330E-005	0.00000E+000	-5.59507E-005	-5.99601E-002	5.72123E-001	3.57780E+000	9	...........
	25	0.346667	5.59870E-001	-9.95605E-005	0.00000E+000	-5.57409E-005	-5.99601E-002	5.60137E-001	3.57780E+000	9	...........
	26	0.36	5.47698E-001	-9.80508E-005	0.00000E+000	-5.37022E-005	-5.99601E-002	5.47926E-001	3.57780E+000	9	...........
	27	0.373333	5.35333E-001	-9.70401E-005	0.00000E+000	-5.19488E-005	-5.99601E-002	5.35557E-001	3.57780E+000	9	...........
	28	0.386667	5.22748E-001	-9.88728E-005	0.00000E+000	-5.16856E-005	-5.99601E-002	5.22995E-001	3.57780E+000	9	...........
	29	0.4	5.10025E-001	-9.94354E-005	0.00000E+000	-5.07145E-005	-5.99601E-002	5.10281E-001	3.57780E+000	9	...........
	30	0.413333	4.97174E-001	-9.87249E-005	0.00000E+000	-4.90834E-005	-5.99601E-002	4.97404E-001	3.57780E+000	9	...........
	31	0.426667	4.84344E-001	-9.83206E-005	0.00000E+000	-4.76210E-005	-5.99601E-002	4.84505E-001	3.57705E+000	9	...........
	32	0.44	4.71413E-001	-9.88697E-005	0.00000E+000	-4.66084E-005	-5.99601E-002	4.71511E-001	3.57630E+000	9	...........
	33	0.453333	4.58217E-001	-9.91364E-005	0.00000E+000	-4.54260E-005	-5.99601E-002	4.58314E-001	3.57630E+000	9	...........
	34	0.466667	4.44945E-001	-9.90604E-005	0.00000E+000	-4.40764E-005	-5.99601E-002	4.45044E-001	3.57630E+000	9	...........
	35	0.48	4.31609E-001	-9.90635E-005	0.00000E+000	-4.27567E-005	-5.99601E-002	4.31699E-001	3.57630E+000	9	...........
	36	0.493333	4.18215E-001	-9.87374E-005	0.00000E+000	-4.12935E-005	-5.99601E-002	4.18302E-001	3.57630E+000	9	...........
	37	0.506667	4.04779E-001	-9.83717E-005	0.00000E+000	-3.98188E-005	-5.99601E-002	4.04860E-001	3.57630E+000	9	...........
	38	0.52	3.91316E-001	-1.00057E-004	0.00000E+000	-3.91540E-005	-5.99601E-002	3.91389E-001	3.57630E+000	9	...........
	39	0.533333	3.77841E-001	-9.80112E-005	0.00000E+000	-3.70326E-005	-5.99601E-002	3.77917E-001	3.57630E+000	9	...........
	40	0.546667	3.64346E-001	-9.92614E-005	0.00000E+000	-3.61655E-005	-5.99601E-002	3.64421E-001	3.57630E+000	9	...........
	41	0.56	3.50863E-001	-1.00453E-004	0.00000E+000	-3.52454E-005	-5.99601E-002	3.50939E-001	3.57630E+000	9	...........
	42	0.573333	3.37411E-001	-9.77538E-005	0.00000E+000	-3.29832E-005	-5.99601E-002	3.37479E-001	3.57630E+000	9	...........
	43	0.586667	3.23982E-001	-9.83487E-005	0.00000E+000	-3.18633E-005	-5.99601E-002	3.24048E-001	3.57630E+000	9	...........
	44	0.6	3.10597E-001	-9.81185E-005	0.00000E+000	-3.04753E-005	-5.99601E-002	3.10661E-001	3.57630E+000	9	...........
	45	0.613333	2.97254E-001	-9.78132E-005	0.00000E+000	-2.90753E-005	-5.99601E-002	2.97321E-001	3.57630E+000	9	...........
	46	0.626667	2.83964E-001	-9.85363E-005	0.00000E+000	-2.79808E-005	-5.99601E-002	2.84029E-001	3.57630E+000	9	...........
	47	0.64	2.70737E-001	-9.90114E-005	0.00000E+000	-2.68060E-005	-5.99601E-002	2.70797E-001	3.57630E+000	9	...........
	48	0.653333	2.57574E-001	-9.94667E-005	0.00000E+000	-2.56200E-005	-5.99601E-002	2.57625E-001	3.57630E+000	9	...........
	49	0.666667	2.44482E-001	-9.88895E-005	0.00000E+000	-2.41767E-005	-5.99601E-002	2.44528E-001	3.57630E+000	9	...........
	50	0.68	2.31459E-001	-9.84071E-005	0.00000E+000	-2.27772E-005	-5.99601E-002	2.31503E-001	3.57630E+000	9	...........
	51	0.693333	2.18508E-001	-9.95584E-005	0.00000E+000	-2.17543E-005	-5.99601E-002	2.18552E-001	3.57630E+000	9	...........
	52	0.706667	2.05638E-001	-9.87520E-005	0.00000E+000	-2.03071E-005	-5.99601E-002	2.05682E-001	3.57630E+000	9	...........
	53	0.72	1.92852E-001	-9.88416E-005	0.00000E+000	-1.90618E-005	-5.99601E-002	1.92889E-001	3.57630E+000	9	...........
	54	0.733333	1.80131E-001	-9.77559E-005	0.00000E+000	-1.76089E-005	-5.99601E-002	1.80169E-001	3.57630E+000	9	...........
	55	0.746667	1.67497E-001	-9.74757E-005	0.00000E+000	-1.63269E-005	-5.99601E-002	1.67530E-001	3.57630E+000	9	...........
	56	0.76	1.54940E-001	-9.88561E-005	0.00000E+000	-1.53168E-005	-5.99601E-002	1.54974E-001	3.57630E+000	9	...........
	57	0.773333	1.42453E-001	-9.87665E-005	0.00000E+000	-1.40696E-005	-5.99601E-002	1.42476E-001	3.57630E+000	9	...........
	58	0.786667	1.30050E-001	-9.91406E-005	0.00000E+000	-1.28932E-005	-5.99601E-002	1.30066E-001	3.57630E+000	9	...........
	59	0.8	1.17719E-001	-9.83967E-005	0.00000E+000	-1.15832E-005	-5.99601E-002	1.17743E-001	3.57630E+000	9	...........
	60	0.813333	1.05494E-001	-9.87780E-005	0.00000E+000	-1.04205E-005	-5.99601E-002	1.05519E-001	3.57630E+000	9	...........
	61	0.826667	9.33561E-002	-9.85300E-005	0.00000E+000	-9.19838E-006	-5.99601E-002	9.33731E-002	3.57630E+000	9	...........
	62	0.84	8.13286E-002	-9.92771E-005	0.00000E+000	-8.07407E-006	-5.99601E-002	8.13383E-002	3.57630E+000	9	...........
	63	0.853333	6.94281E-002	-9.92719E-005	0.00000E+000	-6.89226E-006	-5.99601E-002	6.94316E-002	3.57630E+000	9	...........
	64	0.866667	5.76439E-002	-9.92364E-005	0.00000E+000	-5.72038E-006	-5.99601E-002	5.76465E-002	3.57630E+000	9	...........
	65	0.88	4.60118E-002	-9.95125E-005	0.00000E+000	-4.57875E-006	-5.99601E-002	4.60159E-002	3.57630E+000	9	...........
	66	0.893333	3.45365E-002	-9.82717E-005	0.00000E+000	-3.39396E-006	-5.99601E-002	3.45366E-002	3.57630E+000	9	...........
	67	0.906667	2.32030E-002	-9.92885E-005	0.00000E+000	-2.30379E-006	-5.99601E-002	2.31964E-002	3.57630E+000	9	...........
	68	0.92	1.20330E-002	-9.97032E-005	0.00000E+000	-1.19972E-006	-5.99601E-002	1.20203E-002	3.57630E+000	9	...........
	69	0.93	2.39759E-003	-1.00472E-004	0.00000E+000	-2.40890E-007	-5.99601E-002	2.38369E-003	3.57630E+000	9	...........
STARTTIMEOFFSET	QUANT	1831.74	Start Time Offset (s)
