EXPLAIN
TAG	PWR800_DISCHARGE
TITLE	LABEL	PWR Cyclic Charge Discharge (Cell) - Discharge Step	Test &Identifier
DATE	LABEL	12-7-2017	Date
TIME	LABEL	16:48:53	Time
NOTES	NOTES	2	&Notes...
	supercap test cell
	6M KOH
PSTAT	PSTAT	IFC5000-01520	Potentiostat
CAPACITY	QUANT	1.00000E-003	Capacity (A-hr)
CELLTYPE	SELECTOR	1	&Cell Type
WORKINGCONNECTION	SELECTOR	0	&Working Lead
MAXDISCHARGETIME	VARIABLEANDUNITS	1.00000E+002	s	1.00000E+002	second(s)	Max &Discharge Time
DISCHARGEMODE	MULTIPARAM	0	1.00000E-004	&Discharge Mode	Constant Current	Amp(s)
SAMPLETIME	QUANT	1.00000E-002	Sa&mple Period (s)
DISCHARGESTOPAT1	MULTIPARAM	3	0.00000E+000	Discharge Stop At &1	Voltage < Limit	V
DISCHARGESTOPAT2	MULTIPARAM	0	0.00000E+000	Discharge Stop At &2	None	N/A
AESBHCSELECTOR	TOGGLE	F	Save Both Half Cells
IRCOMP	TOGGLE	F	IR &Measure
EOC	QUANT	0	Open Circuit (V)
SEQUENCER	TOGGLE	TRUE	Run as Sequence
PSTATMODEL	IQUANT	53	Pstat Model
PSTATSECTION	LABEL	IFC5000-01520	Pstat Section
PSTATSERIALNO	LABEL	01520	Pstat Serial Number
CTRLMODE	IQUANT	0	Control Mode
ELECTROMETER	IQUANT	1	RE=0 or CS=1
IESTAB	IQUANT	0	I/E Stability
CASPEED	IQUANT	4	Control Amp Speed
CONVENTION	IQUANT	1	Current Convention
ICHRANGE	IQUANT	2	Ich Range
ICHRANGEMODE	TOGGLE	T	Ich Auto Range
ICHOFFSETENABLE	TOGGLE	F	Ich Offset Enable
ICHOFFSET	QUANT	0	Ich Offset (V)
ICHFILTER	IQUANT	1	Ich Filter
VCHRANGE	IQUANT	2	Vch Range
VCHRANGEMODE	TOGGLE	T	Vch Auto Range
VCHOFFSETENABLE	TOGGLE	F	Vch Offset Enable
VCHOFFSET	QUANT	0	Vch Offset (V)
VCHFILTER	IQUANT	1	Vch Filter
IERANGELOWERLIMIT	IQUANT	9	I/E Range Lower Limit
IERANGEMODE	TOGGLE	F	I/E AutoRange
IERANGE	IQUANT	9	I/E Range
ACHSELECT	IQUANT	1	Ach Select
ACHRANGE	IQUANT	2	Ach Range
ACHOFFSETENABLE	TOGGLE	F	Ach Offset Enable
ACHOFFSET	QUANT	0	Ach Offset (V)
ACHFILTER	IQUANT	1	Ach Filter
CABLEID	IQUANT	14	Cable ID
DCCALDATE	LABEL	5-7-2017	DC Calibration Date
ACCALDATE	LABEL	12/3/2015	AC Calibration Date
FRAMEWORKVERSION	QUANT	7.01	Framework Version
INSTRUMENTVERSION	LABEL	4.00	Instrument Version
CURVE	TABLE	70
	Pt	T	Vf	Im	Vu	Pwr	Sig	Ach	Temp	IERange	Over
	#	s	V	A	V	W	V	V	deg C	#	bits
	0	0.013333	8.45329E-001	-9.87520E-005	0.00000E+000	-8.34779E-005	-5.99601E-002	8.45666E-001	3.57790E+000	9	...........
	1	0.026667	8.32126E-001	-9.83685E-005	0.00000E+000	-8.18551E-005	-5.99601E-002	8.32448E-001	3.57790E+000	9	...........
	2	0.04	8.19526E-001	-9.87603E-005	0.00000E+000	-8.09366E-005	-5.99601E-002	8.19855E-001	3.57790E+000	9	...........
	3	0.053333	8.07284E-001	-9.81748E-005	0.00000E+000	-7.92549E-005	-5.99601E-002	8.07578E-001	3.57790E+000	9	...........
	4	0.066667	7.95334E-001	-9.88447E-005	0.00000E+000	-7.86145E-005	-5.99601E-002	7.95607E-001	3.57790E+000	9	...........
	5	0.08	7.83534E-001	-9.91771E-005	0.00000E+000	-7.77085E-005	-5.99601E-002	7.83821E-001	3.57790E+000	9	...........
	6	0.093333	7.71908E-001	-9.92093E-005	0.00000E+000	-7.65805E-005	-5.99601E-002	7.72210E-001	3.57790E+000	9	...........
	7	0.106667	7.60426E-001	-9.95459E-005	0.00000E+000	-7.56973E-005	-5.99601E-002	7.60725E-001	3.57790E+000	9	...........
	8	0.12	7.49046E-001	-9.85988E-005	0.00000E+000	-7.38550E-005	-5.99601E-002	7.49330E-001	3.57790E+000	9	...........
	9	0.133333	7.37740E-001	-9.71766E-005	0.00000E+000	-7.16911E-005	-5.99601E-002	7.38041E-001	3.57790E+000	9	...........
	10	0.146667	7.26582E-001	-9.85696E-005	0.00000E+000	-7.16190E-005	-5.99601E-002	7.26826E-001	3.57790E+000	9	...........
	11	0.16	7.15416E-001	-9.92031E-005	0.00000E+000	-7.09715E-005	-5.99601E-002	7.15688E-001	3.57790E+000	9	...........
	12	0.173333	7.04372E-001	-9.81498E-005	0.00000E+000	-6.91339E-005	-5.99601E-002	7.04644E-001	3.57790E+000	9	...........
	13	0.186667	6.93443E-001	-9.91156E-005	0.00000E+000	-6.87310E-005	-5.99601E-002	6.93697E-001	3.57790E+000	9	...........
	14	0.2	6.82584E-001	-9.90103E-005	0.00000E+000	-6.75828E-005	-5.99601E-002	6.82809E-001	3.57790E+000	9	...........
	15	0.213333	6.71755E-001	-1.00061E-004	0.00000E+000	-6.72161E-005	-5.99601E-002	6.71987E-001	3.57790E+000	9	...........
	16	0.226667	6.60992E-001	-9.87780E-005	0.00000E+000	-6.52915E-005	-5.99601E-002	6.61217E-001	3.57790E+000	9	...........
	17	0.24	6.50234E-001	-9.90062E-005	0.00000E+000	-6.43772E-005	-5.99601E-002	6.50491E-001	3.57790E+000	9	...........
	18	0.253333	6.39465E-001	-9.91322E-005	0.00000E+000	-6.33916E-005	-5.99601E-002	6.39719E-001	3.57790E+000	9	...........
	19	0.266667	6.28621E-001	-9.86436E-005	0.00000E+000	-6.20095E-005	-5.99601E-002	6.28861E-001	3.57790E+000	9	...........
	20	0.28	6.17681E-001	-9.81310E-005	0.00000E+000	-6.06136E-005	-5.99601E-002	6.17889E-001	3.57790E+000	9	...........
	21	0.293333	6.06487E-001	-9.83352E-005	0.00000E+000	-5.96390E-005	-5.99601E-002	6.06731E-001	3.57790E+000	9	...........
	22	0.306667	5.95185E-001	-9.96178E-005	0.00000E+000	-5.92910E-005	-5.99601E-002	5.95415E-001	3.57790E+000	9	...........
	23	0.32	5.83613E-001	-9.93344E-005	0.00000E+000	-5.79729E-005	-5.99601E-002	5.83851E-001	3.57790E+000	9	...........
	24	0.333333	5.71879E-001	-9.68922E-005	0.00000E+000	-5.54106E-005	-5.99601E-002	5.72065E-001	3.57790E+000	9	...........
	25	0.346667	5.59885E-001	-9.86696E-005	0.00000E+000	-5.52436E-005	-5.99601E-002	5.60069E-001	3.57790E+000	9	...........
	26	0.36	5.47721E-001	-9.89374E-005	0.00000E+000	-5.41901E-005	-5.99601E-002	5.47896E-001	3.57790E+000	9	...........
	27	0.373333	5.35342E-001	-9.93260E-005	0.00000E+000	-5.31734E-005	-5.99601E-002	5.35541E-001	3.57790E+000	9	...........
	28	0.386667	5.22832E-001	-9.87103E-005	0.00000E+000	-5.16089E-005	-5.99601E-002	5.23015E-001	3.57790E+000	9	...........
	29	0.4	5.10145E-001	-9.81206E-005	0.00000E+000	-5.00557E-005	-5.99601E-002	5.10329E-001	3.57790E+000	9	...........
	30	0.413333	4.97313E-001	-9.91010E-005	0.00000E+000	-4.92842E-005	-5.99601E-002	4.97515E-001	3.57790E+000	9	...........
	31	0.426667	4.84542E-001	-9.87197E-005	0.00000E+000	-4.78338E-005	-5.99601E-002	4.84673E-001	3.57790E+000	9	...........
	32	0.44	4.71645E-001	-9.87082E-005	0.00000E+000	-4.65552E-005	-5.99601E-002	4.71738E-001	3.57790E+000	9	...........
	33	0.453333	4.58507E-001	-9.77695E-005	0.00000E+000	-4.48280E-005	-5.99601E-002	4.58602E-001	3.57790E+000	9	...........
	34	0.466667	4.45277E-001	-1.00264E-004	0.00000E+000	-4.46451E-005	-5.99601E-002	4.45376E-001	3.57790E+000	9	...........
	35	0.48	4.31990E-001	-9.96824E-005	0.00000E+000	-4.30618E-005	-5.99601E-002	4.32084E-001	3.57790E+000	9	...........
	36	0.493333	4.18651E-001	-9.82289E-005	0.00000E+000	-4.11237E-005	-5.99601E-002	4.18745E-001	3.57790E+000	9	...........
	37	0.506667	4.05281E-001	-9.95709E-005	0.00000E+000	-4.03542E-005	-5.99601E-002	4.05366E-001	3.57790E+000	9	...........
	38	0.52	3.91875E-001	-9.85800E-005	0.00000E+000	-3.86311E-005	-5.99601E-002	3.91954E-001	3.57790E+000	9	...........
	39	0.533333	3.78456E-001	-9.83685E-005	0.00000E+000	-3.72282E-005	-5.99601E-002	3.78530E-001	3.57790E+000	9	...........
	40	0.546667	3.65031E-001	-9.88770E-005	0.00000E+000	-3.60932E-005	-5.99601E-002	3.65107E-001	3.57650E+000	9	...........
	41	0.56	3.51616E-001	-9.93427E-005	0.00000E+000	-3.49305E-005	-5.99601E-002	3.51695E-001	3.57650E+000	9	...........
	42	0.573333	3.38216E-001	-9.94479E-005	0.00000E+000	-3.36349E-005	-5.99601E-002	3.38287E-001	3.57650E+000	9	...........
	43	0.586667	3.24851E-001	-9.87374E-005	0.00000E+000	-3.20749E-005	-5.99601E-002	3.24915E-001	3.57650E+000	9	...........
	44	0.6	3.11519E-001	-9.95480E-005	0.00000E+000	-3.10111E-005	-5.99601E-002	3.11585E-001	3.57650E+000	9	...........
	45	0.613333	2.98242E-001	-9.82977E-005	0.00000E+000	-2.93165E-005	-5.99601E-002	2.98304E-001	3.57650E+000	9	...........
	46	0.626667	2.85012E-001	-9.88364E-005	0.00000E+000	-2.81695E-005	-5.99601E-002	2.85070E-001	3.57650E+000	9	...........
	47	0.64	2.71845E-001	-9.89207E-005	0.00000E+000	-2.68911E-005	-5.99601E-002	2.71896E-001	3.57650E+000	9	...........
	48	0.653333	2.58728E-001	-9.82821E-005	0.00000E+000	-2.54283E-005	-5.99601E-002	2.58784E-001	3.57650E+000	9	...........
	49	0.666667	2.45698E-001	-9.86155E-005	0.00000E+000	-2.42297E-005	-5.99601E-002	2.45749E-001	3.57650E+000	9	...........
	50	0.68	2.32732E-001	-9.83435E-005	0.00000E+000	-2.28877E-005	-5.99601E-002	2.32779E-001	3.57650E+000	9	...........
	51	0.693333	2.19838E-001	-9.87978E-005	0.00000E+000	-2.17195E-005	-5.99601E-002	2.19885E-001	3.57650E+000	9	...........
	52	0.706667	2.07020E-001	-9.84415E-005	0.00000E+000	-2.03794E-005	-5.99601E-002	2.07059E-001	3.57650E+000	9	...........
	53	0.72	1.94274E-001	-9.88843E-005	0.00000E+000	-1.92106E-005	-5.99601E-002	1.94318E-001	3.57650E+000	9	...........
	54	0.733333	1.81600E-001	-9.79560E-005	0.00000E+000	-1.77888E-005	-5.99601E-002	1.81644E-001	3.57650E+000	9	...........
	55	0.746667	1.69013E-001	-9.89770E-005	0.00000E+000	-1.67284E-005	-5.99601E-002	1.69049E-001	3.57650E+000	9	...........
	56	0.76	1.56500E-001	-9.85967E-005	0.00000E+000	-1.54304E-005	-5.99601E-002	1.56531E-001	3.57650E+000	9	...........
	57	0.773333	1.44060E-001	-9.79695E-005	0.00000E+000	-1.41135E-005	-5.99601E-002	1.44090E-001	3.57650E+000	9	...........
	58	0.786667	1.31700E-001	-9.86530E-005	0.00000E+000	-1.29926E-005	-5.99601E-002	1.31725E-001	3.57650E+000	9	...........
	59	0.8	1.19419E-001	-9.81112E-005	0.00000E+000	-1.17163E-005	-5.99601E-002	1.19443E-001	3.57650E+000	9	...........
	60	0.813333	1.07224E-001	-9.93750E-005	0.00000E+000	-1.06554E-005	-5.99601E-002	1.07248E-001	3.57650E+000	9	...........
	61	0.826667	9.51219E-002	-9.86592E-005	0.00000E+000	-9.38466E-006	-5.99601E-002	9.51431E-002	3.57650E+000	9	...........
	62	0.84	8.31125E-002	-1.00133E-004	0.00000E+000	-8.32234E-006	-5.99601E-002	8.31268E-002	3.57650E+000	9	...........
	63	0.853333	7.12270E-002	-9.97209E-005	0.00000E+000	-7.10282E-006	-5.99601E-002	7.12344E-002	3.57650E+000	9	...........
	64	0.866667	5.94585E-002	-9.87540E-005	0.00000E+000	-5.87177E-006	-5.99601E-002	5.94640E-002	3.57650E+000	9	...........
	65	0.88	4.78389E-002	-9.84759E-005	0.00000E+000	-4.71098E-006	-5.99601E-002	4.78357E-002	3.57650E+000	9	...........
	66	0.893333	3.63564E-002	-9.85029E-005	0.00000E+000	-3.58121E-006	-5.99601E-002	3.63608E-002	3.57650E+000	9	...........
	67	0.906667	2.50207E-002	-9.87634E-005	0.00000E+000	-2.47113E-006	-5.99601E-002	2.50138E-002	3.57650E+000	9	...........
	68	0.92	1.38453E-002	-9.88707E-005	0.00000E+000	-1.36890E-006	-5.99601E-002	1.38341E-002	3.57650E+000	9	...........
	69	0.931667	3.53336E-003	-9.88972E-005	0.00000E+000	-3.49439E-007	-5.99601E-002	3.51068E-003	3.57650E+000	9	...........
STARTTIMEOFFSET	QUANT	1655.487	Start Time Offset (s)
