EXPLAIN
TAG	PWR800_DISCHARGE
TITLE	LABEL	PWR Cyclic Charge Discharge (Cell) - Discharge Step	Test &Identifier
DATE	LABEL	12-7-2017	Date
TIME	LABEL	16:30:30	Time
NOTES	NOTES	2	&Notes...
	supercap test cell
	6M KOH
PSTAT	PSTAT	IFC5000-01520	Potentiostat
CAPACITY	QUANT	1.00000E-003	Capacity (A-hr)
CELLTYPE	SELECTOR	1	&Cell Type
WORKINGCONNECTION	SELECTOR	0	&Working Lead
MAXDISCHARGETIME	VARIABLEANDUNITS	1.00000E+002	s	1.00000E+002	second(s)	Max &Discharge Time
DISCHARGEMODE	MULTIPARAM	0	1.00000E-004	&Discharge Mode	Constant Current	Amp(s)
SAMPLETIME	QUANT	1.00000E-002	Sa&mple Period (s)
DISCHARGESTOPAT1	MULTIPARAM	3	0.00000E+000	Discharge Stop At &1	Voltage < Limit	V
DISCHARGESTOPAT2	MULTIPARAM	0	0.00000E+000	Discharge Stop At &2	None	N/A
AESBHCSELECTOR	TOGGLE	F	Save Both Half Cells
IRCOMP	TOGGLE	F	IR &Measure
EOC	QUANT	0	Open Circuit (V)
SEQUENCER	TOGGLE	TRUE	Run as Sequence
PSTATMODEL	IQUANT	53	Pstat Model
PSTATSECTION	LABEL	IFC5000-01520	Pstat Section
PSTATSERIALNO	LABEL	01520	Pstat Serial Number
CTRLMODE	IQUANT	0	Control Mode
ELECTROMETER	IQUANT	1	RE=0 or CS=1
IESTAB	IQUANT	0	I/E Stability
CASPEED	IQUANT	4	Control Amp Speed
CONVENTION	IQUANT	1	Current Convention
ICHRANGE	IQUANT	2	Ich Range
ICHRANGEMODE	TOGGLE	T	Ich Auto Range
ICHOFFSETENABLE	TOGGLE	F	Ich Offset Enable
ICHOFFSET	QUANT	0	Ich Offset (V)
ICHFILTER	IQUANT	1	Ich Filter
VCHRANGE	IQUANT	2	Vch Range
VCHRANGEMODE	TOGGLE	T	Vch Auto Range
VCHOFFSETENABLE	TOGGLE	F	Vch Offset Enable
VCHOFFSET	QUANT	0	Vch Offset (V)
VCHFILTER	IQUANT	1	Vch Filter
IERANGELOWERLIMIT	IQUANT	9	I/E Range Lower Limit
IERANGEMODE	TOGGLE	F	I/E AutoRange
IERANGE	IQUANT	9	I/E Range
ACHSELECT	IQUANT	1	Ach Select
ACHRANGE	IQUANT	2	Ach Range
ACHOFFSETENABLE	TOGGLE	F	Ach Offset Enable
ACHOFFSET	QUANT	0	Ach Offset (V)
ACHFILTER	IQUANT	1	Ach Filter
CABLEID	IQUANT	14	Cable ID
DCCALDATE	LABEL	5-7-2017	DC Calibration Date
ACCALDATE	LABEL	12/3/2015	AC Calibration Date
FRAMEWORKVERSION	QUANT	7.01	Framework Version
INSTRUMENTVERSION	LABEL	4.00	Instrument Version
CURVE	TABLE	71
	Pt	T	Vf	Im	Vu	Pwr	Sig	Ach	Temp	IERange	Over
	#	s	V	A	V	W	V	V	deg C	#	bits
	0	0.013333	8.43748E-001	-9.84696E-005	0.00000E+000	-8.30836E-005	-5.99601E-002	8.44081E-001	3.57780E+000	9	...........
	1	0.026667	8.30743E-001	-9.85821E-005	0.00000E+000	-8.18965E-005	-5.99601E-002	8.31063E-001	3.57780E+000	9	...........
	2	0.04	8.18338E-001	-9.76924E-005	0.00000E+000	-7.99453E-005	-5.99601E-002	8.18635E-001	3.57780E+000	9	...........
	3	0.053333	8.06294E-001	-9.83060E-005	0.00000E+000	-7.92636E-005	-5.99601E-002	8.06592E-001	3.57780E+000	9	...........
	4	0.066667	7.94506E-001	-9.92448E-005	0.00000E+000	-7.88506E-005	-5.99601E-002	7.94807E-001	3.57780E+000	9	...........
	5	0.08	7.82952E-001	-9.79153E-005	0.00000E+000	-7.66630E-005	-5.99601E-002	7.83227E-001	3.57780E+000	9	...........
	6	0.093333	7.71545E-001	-9.83873E-005	0.00000E+000	-7.59103E-005	-5.99601E-002	7.71832E-001	3.57780E+000	9	...........
	7	0.106667	7.60276E-001	-9.84060E-005	0.00000E+000	-7.48158E-005	-5.99601E-002	7.60529E-001	3.57780E+000	9	...........
	8	0.12	7.49117E-001	-9.89218E-005	0.00000E+000	-7.41040E-005	-5.99601E-002	7.49393E-001	3.57780E+000	9	...........
	9	0.133333	7.38055E-001	-9.79216E-005	0.00000E+000	-7.22716E-005	-5.99601E-002	7.38331E-001	3.57780E+000	9	...........
	10	0.146667	7.27130E-001	-9.84050E-005	0.00000E+000	-7.15533E-005	-5.99601E-002	7.27374E-001	3.57780E+000	9	...........
	11	0.16	7.16232E-001	-9.88218E-005	0.00000E+000	-7.07794E-005	-5.99601E-002	7.16506E-001	3.57780E+000	9	...........
	12	0.173333	7.05438E-001	-9.86196E-005	0.00000E+000	-6.95701E-005	-5.99601E-002	7.05716E-001	3.57780E+000	9	...........
	13	0.186667	6.94724E-001	-9.79799E-005	0.00000E+000	-6.80691E-005	-5.99601E-002	6.94997E-001	3.57780E+000	9	...........
	14	0.2	6.84034E-001	-9.76976E-005	0.00000E+000	-6.68285E-005	-5.99601E-002	6.84313E-001	3.57780E+000	9	...........
	15	0.213333	6.73402E-001	-9.86311E-005	0.00000E+000	-6.64183E-005	-5.99601E-002	6.73680E-001	3.57780E+000	9	...........
	16	0.226667	6.62715E-001	-9.99439E-005	0.00000E+000	-6.62343E-005	-5.99601E-002	6.63000E-001	3.57780E+000	9	...........
	17	0.24	6.51984E-001	-9.88374E-005	0.00000E+000	-6.44404E-005	-5.99601E-002	6.52272E-001	3.57780E+000	9	...........
	18	0.253333	6.41146E-001	-9.96605E-005	0.00000E+000	-6.38969E-005	-5.99601E-002	6.41421E-001	3.57780E+000	9	...........
	19	0.266667	6.30151E-001	-9.88197E-005	0.00000E+000	-6.22713E-005	-5.99601E-002	6.30431E-001	3.57780E+000	9	...........
	20	0.28	6.19030E-001	-9.83290E-005	0.00000E+000	-6.08686E-005	-5.99601E-002	6.19278E-001	3.57780E+000	9	...........
	21	0.293333	6.07595E-001	-9.84384E-005	0.00000E+000	-5.98106E-005	-5.99601E-002	6.07911E-001	3.57780E+000	9	...........
	22	0.306667	5.96075E-001	-9.83800E-005	0.00000E+000	-5.86419E-005	-5.99601E-002	5.96376E-001	3.57780E+000	9	...........
	23	0.32	5.84332E-001	-9.91395E-005	0.00000E+000	-5.79304E-005	-5.99601E-002	5.84641E-001	3.57780E+000	9	...........
	24	0.333333	5.72435E-001	-9.77590E-005	0.00000E+000	-5.59607E-005	-5.99601E-002	5.72727E-001	3.57780E+000	9	...........
	25	0.346667	5.60357E-001	-1.00043E-004	0.00000E+000	-5.60597E-005	-5.99601E-002	5.60625E-001	3.57780E+000	9	...........
	26	0.36	5.48140E-001	-9.79059E-005	0.00000E+000	-5.36662E-005	-5.99601E-002	5.48399E-001	3.57780E+000	9	...........
	27	0.373333	5.35758E-001	-9.84186E-005	0.00000E+000	-5.27286E-005	-5.99601E-002	5.36025E-001	3.57780E+000	9	...........
	28	0.386667	5.23270E-001	-9.83592E-005	0.00000E+000	-5.14684E-005	-5.99601E-002	5.23494E-001	3.57780E+000	9	...........
	29	0.4	5.10638E-001	-1.01001E-004	0.00000E+000	-5.15751E-005	-5.99601E-002	5.10899E-001	3.57780E+000	9	...........
	30	0.413333	4.97939E-001	-9.95876E-005	0.00000E+000	-4.95885E-005	-5.99601E-002	4.98178E-001	3.57780E+000	9	...........
	31	0.426667	4.85243E-001	-9.98418E-005	0.00000E+000	-4.84475E-005	-5.99601E-002	4.85436E-001	3.57780E+000	9	...........
	32	0.44	4.72553E-001	-9.95417E-005	0.00000E+000	-4.70387E-005	-5.99601E-002	4.72662E-001	3.57780E+000	9	...........
	33	0.453333	4.59601E-001	-9.73142E-005	0.00000E+000	-4.47257E-005	-5.99601E-002	4.59701E-001	3.57780E+000	9	...........
	34	0.466667	4.46582E-001	-9.83977E-005	0.00000E+000	-4.39427E-005	-5.99601E-002	4.46685E-001	3.57780E+000	9	...........
	35	0.48	4.33526E-001	-9.94771E-005	0.00000E+000	-4.31259E-005	-5.99601E-002	4.33624E-001	3.57780E+000	9	...........
	36	0.493333	4.20446E-001	-9.73579E-005	0.00000E+000	-4.09337E-005	-5.99601E-002	4.20542E-001	3.57780E+000	9	...........
	37	0.506667	4.07346E-001	-9.86144E-005	0.00000E+000	-4.01702E-005	-5.99601E-002	4.07437E-001	3.57780E+000	9	...........
	38	0.52	3.94241E-001	-9.88624E-005	0.00000E+000	-3.89756E-005	-5.99601E-002	3.94324E-001	3.57780E+000	9	...........
	39	0.533333	3.81129E-001	-9.96594E-005	0.00000E+000	-3.79831E-005	-5.99601E-002	3.81210E-001	3.57780E+000	9	...........
	40	0.546667	3.68033E-001	-9.90874E-005	0.00000E+000	-3.64675E-005	-5.99601E-002	3.68109E-001	3.57780E+000	9	...........
	41	0.56	3.54956E-001	-9.77288E-005	0.00000E+000	-3.46895E-005	-5.99601E-002	3.55033E-001	3.57745E+000	9	...........
	42	0.573333	3.41907E-001	-9.85821E-005	0.00000E+000	-3.37059E-005	-5.99601E-002	3.41985E-001	3.57740E+000	9	...........
	43	0.586667	3.28889E-001	-9.83394E-005	0.00000E+000	-3.23428E-005	-5.99601E-002	3.28963E-001	3.57740E+000	9	...........
	44	0.6	3.15915E-001	-9.90301E-005	0.00000E+000	-3.12851E-005	-5.99601E-002	3.15990E-001	3.57740E+000	9	...........
	45	0.613333	3.02993E-001	-9.86926E-005	0.00000E+000	-2.99031E-005	-5.99601E-002	3.03057E-001	3.57740E+000	9	...........
	46	0.626667	2.90112E-001	-9.72694E-005	0.00000E+000	-2.82190E-005	-5.99601E-002	2.90178E-001	3.57740E+000	9	...........
	47	0.64	2.77282E-001	-9.90103E-005	0.00000E+000	-2.74538E-005	-5.99601E-002	2.77344E-001	3.57740E+000	9	...........
	48	0.653333	2.64504E-001	-9.93667E-005	0.00000E+000	-2.62829E-005	-5.99601E-002	2.64557E-001	3.57740E+000	9	...........
	49	0.666667	2.51786E-001	-9.76361E-005	0.00000E+000	-2.45834E-005	-5.99601E-002	2.51837E-001	3.57740E+000	9	...........
	50	0.68	2.39119E-001	-9.92510E-005	0.00000E+000	-2.37329E-005	-5.99601E-002	2.39165E-001	3.57740E+000	9	...........
	51	0.693333	2.26509E-001	-9.99647E-005	0.00000E+000	-2.26429E-005	-5.99601E-002	2.26549E-001	3.57740E+000	9	...........
	52	0.706667	2.13957E-001	-9.85123E-005	0.00000E+000	-2.10774E-005	-5.99601E-002	2.13993E-001	3.57740E+000	9	...........
	53	0.72	2.01447E-001	-9.74934E-005	0.00000E+000	-1.96398E-005	-5.99601E-002	2.01490E-001	3.57740E+000	9	...........
	54	0.733333	1.88993E-001	-9.87322E-005	0.00000E+000	-1.86597E-005	-5.99601E-002	1.89025E-001	3.57740E+000	9	...........
	55	0.746667	1.76584E-001	-9.78632E-005	0.00000E+000	-1.72811E-005	-5.99601E-002	1.76627E-001	3.57740E+000	9	...........
	56	0.76	1.64229E-001	-9.85988E-005	0.00000E+000	-1.61927E-005	-5.99601E-002	1.64262E-001	3.57740E+000	9	...........
	57	0.773333	1.51921E-001	-9.92958E-005	0.00000E+000	-1.50851E-005	-5.99601E-002	1.51949E-001	3.57740E+000	9	...........
	58	0.786667	1.39667E-001	-9.84238E-005	0.00000E+000	-1.37466E-005	-5.99601E-002	1.39695E-001	3.57740E+000	9	...........
	59	0.8	1.27460E-001	-9.91250E-005	0.00000E+000	-1.26345E-005	-5.99601E-002	1.27482E-001	3.57740E+000	9	...........
	60	0.813333	1.15323E-001	-9.71225E-005	0.00000E+000	-1.12005E-005	-5.99601E-002	1.15348E-001	3.57740E+000	9	...........
	61	0.826667	1.03266E-001	-9.82664E-005	0.00000E+000	-1.01476E-005	-5.99601E-002	1.03284E-001	3.57740E+000	9	...........
	62	0.84	9.12897E-002	-9.85363E-005	0.00000E+000	-8.99535E-006	-5.99601E-002	9.13132E-002	3.57740E+000	9	...........
	63	0.853333	7.94023E-002	-9.80862E-005	0.00000E+000	-7.78827E-006	-5.99601E-002	7.94184E-002	3.57740E+000	9	...........
	64	0.866667	6.76223E-002	-9.89583E-005	0.00000E+000	-6.69178E-006	-5.99601E-002	6.76336E-002	3.57740E+000	9	...........
	65	0.88	5.59464E-002	-9.86790E-005	0.00000E+000	-5.52074E-006	-5.99601E-002	5.59566E-002	3.57740E+000	9	...........
	66	0.893333	4.44223E-002	-9.94302E-005	0.00000E+000	-4.41692E-006	-5.99601E-002	4.44258E-002	3.57740E+000	9	...........
	67	0.906667	3.30121E-002	-9.92260E-005	0.00000E+000	-3.27566E-006	-5.99601E-002	3.30114E-002	3.57740E+000	9	...........
	68	0.92	2.17317E-002	-9.90416E-005	0.00000E+000	-2.15234E-006	-5.99601E-002	2.17272E-002	3.57740E+000	9	...........
	69	0.933333	1.06033E-002	-9.95386E-005	0.00000E+000	-1.05544E-006	-5.99601E-002	1.05872E-002	3.57740E+000	9	...........
	70	0.941667	1.67279E-003	-9.90070E-005	0.00000E+000	-1.65618E-007	-5.99601E-002	1.65100E-003	3.57740E+000	9	...........
STARTTIMEOFFSET	QUANT	874.6537	Start Time Offset (s)
