EXPLAIN
TAG	PWR800_DISCHARGE
TITLE	LABEL	PWR Cyclic Charge Discharge (Cell) - Discharge Step	Test &Identifier
DATE	LABEL	12-7-2017	Date
TIME	LABEL	16:14:07	Time
NOTES	NOTES	2	&Notes...
	supercap test cell
	6M KOH
PSTAT	PSTAT	IFC5000-01520	Potentiostat
CAPACITY	QUANT	1.00000E-003	Capacity (A-hr)
CELLTYPE	SELECTOR	1	&Cell Type
WORKINGCONNECTION	SELECTOR	0	&Working Lead
MAXDISCHARGETIME	VARIABLEANDUNITS	1.00000E+002	s	1.00000E+002	second(s)	Max &Discharge Time
DISCHARGEMODE	MULTIPARAM	0	1.00000E-004	&Discharge Mode	Constant Current	Amp(s)
SAMPLETIME	QUANT	1.00000E-002	Sa&mple Period (s)
DISCHARGESTOPAT1	MULTIPARAM	3	0.00000E+000	Discharge Stop At &1	Voltage < Limit	V
DISCHARGESTOPAT2	MULTIPARAM	0	0.00000E+000	Discharge Stop At &2	None	N/A
AESBHCSELECTOR	TOGGLE	F	Save Both Half Cells
IRCOMP	TOGGLE	F	IR &Measure
EOC	QUANT	0	Open Circuit (V)
SEQUENCER	TOGGLE	TRUE	Run as Sequence
PSTATMODEL	IQUANT	53	Pstat Model
PSTATSECTION	LABEL	IFC5000-01520	Pstat Section
PSTATSERIALNO	LABEL	01520	Pstat Serial Number
CTRLMODE	IQUANT	0	Control Mode
ELECTROMETER	IQUANT	1	RE=0 or CS=1
IESTAB	IQUANT	0	I/E Stability
CASPEED	IQUANT	4	Control Amp Speed
CONVENTION	IQUANT	1	Current Convention
ICHRANGE	IQUANT	2	Ich Range
ICHRANGEMODE	TOGGLE	T	Ich Auto Range
ICHOFFSETENABLE	TOGGLE	F	Ich Offset Enable
ICHOFFSET	QUANT	0	Ich Offset (V)
ICHFILTER	IQUANT	1	Ich Filter
VCHRANGE	IQUANT	2	Vch Range
VCHRANGEMODE	TOGGLE	T	Vch Auto Range
VCHOFFSETENABLE	TOGGLE	F	Vch Offset Enable
VCHOFFSET	QUANT	0	Vch Offset (V)
VCHFILTER	IQUANT	1	Vch Filter
IERANGELOWERLIMIT	IQUANT	9	I/E Range Lower Limit
IERANGEMODE	TOGGLE	F	I/E AutoRange
IERANGE	IQUANT	9	I/E Range
ACHSELECT	IQUANT	1	Ach Select
ACHRANGE	IQUANT	2	Ach Range
ACHOFFSETENABLE	TOGGLE	F	Ach Offset Enable
ACHOFFSET	QUANT	0	Ach Offset (V)
ACHFILTER	IQUANT	1	Ach Filter
CABLEID	IQUANT	14	Cable ID
DCCALDATE	LABEL	5-7-2017	DC Calibration Date
ACCALDATE	LABEL	12/3/2015	AC Calibration Date
FRAMEWORKVERSION	QUANT	7.01	Framework Version
INSTRUMENTVERSION	LABEL	4.00	Instrument Version
CURVE	TABLE	72
	Pt	T	Vf	Im	Vu	Pwr	Sig	Ach	Temp	IERange	Over
	#	s	V	A	V	W	V	V	deg C	#	bits
	0	0.013333	8.37638E-001	-9.96178E-005	0.00000E+000	-8.34437E-005	-5.99601E-002	8.37950E-001	3.57870E+000	9	...........
	1	0.026667	8.24641E-001	-9.92771E-005	0.00000E+000	-8.18680E-005	-5.99601E-002	8.24915E-001	3.57870E+000	9	...........
	2	0.04	8.12179E-001	-9.94334E-005	0.00000E+000	-8.07577E-005	-5.99601E-002	8.12445E-001	3.57870E+000	9	...........
	3	0.053333	8.00121E-001	-9.85175E-005	0.00000E+000	-7.88259E-005	-5.99601E-002	8.00413E-001	3.57870E+000	9	...........
	4	0.066667	7.88327E-001	-9.83425E-005	0.00000E+000	-7.75260E-005	-5.99601E-002	7.88599E-001	3.57870E+000	9	...........
	5	0.08	7.76710E-001	-9.89770E-005	0.00000E+000	-7.68764E-005	-5.99601E-002	7.76995E-001	3.57870E+000	9	...........
	6	0.093333	7.65227E-001	-9.89937E-005	0.00000E+000	-7.57526E-005	-5.99601E-002	7.65525E-001	3.57870E+000	9	...........
	7	0.106667	7.53855E-001	-9.79570E-005	0.00000E+000	-7.38454E-005	-5.99601E-002	7.54147E-001	3.57870E+000	9	...........
	8	0.12	7.42541E-001	-9.91020E-005	0.00000E+000	-7.35873E-005	-5.99601E-002	7.42779E-001	3.57870E+000	9	...........
	9	0.133333	7.31208E-001	-9.86394E-005	0.00000E+000	-7.21259E-005	-5.99601E-002	7.31454E-001	3.57870E+000	9	...........
	10	0.146667	7.19858E-001	-9.92708E-005	0.00000E+000	-7.14608E-005	-5.99601E-002	7.20085E-001	3.57870E+000	9	...........
	11	0.16	7.08407E-001	-9.82414E-005	0.00000E+000	-6.95949E-005	-5.99601E-002	7.08667E-001	3.57870E+000	9	...........
	12	0.173333	6.96899E-001	-9.87395E-005	0.00000E+000	-6.88114E-005	-5.99601E-002	6.97159E-001	3.57870E+000	9	...........
	13	0.186667	6.85301E-001	-9.86373E-005	0.00000E+000	-6.75963E-005	-5.99601E-002	6.85577E-001	3.57870E+000	9	...........
	14	0.2	6.73610E-001	-9.91187E-005	0.00000E+000	-6.67674E-005	-5.99601E-002	6.73860E-001	3.57870E+000	9	...........
	15	0.213333	6.61809E-001	-9.83717E-005	0.00000E+000	-6.51032E-005	-5.99601E-002	6.62047E-001	3.57870E+000	9	...........
	16	0.226667	6.49972E-001	-9.83112E-005	0.00000E+000	-6.38995E-005	-5.99601E-002	6.50202E-001	3.57870E+000	9	...........
	17	0.24	6.38037E-001	-9.86738E-005	0.00000E+000	-6.29576E-005	-5.99601E-002	6.38282E-001	3.57870E+000	9	...........
	18	0.253333	6.26082E-001	-9.89093E-005	0.00000E+000	-6.19253E-005	-5.99601E-002	6.26316E-001	3.57870E+000	9	...........
	19	0.266667	6.14017E-001	-9.90833E-005	0.00000E+000	-6.08388E-005	-5.99601E-002	6.14306E-001	3.57870E+000	9	...........
	20	0.28	6.01960E-001	-9.89697E-005	0.00000E+000	-5.95758E-005	-5.99601E-002	6.02247E-001	3.57870E+000	9	...........
	21	0.293333	5.89882E-001	-9.88020E-005	0.00000E+000	-5.82815E-005	-5.99601E-002	5.90186E-001	3.57760E+000	9	...........
	22	0.306667	5.77787E-001	-9.93708E-005	0.00000E+000	-5.74152E-005	-5.99601E-002	5.78045E-001	3.57730E+000	9	...........
	23	0.32	5.65693E-001	-9.88353E-005	0.00000E+000	-5.59104E-005	-5.99601E-002	5.65927E-001	3.57730E+000	9	...........
	24	0.333333	5.53550E-001	-9.95032E-005	0.00000E+000	-5.50799E-005	-5.99601E-002	5.53780E-001	3.57730E+000	9	...........
	25	0.346667	5.41450E-001	-9.92364E-005	0.00000E+000	-5.37316E-005	-5.99601E-002	5.41671E-001	3.57730E+000	9	...........
	26	0.36	5.29338E-001	-9.87645E-005	0.00000E+000	-5.22798E-005	-5.99601E-002	5.29560E-001	3.57730E+000	9	...........
	27	0.373333	5.17258E-001	-9.96407E-005	0.00000E+000	-5.15399E-005	-5.99601E-002	5.17480E-001	3.57730E+000	9	...........
	28	0.386667	5.05127E-001	-9.93448E-005	0.00000E+000	-5.01817E-005	-5.99601E-002	5.05385E-001	3.57730E+000	9	...........
	29	0.4	4.93101E-001	-9.91375E-005	0.00000E+000	-4.88848E-005	-5.99601E-002	4.93329E-001	3.57730E+000	9	...........
	30	0.413333	4.81305E-001	-9.90051E-005	0.00000E+000	-4.76516E-005	-5.99601E-002	4.81451E-001	3.57730E+000	9	...........
	31	0.426667	4.69374E-001	-9.91250E-005	0.00000E+000	-4.65267E-005	-5.99601E-002	4.69479E-001	3.57730E+000	9	...........
	32	0.44	4.57401E-001	-9.83665E-005	0.00000E+000	-4.49929E-005	-5.99601E-002	4.57499E-001	3.57730E+000	9	...........
	33	0.453333	4.45450E-001	-9.88832E-005	0.00000E+000	-4.40476E-005	-5.99601E-002	4.45549E-001	3.57730E+000	9	...........
	34	0.466667	4.33523E-001	-9.91906E-005	0.00000E+000	-4.30014E-005	-5.99601E-002	4.33615E-001	3.57730E+000	9	...........
	35	0.48	4.21622E-001	-9.82602E-005	0.00000E+000	-4.14286E-005	-5.99601E-002	4.21714E-001	3.57730E+000	9	...........
	36	0.493333	4.09753E-001	-9.80539E-005	0.00000E+000	-4.01779E-005	-5.99601E-002	4.09838E-001	3.57730E+000	9	...........
	37	0.506667	3.97903E-001	-9.84456E-005	0.00000E+000	-3.91718E-005	-5.99601E-002	3.97987E-001	3.57730E+000	9	...........
	38	0.52	3.86066E-001	-9.82789E-005	0.00000E+000	-3.79421E-005	-5.99601E-002	3.86147E-001	3.57730E+000	9	...........
	39	0.533333	3.74253E-001	-9.88645E-005	0.00000E+000	-3.70003E-005	-5.99601E-002	3.74329E-001	3.57730E+000	9	...........
	40	0.546667	3.62450E-001	-9.84540E-005	0.00000E+000	-3.56846E-005	-5.99601E-002	3.62516E-001	3.57730E+000	9	...........
	41	0.56	3.50647E-001	-9.83498E-005	0.00000E+000	-3.44861E-005	-5.99601E-002	3.50716E-001	3.57730E+000	9	...........
	42	0.573333	3.38856E-001	-9.92323E-005	0.00000E+000	-3.36254E-005	-5.99601E-002	3.38917E-001	3.57730E+000	9	...........
	43	0.586667	3.27051E-001	-9.85780E-005	0.00000E+000	-3.22401E-005	-5.99601E-002	3.27118E-001	3.57730E+000	9	...........
	44	0.6	3.15249E-001	-9.78226E-005	0.00000E+000	-3.08385E-005	-5.99601E-002	3.15311E-001	3.57730E+000	9	...........
	45	0.613333	3.03428E-001	-9.89197E-005	0.00000E+000	-3.00150E-005	-5.99601E-002	3.03488E-001	3.57730E+000	9	...........
	46	0.626667	2.91596E-001	-9.88937E-005	0.00000E+000	-2.88370E-005	-5.99601E-002	2.91660E-001	3.57730E+000	9	...........
	47	0.64	2.79751E-001	-9.88145E-005	0.00000E+000	-2.76435E-005	-5.99601E-002	2.79816E-001	3.57730E+000	9	...........
	48	0.653333	2.67888E-001	-9.90885E-005	0.00000E+000	-2.65447E-005	-5.99601E-002	2.67947E-001	3.57730E+000	9	...........
	49	0.666667	2.56012E-001	-9.77778E-005	0.00000E+000	-2.50323E-005	-5.99601E-002	2.56068E-001	3.57730E+000	9	...........
	50	0.68	2.44131E-001	-9.92073E-005	0.00000E+000	-2.42195E-005	-5.99601E-002	2.44181E-001	3.57730E+000	9	...........
	51	0.693333	2.32238E-001	-9.84488E-005	0.00000E+000	-2.28635E-005	-5.99601E-002	2.32284E-001	3.57730E+000	9	...........
	52	0.706667	2.20337E-001	-9.95480E-005	0.00000E+000	-2.19341E-005	-5.99601E-002	2.20381E-001	3.57730E+000	9	...........
	53	0.72	2.08436E-001	-9.86624E-005	0.00000E+000	-2.05648E-005	-5.99601E-002	2.08471E-001	3.57730E+000	9	...........
	54	0.733333	1.96525E-001	-9.82352E-005	0.00000E+000	-1.93056E-005	-5.99601E-002	1.96565E-001	3.57730E+000	9	...........
	55	0.746667	1.84625E-001	-9.86394E-005	0.00000E+000	-1.82113E-005	-5.99601E-002	1.84659E-001	3.57730E+000	9	...........
	56	0.76	1.72727E-001	-9.80091E-005	0.00000E+000	-1.69288E-005	-5.99601E-002	1.72765E-001	3.57730E+000	9	...........
	57	0.773333	1.60839E-001	-9.95948E-005	0.00000E+000	-1.60187E-005	-5.99601E-002	1.60869E-001	3.57730E+000	9	...........
	58	0.786667	1.48966E-001	-9.93406E-005	0.00000E+000	-1.47983E-005	-5.99601E-002	1.48992E-001	3.57730E+000	9	...........
	59	0.8	1.37117E-001	-9.88624E-005	0.00000E+000	-1.35557E-005	-5.99601E-002	1.37142E-001	3.57730E+000	9	...........
	60	0.813333	1.25299E-001	-9.87582E-005	0.00000E+000	-1.23743E-005	-5.99601E-002	1.25319E-001	3.57730E+000	9	...........
	61	0.826667	1.13524E-001	-9.86738E-005	0.00000E+000	-1.12019E-005	-5.99601E-002	1.13542E-001	3.57730E+000	9	...........
	62	0.84	1.01784E-001	-9.91322E-005	0.00000E+000	-1.00901E-005	-5.99601E-002	1.01801E-001	3.57730E+000	9	...........
	63	0.853333	9.01121E-002	-9.83039E-005	0.00000E+000	-8.85837E-006	-5.99601E-002	9.01294E-002	3.57730E+000	9	...........
	64	0.866667	7.85057E-002	-9.93469E-005	0.00000E+000	-7.79930E-006	-5.99601E-002	7.85166E-002	3.57730E+000	9	...........
	65	0.88	6.69793E-002	-9.89093E-005	0.00000E+000	-6.62488E-006	-5.99601E-002	6.69879E-002	3.57730E+000	9	...........
	66	0.893333	5.55468E-002	-9.88072E-005	0.00000E+000	-5.48842E-006	-5.99601E-002	5.55567E-002	3.57730E+000	9	...........
	67	0.906667	4.42530E-002	-9.90135E-005	0.00000E+000	-4.38164E-006	-5.99601E-002	4.42551E-002	3.57730E+000	9	...........
	68	0.92	3.30595E-002	-9.88905E-005	0.00000E+000	-3.26928E-006	-5.99601E-002	3.30568E-002	3.57730E+000	9	...........
	69	0.933333	2.19844E-002	-9.93875E-005	0.00000E+000	-2.18498E-006	-5.99601E-002	2.19795E-002	3.57730E+000	9	...........
	70	0.946667	1.10448E-002	-9.84634E-005	0.00000E+000	-1.08751E-006	-5.99601E-002	1.10266E-002	3.57730E+000	9	...........
	71	0.955	2.26080E-003	-9.87253E-005	0.00000E+000	-2.23198E-007	-5.99601E-002	2.23556E-003	3.57730E+000	9	...........
STARTTIMEOFFSET	QUANT	172.9867	Start Time Offset (s)
