EXPLAIN
TAG	PWR800_DISCHARGE
TITLE	LABEL	PWR Cyclic Charge Discharge (Cell) - Discharge Step	Test &Identifier
DATE	LABEL	12-7-2017	Date
TIME	LABEL	16:53:48	Time
NOTES	NOTES	2	&Notes...
	supercap test cell
	6M KOH
PSTAT	PSTAT	IFC5000-01520	Potentiostat
CAPACITY	QUANT	1.00000E-003	Capacity (A-hr)
CELLTYPE	SELECTOR	1	&Cell Type
WORKINGCONNECTION	SELECTOR	0	&Working Lead
MAXDISCHARGETIME	VARIABLEANDUNITS	1.00000E+002	s	1.00000E+002	second(s)	Max &Discharge Time
DISCHARGEMODE	MULTIPARAM	0	1.00000E-004	&Discharge Mode	Constant Current	Amp(s)
SAMPLETIME	QUANT	1.00000E-002	Sa&mple Period (s)
DISCHARGESTOPAT1	MULTIPARAM	3	0.00000E+000	Discharge Stop At &1	Voltage < Limit	V
DISCHARGESTOPAT2	MULTIPARAM	0	0.00000E+000	Discharge Stop At &2	None	N/A
AESBHCSELECTOR	TOGGLE	F	Save Both Half Cells
IRCOMP	TOGGLE	F	IR &Measure
EOC	QUANT	0	Open Circuit (V)
SEQUENCER	TOGGLE	TRUE	Run as Sequence
PSTATMODEL	IQUANT	53	Pstat Model
PSTATSECTION	LABEL	IFC5000-01520	Pstat Section
PSTATSERIALNO	LABEL	01520	Pstat Serial Number
CTRLMODE	IQUANT	0	Control Mode
ELECTROMETER	IQUANT	1	RE=0 or CS=1
IESTAB	IQUANT	0	I/E Stability
CASPEED	IQUANT	4	Control Amp Speed
CONVENTION	IQUANT	1	Current Convention
ICHRANGE	IQUANT	2	Ich Range
ICHRANGEMODE	TOGGLE	T	Ich Auto Range
ICHOFFSETENABLE	TOGGLE	F	Ich Offset Enable
ICHOFFSET	QUANT	0	Ich Offset (V)
ICHFILTER	IQUANT	1	Ich Filter
VCHRANGE	IQUANT	2	Vch Range
VCHRANGEMODE	TOGGLE	T	Vch Auto Range
VCHOFFSETENABLE	TOGGLE	F	Vch Offset Enable
VCHOFFSET	QUANT	0	Vch Offset (V)
VCHFILTER	IQUANT	1	Vch Filter
IERANGELOWERLIMIT	IQUANT	9	I/E Range Lower Limit
IERANGEMODE	TOGGLE	F	I/E AutoRange
IERANGE	IQUANT	9	I/E Range
ACHSELECT	IQUANT	1	Ach Select
ACHRANGE	IQUANT	2	Ach Range
ACHOFFSETENABLE	TOGGLE	F	Ach Offset Enable
ACHOFFSET	QUANT	0	Ach Offset (V)
ACHFILTER	IQUANT	1	Ach Filter
CABLEID	IQUANT	14	Cable ID
DCCALDATE	LABEL	5-7-2017	DC Calibration Date
ACCALDATE	LABEL	12/3/2015	AC Calibration Date
FRAMEWORKVERSION	QUANT	7.01	Framework Version
INSTRUMENTVERSION	LABEL	4.00	Instrument Version
CURVE	TABLE	70
	Pt	T	Vf	Im	Vu	Pwr	Sig	Ach	Temp	IERange	Over
	#	s	V	A	V	W	V	V	deg C	#	bits
	0	0.013333	8.44989E-001	-9.87801E-005	0.00000E+000	-8.34681E-005	-5.99601E-002	8.45259E-001	3.57780E+000	9	...........
	1	0.026667	8.31733E-001	-9.93052E-005	0.00000E+000	-8.25954E-005	-5.99601E-002	8.32023E-001	3.57780E+000	9	...........
	2	0.04	8.19093E-001	-9.75204E-005	0.00000E+000	-7.98783E-005	-5.99601E-002	8.19372E-001	3.57780E+000	9	...........
	3	0.053333	8.06802E-001	-9.92917E-005	0.00000E+000	-8.01087E-005	-5.99601E-002	8.07083E-001	3.57780E+000	9	...........
	4	0.066667	7.94796E-001	-9.81862E-005	0.00000E+000	-7.80381E-005	-5.99601E-002	7.95076E-001	3.57780E+000	9	...........
	5	0.08	7.82957E-001	-9.91718E-005	0.00000E+000	-7.76473E-005	-5.99601E-002	7.83247E-001	3.57780E+000	9	...........
	6	0.093333	7.71309E-001	-9.75184E-005	0.00000E+000	-7.52168E-005	-5.99601E-002	7.71587E-001	3.57780E+000	9	...........
	7	0.106667	7.59765E-001	-9.78455E-005	0.00000E+000	-7.43396E-005	-5.99601E-002	7.60029E-001	3.57780E+000	9	...........
	8	0.12	7.48337E-001	-9.94625E-005	0.00000E+000	-7.44315E-005	-5.99601E-002	7.48586E-001	3.57780E+000	9	...........
	9	0.133333	7.36988E-001	-9.90072E-005	0.00000E+000	-7.29671E-005	-5.99601E-002	7.37230E-001	3.57780E+000	9	...........
	10	0.146667	7.25770E-001	-9.87988E-005	0.00000E+000	-7.17052E-005	-5.99601E-002	7.26005E-001	3.57780E+000	9	...........
	11	0.16	7.14589E-001	-9.90187E-005	0.00000E+000	-7.07577E-005	-5.99601E-002	7.14840E-001	3.57780E+000	9	...........
	12	0.173333	7.03485E-001	-9.89322E-005	0.00000E+000	-6.95973E-005	-5.99601E-002	7.03757E-001	3.57780E+000	9	...........
	13	0.186667	6.92487E-001	-9.84456E-005	0.00000E+000	-6.81724E-005	-5.99601E-002	6.92740E-001	3.57780E+000	9	...........
	14	0.2	6.81578E-001	-9.88916E-005	0.00000E+000	-6.74024E-005	-5.99601E-002	6.81812E-001	3.57780E+000	9	...........
	15	0.213333	6.70742E-001	-9.85634E-005	0.00000E+000	-6.61106E-005	-5.99601E-002	6.70968E-001	3.57780E+000	9	...........
	16	0.226667	6.59903E-001	-9.85352E-005	0.00000E+000	-6.50237E-005	-5.99601E-002	6.60152E-001	3.57780E+000	9	...........
	17	0.24	6.49134E-001	-9.77049E-005	0.00000E+000	-6.34235E-005	-5.99601E-002	6.49363E-001	3.57780E+000	9	...........
	18	0.253333	6.38325E-001	-9.84654E-005	0.00000E+000	-6.28529E-005	-5.99601E-002	6.38568E-001	3.57780E+000	9	...........
	19	0.266667	6.27488E-001	-9.84529E-005	0.00000E+000	-6.17781E-005	-5.99601E-002	6.27684E-001	3.57780E+000	9	...........
	20	0.28	6.16489E-001	-9.75392E-005	0.00000E+000	-6.01319E-005	-5.99601E-002	6.16714E-001	3.57780E+000	9	...........
	21	0.293333	6.05325E-001	-9.81685E-005	0.00000E+000	-5.94239E-005	-5.99601E-002	6.05572E-001	3.57780E+000	9	...........
	22	0.306667	5.93995E-001	-9.95521E-005	0.00000E+000	-5.91334E-005	-5.99601E-002	5.94212E-001	3.57780E+000	9	...........
	23	0.32	5.82407E-001	-9.83383E-005	0.00000E+000	-5.72729E-005	-5.99601E-002	5.82623E-001	3.57780E+000	9	...........
	24	0.333333	5.70652E-001	-9.96105E-005	0.00000E+000	-5.68429E-005	-5.99601E-002	5.70840E-001	3.57780E+000	9	...........
	25	0.346667	5.58629E-001	-9.89770E-005	0.00000E+000	-5.52914E-005	-5.99601E-002	5.58849E-001	3.57780E+000	9	...........
	26	0.36	5.46452E-001	-9.82539E-005	0.00000E+000	-5.36911E-005	-5.99601E-002	5.46649E-001	3.57780E+000	9	...........
	27	0.373333	5.34040E-001	-9.87499E-005	0.00000E+000	-5.27364E-005	-5.99601E-002	5.34277E-001	3.57780E+000	9	...........
	28	0.386667	5.21485E-001	-9.83540E-005	0.00000E+000	-5.12902E-005	-5.99601E-002	5.21714E-001	3.57780E+000	9	...........
	29	0.4	5.08748E-001	-9.93938E-005	0.00000E+000	-5.05664E-005	-5.99601E-002	5.09015E-001	3.57780E+000	9	...........
	30	0.413333	4.95911E-001	-9.92208E-005	0.00000E+000	-4.92047E-005	-5.99601E-002	4.96136E-001	3.57780E+000	9	...........
	31	0.426667	4.83132E-001	-9.84831E-005	0.00000E+000	-4.75803E-005	-5.99601E-002	4.83240E-001	3.57780E+000	9	...........
	32	0.44	4.70150E-001	-9.86634E-005	0.00000E+000	-4.63866E-005	-5.99601E-002	4.70246E-001	3.57743E+000	9	...........
	33	0.453333	4.56955E-001	-9.90895E-005	0.00000E+000	-4.52795E-005	-5.99601E-002	4.57047E-001	3.57630E+000	9	...........
	34	0.466667	4.43687E-001	-9.88478E-005	0.00000E+000	-4.38575E-005	-5.99601E-002	4.43786E-001	3.57630E+000	9	...........
	35	0.48	4.30356E-001	-9.90406E-005	0.00000E+000	-4.26227E-005	-5.99601E-002	4.30445E-001	3.57630E+000	9	...........
	36	0.493333	4.16962E-001	-9.84425E-005	0.00000E+000	-4.10468E-005	-5.99601E-002	4.17051E-001	3.57630E+000	9	...........
	37	0.506667	4.03536E-001	-9.81445E-005	0.00000E+000	-3.96048E-005	-5.99601E-002	4.03616E-001	3.57630E+000	9	...........
	38	0.52	3.90071E-001	-9.90520E-005	0.00000E+000	-3.86373E-005	-5.99601E-002	3.90144E-001	3.57630E+000	9	...........
	39	0.533333	3.76590E-001	-9.82269E-005	0.00000E+000	-3.69913E-005	-5.99601E-002	3.76669E-001	3.57630E+000	9	...........
	40	0.546667	3.63104E-001	-1.01049E-004	0.00000E+000	-3.66914E-005	-5.99601E-002	3.63177E-001	3.57630E+000	9	...........
	41	0.56	3.49638E-001	-9.92875E-005	0.00000E+000	-3.47147E-005	-5.99601E-002	3.49707E-001	3.57630E+000	9	...........
	42	0.573333	3.36193E-001	-9.90062E-005	0.00000E+000	-3.32852E-005	-5.99601E-002	3.36263E-001	3.57630E+000	9	...........
	43	0.586667	3.22780E-001	-9.83738E-005	0.00000E+000	-3.17531E-005	-5.99601E-002	3.22846E-001	3.57630E+000	9	...........
	44	0.6	3.09399E-001	-9.88687E-005	0.00000E+000	-3.05899E-005	-5.99601E-002	3.09465E-001	3.57630E+000	9	...........
	45	0.613333	2.96065E-001	-1.01411E-004	0.00000E+000	-3.00242E-005	-5.99601E-002	2.96118E-001	3.57630E+000	9	...........
	46	0.626667	2.82787E-001	-9.83092E-005	0.00000E+000	-2.78006E-005	-5.99601E-002	2.82844E-001	3.57630E+000	9	...........
	47	0.64	2.69560E-001	-9.87384E-005	0.00000E+000	-2.66159E-005	-5.99601E-002	2.69616E-001	3.57630E+000	9	...........
	48	0.653333	2.56401E-001	-9.89395E-005	0.00000E+000	-2.53682E-005	-5.99601E-002	2.56451E-001	3.57630E+000	9	...........
	49	0.666667	2.43323E-001	-9.90593E-005	0.00000E+000	-2.41034E-005	-5.99601E-002	2.43372E-001	3.57630E+000	9	...........
	50	0.68	2.30320E-001	-9.76090E-005	0.00000E+000	-2.24813E-005	-5.99601E-002	2.30357E-001	3.57630E+000	9	...........
	51	0.693333	2.17380E-001	-9.75996E-005	0.00000E+000	-2.12162E-005	-5.99601E-002	2.17417E-001	3.57630E+000	9	...........
	52	0.706667	2.04520E-001	-9.96699E-005	0.00000E+000	-2.03844E-005	-5.99601E-002	2.04558E-001	3.57630E+000	9	...........
	53	0.72	1.91739E-001	-9.94677E-005	0.00000E+000	-1.90718E-005	-5.99601E-002	1.91778E-001	3.57630E+000	9	...........
	54	0.733333	1.79039E-001	-9.86749E-005	0.00000E+000	-1.76666E-005	-5.99601E-002	1.79076E-001	3.57630E+000	9	...........
	55	0.746667	1.66419E-001	-9.83581E-005	0.00000E+000	-1.63686E-005	-5.99601E-002	1.66452E-001	3.57630E+000	9	...........
	56	0.76	1.53878E-001	-9.90927E-005	0.00000E+000	-1.52482E-005	-5.99601E-002	1.53902E-001	3.57630E+000	9	...........
	57	0.773333	1.41410E-001	-9.84727E-005	0.00000E+000	-1.39250E-005	-5.99601E-002	1.41430E-001	3.57630E+000	9	...........
	58	0.786667	1.29017E-001	-9.91041E-005	0.00000E+000	-1.27861E-005	-5.99601E-002	1.29034E-001	3.57630E+000	9	...........
	59	0.8	1.16720E-001	-9.79257E-005	0.00000E+000	-1.14299E-005	-5.99601E-002	1.16732E-001	3.57630E+000	9	...........
	60	0.813333	1.04501E-001	-9.95553E-005	0.00000E+000	-1.04036E-005	-5.99601E-002	1.04514E-001	3.57630E+000	9	...........
	61	0.826667	9.23805E-002	-1.00018E-004	0.00000E+000	-9.23969E-006	-5.99601E-002	9.23944E-002	3.57630E+000	9	...........
	62	0.84	8.03810E-002	-9.74579E-005	0.00000E+000	-7.83377E-006	-5.99601E-002	8.03898E-002	3.57630E+000	9	...........
	63	0.853333	6.84911E-002	-9.87030E-005	0.00000E+000	-6.76028E-006	-5.99601E-002	6.84925E-002	3.57630E+000	9	...........
	64	0.866667	5.67273E-002	-9.92531E-005	0.00000E+000	-5.63036E-006	-5.99601E-002	5.67319E-002	3.57630E+000	9	...........
	65	0.88	4.51284E-002	-9.89207E-005	0.00000E+000	-4.46414E-006	-5.99601E-002	4.51290E-002	3.57630E+000	9	...........
	66	0.893333	3.36652E-002	-9.84248E-005	0.00000E+000	-3.31349E-006	-5.99601E-002	3.36626E-002	3.57630E+000	9	...........
	67	0.906667	2.23453E-002	-9.91656E-005	0.00000E+000	-2.21589E-006	-5.99601E-002	2.23405E-002	3.57630E+000	9	...........
	68	0.92	1.12034E-002	-9.88957E-005	0.00000E+000	-1.10797E-006	-5.99601E-002	1.11946E-002	3.57630E+000	9	...........
	69	0.928333	2.27517E-003	-9.85286E-005	0.00000E+000	-2.24170E-007	-5.99601E-002	2.25532E-003	3.57630E+000	9	...........
STARTTIMEOFFSET	QUANT	1864.233	Start Time Offset (s)
