EXPLAIN
TAG	PWR800_DISCHARGE
TITLE	LABEL	PWR Cyclic Charge Discharge (Cell) - Discharge Step	Test &Identifier
DATE	LABEL	12-7-2017	Date
TIME	LABEL	16:33:34	Time
NOTES	NOTES	2	&Notes...
	supercap test cell
	6M KOH
PSTAT	PSTAT	IFC5000-01520	Potentiostat
CAPACITY	QUANT	1.00000E-003	Capacity (A-hr)
CELLTYPE	SELECTOR	1	&Cell Type
WORKINGCONNECTION	SELECTOR	0	&Working Lead
MAXDISCHARGETIME	VARIABLEANDUNITS	1.00000E+002	s	1.00000E+002	second(s)	Max &Discharge Time
DISCHARGEMODE	MULTIPARAM	0	1.00000E-004	&Discharge Mode	Constant Current	Amp(s)
SAMPLETIME	QUANT	1.00000E-002	Sa&mple Period (s)
DISCHARGESTOPAT1	MULTIPARAM	3	0.00000E+000	Discharge Stop At &1	Voltage < Limit	V
DISCHARGESTOPAT2	MULTIPARAM	0	0.00000E+000	Discharge Stop At &2	None	N/A
AESBHCSELECTOR	TOGGLE	F	Save Both Half Cells
IRCOMP	TOGGLE	F	IR &Measure
EOC	QUANT	0	Open Circuit (V)
SEQUENCER	TOGGLE	TRUE	Run as Sequence
PSTATMODEL	IQUANT	53	Pstat Model
PSTATSECTION	LABEL	IFC5000-01520	Pstat Section
PSTATSERIALNO	LABEL	01520	Pstat Serial Number
CTRLMODE	IQUANT	0	Control Mode
ELECTROMETER	IQUANT	1	RE=0 or CS=1
IESTAB	IQUANT	0	I/E Stability
CASPEED	IQUANT	4	Control Amp Speed
CONVENTION	IQUANT	1	Current Convention
ICHRANGE	IQUANT	2	Ich Range
ICHRANGEMODE	TOGGLE	T	Ich Auto Range
ICHOFFSETENABLE	TOGGLE	F	Ich Offset Enable
ICHOFFSET	QUANT	0	Ich Offset (V)
ICHFILTER	IQUANT	1	Ich Filter
VCHRANGE	IQUANT	2	Vch Range
VCHRANGEMODE	TOGGLE	T	Vch Auto Range
VCHOFFSETENABLE	TOGGLE	F	Vch Offset Enable
VCHOFFSET	QUANT	0	Vch Offset (V)
VCHFILTER	IQUANT	1	Vch Filter
IERANGELOWERLIMIT	IQUANT	9	I/E Range Lower Limit
IERANGEMODE	TOGGLE	F	I/E AutoRange
IERANGE	IQUANT	9	I/E Range
ACHSELECT	IQUANT	1	Ach Select
ACHRANGE	IQUANT	2	Ach Range
ACHOFFSETENABLE	TOGGLE	F	Ach Offset Enable
ACHOFFSET	QUANT	0	Ach Offset (V)
ACHFILTER	IQUANT	1	Ach Filter
CABLEID	IQUANT	14	Cable ID
DCCALDATE	LABEL	5-7-2017	DC Calibration Date
ACCALDATE	LABEL	12/3/2015	AC Calibration Date
FRAMEWORKVERSION	QUANT	7.01	Framework Version
INSTRUMENTVERSION	LABEL	4.00	Instrument Version
CURVE	TABLE	71
	Pt	T	Vf	Im	Vu	Pwr	Sig	Ach	Temp	IERange	Over
	#	s	V	A	V	W	V	V	deg C	#	bits
	0	0.013333	8.42378E-001	-1.00054E-004	0.00000E+000	-8.42835E-005	-5.99601E-002	8.42677E-001	3.57880E+000	9	...........
	1	0.026667	8.29354E-001	-9.88093E-005	0.00000E+000	-8.19479E-005	-5.99601E-002	8.29646E-001	3.57880E+000	9	...........
	2	0.04	8.16900E-001	-9.87780E-005	0.00000E+000	-8.06917E-005	-5.99601E-002	8.17203E-001	3.57880E+000	9	...........
	3	0.053333	8.04848E-001	-9.88280E-005	0.00000E+000	-7.95415E-005	-5.99601E-002	8.05140E-001	3.57880E+000	9	...........
	4	0.066667	7.93051E-001	-9.83842E-005	0.00000E+000	-7.80236E-005	-5.99601E-002	7.93319E-001	3.57880E+000	9	...........
	5	0.08	7.81436E-001	-9.96990E-005	0.00000E+000	-7.79085E-005	-5.99601E-002	7.81739E-001	3.57880E+000	9	...........
	6	0.093333	7.70014E-001	-9.90989E-005	0.00000E+000	-7.63075E-005	-5.99601E-002	7.70310E-001	3.57880E+000	9	...........
	7	0.106667	7.58714E-001	-9.80331E-005	0.00000E+000	-7.43791E-005	-5.99601E-002	7.58975E-001	3.57880E+000	9	...........
	8	0.12	7.47546E-001	-9.88468E-005	0.00000E+000	-7.38926E-005	-5.99601E-002	7.47801E-001	3.57880E+000	9	...........
	9	0.133333	7.36439E-001	-9.87384E-005	0.00000E+000	-7.27148E-005	-5.99601E-002	7.36716E-001	3.57880E+000	9	...........
	10	0.146667	7.25486E-001	-9.79674E-005	0.00000E+000	-7.10740E-005	-5.99601E-002	7.25741E-001	3.57880E+000	9	...........
	11	0.16	7.14569E-001	-1.00027E-004	0.00000E+000	-7.14764E-005	-5.99601E-002	7.14838E-001	3.57880E+000	9	...........
	12	0.173333	7.03779E-001	-9.89249E-005	0.00000E+000	-6.96213E-005	-5.99601E-002	7.04027E-001	3.57880E+000	9	...........
	13	0.186667	6.93058E-001	-9.83175E-005	0.00000E+000	-6.81397E-005	-5.99601E-002	6.93303E-001	3.57880E+000	9	...........
	14	0.2	6.82375E-001	-9.83342E-005	0.00000E+000	-6.71008E-005	-5.99601E-002	6.82610E-001	3.57880E+000	9	...........
	15	0.213333	6.71757E-001	-9.85175E-005	0.00000E+000	-6.61799E-005	-5.99601E-002	6.71988E-001	3.57880E+000	9	...........
	16	0.226667	6.61102E-001	-9.77643E-005	0.00000E+000	-6.46321E-005	-5.99601E-002	6.61339E-001	3.57731E+000	9	...........
	17	0.24	6.50431E-001	-9.78486E-005	0.00000E+000	-6.36437E-005	-5.99601E-002	6.50651E-001	3.57710E+000	9	...........
	18	0.253333	6.39658E-001	-9.84081E-005	0.00000E+000	-6.29475E-005	-5.99601E-002	6.39874E-001	3.57710E+000	9	...........
	19	0.266667	6.28750E-001	-9.94208E-005	0.00000E+000	-6.25109E-005	-5.99601E-002	6.28971E-001	3.57710E+000	9	...........
	20	0.28	6.17686E-001	-9.79341E-005	0.00000E+000	-6.04925E-005	-5.99601E-002	6.17901E-001	3.57710E+000	9	...........
	21	0.293333	6.06377E-001	-9.92510E-005	0.00000E+000	-6.01835E-005	-5.99601E-002	6.06630E-001	3.57710E+000	9	...........
	22	0.306667	5.94924E-001	-9.78434E-005	0.00000E+000	-5.82094E-005	-5.99601E-002	5.95187E-001	3.57710E+000	9	...........
	23	0.32	5.83257E-001	-9.94886E-005	0.00000E+000	-5.80274E-005	-5.99601E-002	5.83510E-001	3.57710E+000	9	...........
	24	0.333333	5.71434E-001	-9.83769E-005	0.00000E+000	-5.62159E-005	-5.99601E-002	5.71663E-001	3.57710E+000	9	...........
	25	0.346667	5.59386E-001	-9.77872E-005	0.00000E+000	-5.47007E-005	-5.99601E-002	5.59627E-001	3.57710E+000	9	...........
	26	0.36	5.47202E-001	-9.95636E-005	0.00000E+000	-5.44814E-005	-5.99601E-002	5.47444E-001	3.57710E+000	9	...........
	27	0.373333	5.34860E-001	-9.92416E-005	0.00000E+000	-5.30804E-005	-5.99601E-002	5.35111E-001	3.57710E+000	9	...........
	28	0.386667	5.22407E-001	-9.79320E-005	0.00000E+000	-5.11604E-005	-5.99601E-002	5.22630E-001	3.57710E+000	9	...........
	29	0.4	5.09800E-001	-9.95417E-005	0.00000E+000	-5.07463E-005	-5.99601E-002	5.10031E-001	3.57710E+000	9	...........
	30	0.413333	4.97065E-001	-9.85863E-005	0.00000E+000	-4.90038E-005	-5.99601E-002	4.97305E-001	3.57710E+000	9	...........
	31	0.426667	4.84437E-001	-9.86415E-005	0.00000E+000	-4.77856E-005	-5.99601E-002	4.84573E-001	3.57710E+000	9	...........
	32	0.44	4.71681E-001	-9.87915E-005	0.00000E+000	-4.65981E-005	-5.99601E-002	4.71779E-001	3.57710E+000	9	...........
	33	0.453333	4.58707E-001	-9.89134E-005	0.00000E+000	-4.53723E-005	-5.99601E-002	4.58800E-001	3.57710E+000	9	...........
	34	0.466667	4.45667E-001	-9.85665E-005	0.00000E+000	-4.39279E-005	-5.99601E-002	4.45766E-001	3.57710E+000	9	...........
	35	0.48	4.32593E-001	-9.90031E-005	0.00000E+000	-4.28280E-005	-5.99601E-002	4.32680E-001	3.57710E+000	9	...........
	36	0.493333	4.19463E-001	-9.70631E-005	0.00000E+000	-4.07143E-005	-5.99601E-002	4.19549E-001	3.57710E+000	9	...........
	37	0.506667	4.06319E-001	-9.87395E-005	0.00000E+000	-4.01197E-005	-5.99601E-002	4.06407E-001	3.57710E+000	9	...........
	38	0.52	3.93163E-001	-9.87051E-005	0.00000E+000	-3.88072E-005	-5.99601E-002	3.93244E-001	3.57710E+000	9	...........
	39	0.533333	3.80004E-001	-9.86196E-005	0.00000E+000	-3.74758E-005	-5.99601E-002	3.80084E-001	3.57710E+000	9	...........
	40	0.546667	3.66856E-001	-9.87801E-005	0.00000E+000	-3.62381E-005	-5.99601E-002	3.66934E-001	3.57710E+000	9	...........
	41	0.56	3.53725E-001	-9.76434E-005	0.00000E+000	-3.45389E-005	-5.99601E-002	3.53797E-001	3.57710E+000	9	...........
	42	0.573333	3.40606E-001	-9.90051E-005	0.00000E+000	-3.37217E-005	-5.99601E-002	3.40676E-001	3.57710E+000	9	...........
	43	0.586667	3.27527E-001	-9.97386E-005	0.00000E+000	-3.26671E-005	-5.99601E-002	3.27597E-001	3.57710E+000	9	...........
	44	0.6	3.14490E-001	-9.85457E-005	0.00000E+000	-3.09916E-005	-5.99601E-002	3.14552E-001	3.57710E+000	9	...........
	45	0.613333	3.01490E-001	-9.78841E-005	0.00000E+000	-2.95111E-005	-5.99601E-002	3.01559E-001	3.57710E+000	9	...........
	46	0.626667	2.88552E-001	-9.83748E-005	0.00000E+000	-2.83862E-005	-5.99601E-002	2.88613E-001	3.57710E+000	9	...........
	47	0.64	2.75661E-001	-9.79059E-005	0.00000E+000	-2.69889E-005	-5.99601E-002	2.75722E-001	3.57710E+000	9	...........
	48	0.653333	2.62827E-001	-9.93167E-005	0.00000E+000	-2.61031E-005	-5.99601E-002	2.62889E-001	3.57710E+000	9	...........
	49	0.666667	2.50066E-001	-9.76257E-005	0.00000E+000	-2.44129E-005	-5.99601E-002	2.50122E-001	3.57710E+000	9	...........
	50	0.68	2.37363E-001	-9.80977E-005	0.00000E+000	-2.32848E-005	-5.99601E-002	2.37406E-001	3.57710E+000	9	...........
	51	0.693333	2.24715E-001	-9.73808E-005	0.00000E+000	-2.18829E-005	-5.99601E-002	2.24760E-001	3.57710E+000	9	...........
	52	0.706667	2.12129E-001	-9.92114E-005	0.00000E+000	-2.10456E-005	-5.99601E-002	2.12172E-001	3.57710E+000	9	...........
	53	0.72	1.99589E-001	-9.83039E-005	0.00000E+000	-1.96204E-005	-5.99601E-002	1.99634E-001	3.57710E+000	9	...........
	54	0.733333	1.87112E-001	-9.89801E-005	0.00000E+000	-1.85204E-005	-5.99601E-002	1.87152E-001	3.57710E+000	9	...........
	55	0.746667	1.74694E-001	-9.90749E-005	0.00000E+000	-1.73078E-005	-5.99601E-002	1.74729E-001	3.57710E+000	9	...........
	56	0.76	1.62329E-001	-9.89197E-005	0.00000E+000	-1.60576E-005	-5.99601E-002	1.62361E-001	3.57710E+000	9	...........
	57	0.773333	1.50019E-001	-9.86905E-005	0.00000E+000	-1.48055E-005	-5.99601E-002	1.50045E-001	3.57710E+000	9	...........
	58	0.786667	1.37765E-001	-9.74923E-005	0.00000E+000	-1.34310E-005	-5.99601E-002	1.37787E-001	3.57710E+000	9	...........
	59	0.8	1.25581E-001	-9.88999E-005	0.00000E+000	-1.24199E-005	-5.99601E-002	1.25600E-001	3.57710E+000	9	...........
	60	0.813333	1.13466E-001	-9.89114E-005	0.00000E+000	-1.12231E-005	-5.99601E-002	1.13480E-001	3.57710E+000	9	...........
	61	0.826667	1.01428E-001	-9.73944E-005	0.00000E+000	-9.87847E-006	-5.99601E-002	1.01439E-001	3.57710E+000	9	...........
	62	0.84	8.94697E-002	-9.88009E-005	0.00000E+000	-8.83969E-006	-5.99601E-002	8.94833E-002	3.57710E+000	9	...........
	63	0.853333	7.76066E-002	-9.90270E-005	0.00000E+000	-7.68515E-006	-5.99601E-002	7.76149E-002	3.57710E+000	9	...........
	64	0.866667	6.58612E-002	-9.84050E-005	0.00000E+000	-6.48107E-006	-5.99601E-002	6.58629E-002	3.57710E+000	9	...........
	65	0.88	5.42214E-002	-9.94240E-005	0.00000E+000	-5.39090E-006	-5.99601E-002	5.42238E-002	3.57710E+000	9	...........
	66	0.893333	4.27360E-002	-9.92416E-005	0.00000E+000	-4.24119E-006	-5.99601E-002	4.27405E-002	3.57710E+000	9	...........
	67	0.906667	3.13622E-002	-9.83863E-005	0.00000E+000	-3.08561E-006	-5.99601E-002	3.13605E-002	3.57710E+000	9	...........
	68	0.92	2.01279E-002	-9.86207E-005	0.00000E+000	-1.98503E-006	-5.99601E-002	2.01198E-002	3.57710E+000	9	...........
	69	0.933333	9.04665E-003	-9.95709E-005	0.00000E+000	-9.00783E-007	-5.99601E-002	9.03124E-003	3.57710E+000	9	...........
	70	0.94	8.36287E-004	-9.86353E-005	0.00000E+000	-8.24874E-008	-5.99601E-002	8.20380E-004	3.57710E+000	9	...........
STARTTIMEOFFSET	QUANT	1005.517	Start Time Offset (s)
