EXPLAIN
TAG	PWR800_DISCHARGE
TITLE	LABEL	PWR Cyclic Charge Discharge (Cell) - Discharge Step	Test &Identifier
DATE	LABEL	12-7-2017	Date
TIME	LABEL	16:23:04	Time
NOTES	NOTES	2	&Notes...
	supercap test cell
	6M KOH
PSTAT	PSTAT	IFC5000-01520	Potentiostat
CAPACITY	QUANT	1.00000E-003	Capacity (A-hr)
CELLTYPE	SELECTOR	1	&Cell Type
WORKINGCONNECTION	SELECTOR	0	&Working Lead
MAXDISCHARGETIME	VARIABLEANDUNITS	1.00000E+002	s	1.00000E+002	second(s)	Max &Discharge Time
DISCHARGEMODE	MULTIPARAM	0	1.00000E-004	&Discharge Mode	Constant Current	Amp(s)
SAMPLETIME	QUANT	1.00000E-002	Sa&mple Period (s)
DISCHARGESTOPAT1	MULTIPARAM	3	0.00000E+000	Discharge Stop At &1	Voltage < Limit	V
DISCHARGESTOPAT2	MULTIPARAM	0	0.00000E+000	Discharge Stop At &2	None	N/A
AESBHCSELECTOR	TOGGLE	F	Save Both Half Cells
IRCOMP	TOGGLE	F	IR &Measure
EOC	QUANT	0	Open Circuit (V)
SEQUENCER	TOGGLE	TRUE	Run as Sequence
PSTATMODEL	IQUANT	53	Pstat Model
PSTATSECTION	LABEL	IFC5000-01520	Pstat Section
PSTATSERIALNO	LABEL	01520	Pstat Serial Number
CTRLMODE	IQUANT	0	Control Mode
ELECTROMETER	IQUANT	1	RE=0 or CS=1
IESTAB	IQUANT	0	I/E Stability
CASPEED	IQUANT	4	Control Amp Speed
CONVENTION	IQUANT	1	Current Convention
ICHRANGE	IQUANT	2	Ich Range
ICHRANGEMODE	TOGGLE	T	Ich Auto Range
ICHOFFSETENABLE	TOGGLE	F	Ich Offset Enable
ICHOFFSET	QUANT	0	Ich Offset (V)
ICHFILTER	IQUANT	1	Ich Filter
VCHRANGE	IQUANT	2	Vch Range
VCHRANGEMODE	TOGGLE	T	Vch Auto Range
VCHOFFSETENABLE	TOGGLE	F	Vch Offset Enable
VCHOFFSET	QUANT	0	Vch Offset (V)
VCHFILTER	IQUANT	1	Vch Filter
IERANGELOWERLIMIT	IQUANT	9	I/E Range Lower Limit
IERANGEMODE	TOGGLE	F	I/E AutoRange
IERANGE	IQUANT	9	I/E Range
ACHSELECT	IQUANT	1	Ach Select
ACHRANGE	IQUANT	2	Ach Range
ACHOFFSETENABLE	TOGGLE	F	Ach Offset Enable
ACHOFFSET	QUANT	0	Ach Offset (V)
ACHFILTER	IQUANT	1	Ach Filter
CABLEID	IQUANT	14	Cable ID
DCCALDATE	LABEL	5-7-2017	DC Calibration Date
ACCALDATE	LABEL	12/3/2015	AC Calibration Date
FRAMEWORKVERSION	QUANT	7.01	Framework Version
INSTRUMENTVERSION	LABEL	4.00	Instrument Version
CURVE	TABLE	72
	Pt	T	Vf	Im	Vu	Pwr	Sig	Ach	Temp	IERange	Over
	#	s	V	A	V	W	V	V	deg C	#	bits
	0	0.013333	8.46118E-001	-9.86957E-005	0.00000E+000	-8.35082E-005	-5.99601E-002	8.46433E-001	3.57900E+000	9	...........
	1	0.026667	8.33172E-001	-9.78643E-005	0.00000E+000	-8.15378E-005	-5.99601E-002	8.33468E-001	3.57900E+000	9	...........
	2	0.04	8.20815E-001	-9.75861E-005	0.00000E+000	-8.01001E-005	-5.99601E-002	8.21130E-001	3.57900E+000	9	...........
	3	0.053333	8.08828E-001	-9.81945E-005	0.00000E+000	-7.94225E-005	-5.99601E-002	8.09121E-001	3.57900E+000	9	...........
	4	0.066667	7.97137E-001	-9.81602E-005	0.00000E+000	-7.82471E-005	-5.99601E-002	7.97441E-001	3.57900E+000	9	...........
	5	0.08	7.85646E-001	-9.87915E-005	0.00000E+000	-7.76151E-005	-5.99601E-002	7.85936E-001	3.57900E+000	9	...........
	6	0.093333	7.74308E-001	-9.87384E-005	0.00000E+000	-7.64539E-005	-5.99601E-002	7.74606E-001	3.57900E+000	9	...........
	7	0.106667	7.63101E-001	-9.82550E-005	0.00000E+000	-7.49785E-005	-5.99601E-002	7.63392E-001	3.57900E+000	9	...........
	8	0.12	7.52038E-001	-9.88176E-005	0.00000E+000	-7.43146E-005	-5.99601E-002	7.52302E-001	3.57900E+000	9	...........
	9	0.133333	7.41082E-001	-9.88030E-005	0.00000E+000	-7.32211E-005	-5.99601E-002	7.41335E-001	3.57900E+000	9	...........
	10	0.146667	7.30201E-001	-9.85842E-005	0.00000E+000	-7.19863E-005	-5.99601E-002	7.30455E-001	3.57900E+000	9	...........
	11	0.16	7.19390E-001	-9.88301E-005	0.00000E+000	-7.10974E-005	-5.99601E-002	7.19663E-001	3.57900E+000	9	...........
	12	0.173333	7.08635E-001	-9.92792E-005	0.00000E+000	-7.03526E-005	-5.99601E-002	7.08906E-001	3.57900E+000	9	...........
	13	0.186667	6.97939E-001	-9.86801E-005	0.00000E+000	-6.88727E-005	-5.99601E-002	6.98180E-001	3.57900E+000	9	...........
	14	0.2	6.87197E-001	-9.83008E-005	0.00000E+000	-6.75520E-005	-5.99601E-002	6.87478E-001	3.57900E+000	9	...........
	15	0.213333	6.76463E-001	-9.85467E-005	0.00000E+000	-6.66632E-005	-5.99601E-002	6.76727E-001	3.57900E+000	9	...........
	16	0.226667	6.65610E-001	-9.87822E-005	0.00000E+000	-6.57504E-005	-5.99601E-002	6.65855E-001	3.57750E+000	9	...........
	17	0.24	6.54620E-001	-9.83144E-005	0.00000E+000	-6.43585E-005	-5.99601E-002	6.54866E-001	3.57700E+000	9	...........
	18	0.253333	6.43485E-001	-9.86519E-005	0.00000E+000	-6.34811E-005	-5.99601E-002	6.43722E-001	3.57700E+000	9	...........
	19	0.266667	6.32128E-001	-9.89739E-005	0.00000E+000	-6.25641E-005	-5.99601E-002	6.32388E-001	3.57700E+000	9	...........
	20	0.28	6.20681E-001	-9.95636E-005	0.00000E+000	-6.17972E-005	-5.99601E-002	6.20919E-001	3.57700E+000	9	...........
	21	0.293333	6.08970E-001	-9.81268E-005	0.00000E+000	-5.97563E-005	-5.99601E-002	6.09261E-001	3.57700E+000	9	...........
	22	0.306667	5.97187E-001	-9.98011E-005	0.00000E+000	-5.96000E-005	-5.99601E-002	5.97466E-001	3.57700E+000	9	...........
	23	0.32	5.85239E-001	-9.96855E-005	0.00000E+000	-5.83398E-005	-5.99601E-002	5.85503E-001	3.57700E+000	9	...........
	24	0.333333	5.73173E-001	-9.90437E-005	0.00000E+000	-5.67692E-005	-5.99601E-002	5.73420E-001	3.57700E+000	9	...........
	25	0.346667	5.60951E-001	-9.87759E-005	0.00000E+000	-5.54085E-005	-5.99601E-002	5.61212E-001	3.57700E+000	9	...........
	26	0.36	5.48638E-001	-9.92396E-005	0.00000E+000	-5.44466E-005	-5.99601E-002	5.48885E-001	3.57700E+000	9	...........
	27	0.373333	5.36231E-001	-9.83738E-005	0.00000E+000	-5.27510E-005	-5.99601E-002	5.36474E-001	3.57700E+000	9	...........
	28	0.386667	5.23721E-001	-9.78778E-005	0.00000E+000	-5.12607E-005	-5.99601E-002	5.23971E-001	3.57700E+000	9	...........
	29	0.4	5.11148E-001	-9.83560E-005	0.00000E+000	-5.02745E-005	-5.99601E-002	5.11385E-001	3.57700E+000	9	...........
	30	0.413333	4.98487E-001	-9.83936E-005	0.00000E+000	-4.90479E-005	-5.99601E-002	4.98745E-001	3.57700E+000	9	...........
	31	0.426667	4.85914E-001	-9.90687E-005	0.00000E+000	-4.81389E-005	-5.99601E-002	4.86094E-001	3.57700E+000	9	...........
	32	0.44	4.73379E-001	-9.88061E-005	0.00000E+000	-4.67728E-005	-5.99601E-002	4.73486E-001	3.57700E+000	9	...........
	33	0.453333	4.60593E-001	-9.90864E-005	0.00000E+000	-4.56385E-005	-5.99601E-002	4.60702E-001	3.57700E+000	9	...........
	34	0.466667	4.47779E-001	-9.91218E-005	0.00000E+000	-4.43846E-005	-5.99601E-002	4.47887E-001	3.57700E+000	9	...........
	35	0.48	4.34955E-001	-9.83425E-005	0.00000E+000	-4.27746E-005	-5.99601E-002	4.35053E-001	3.57700E+000	9	...........
	36	0.493333	4.22108E-001	-9.90301E-005	0.00000E+000	-4.18015E-005	-5.99601E-002	4.22205E-001	3.57700E+000	9	...........
	37	0.506667	4.09266E-001	-9.89989E-005	0.00000E+000	-4.05169E-005	-5.99601E-002	4.09353E-001	3.57700E+000	9	...........
	38	0.52	3.96428E-001	-9.82102E-005	0.00000E+000	-3.89333E-005	-5.99601E-002	3.96515E-001	3.57700E+000	9	...........
	39	0.533333	3.83605E-001	-9.85488E-005	0.00000E+000	-3.78038E-005	-5.99601E-002	3.83684E-001	3.57700E+000	9	...........
	40	0.546667	3.70795E-001	-9.87665E-005	0.00000E+000	-3.66221E-005	-5.99601E-002	3.70872E-001	3.57700E+000	9	...........
	41	0.56	3.58017E-001	-9.81841E-005	0.00000E+000	-3.51516E-005	-5.99601E-002	3.58090E-001	3.57700E+000	9	...........
	42	0.573333	3.45261E-001	-9.84269E-005	0.00000E+000	-3.39830E-005	-5.99601E-002	3.45332E-001	3.57700E+000	9	...........
	43	0.586667	3.32530E-001	-9.86144E-005	0.00000E+000	-3.27922E-005	-5.99601E-002	3.32607E-001	3.57700E+000	9	...........
	44	0.6	3.19847E-001	-9.83925E-005	0.00000E+000	-3.14706E-005	-5.99601E-002	3.19918E-001	3.57700E+000	9	...........
	45	0.613333	3.07188E-001	-9.94636E-005	0.00000E+000	-3.05540E-005	-5.99601E-002	3.07252E-001	3.57700E+000	9	...........
	46	0.626667	2.94568E-001	-9.70870E-005	0.00000E+000	-2.85987E-005	-5.99601E-002	2.94624E-001	3.57700E+000	9	...........
	47	0.64	2.81991E-001	-9.90103E-005	0.00000E+000	-2.79200E-005	-5.99601E-002	2.82052E-001	3.57700E+000	9	...........
	48	0.653333	2.69452E-001	-9.86603E-005	0.00000E+000	-2.65842E-005	-5.99601E-002	2.69511E-001	3.57700E+000	9	...........
	49	0.666667	2.56958E-001	-9.85467E-005	0.00000E+000	-2.53224E-005	-5.99601E-002	2.57012E-001	3.57700E+000	9	...........
	50	0.68	2.44500E-001	-9.84186E-005	0.00000E+000	-2.40633E-005	-5.99601E-002	2.44550E-001	3.57700E+000	9	...........
	51	0.693333	2.32071E-001	-9.95667E-005	0.00000E+000	-2.31065E-005	-5.99601E-002	2.32123E-001	3.57700E+000	9	...........
	52	0.706667	2.19675E-001	-9.87999E-005	0.00000E+000	-2.17039E-005	-5.99601E-002	2.19721E-001	3.57700E+000	9	...........
	53	0.72	2.07306E-001	-9.83008E-005	0.00000E+000	-2.03783E-005	-5.99601E-002	2.07343E-001	3.57700E+000	9	...........
	54	0.733333	1.94947E-001	-9.83269E-005	0.00000E+000	-1.91686E-005	-5.99601E-002	1.94992E-001	3.57700E+000	9	...........
	55	0.746667	1.82623E-001	-9.92750E-005	0.00000E+000	-1.81299E-005	-5.99601E-002	1.82665E-001	3.57700E+000	9	...........
	56	0.76	1.70340E-001	-9.79580E-005	0.00000E+000	-1.66861E-005	-5.99601E-002	1.70378E-001	3.57700E+000	9	...........
	57	0.773333	1.58096E-001	-9.91927E-005	0.00000E+000	-1.56820E-005	-5.99601E-002	1.58128E-001	3.57700E+000	9	...........
	58	0.786667	1.45883E-001	-9.92031E-005	0.00000E+000	-1.44720E-005	-5.99601E-002	1.45917E-001	3.57700E+000	9	...........
	59	0.8	1.33721E-001	-9.95032E-005	0.00000E+000	-1.33056E-005	-5.99601E-002	1.33748E-001	3.57700E+000	9	...........
	60	0.813333	1.21607E-001	-9.86196E-005	0.00000E+000	-1.19929E-005	-5.99601E-002	1.21642E-001	3.57700E+000	9	...........
	61	0.826667	1.09559E-001	-9.87165E-005	0.00000E+000	-1.08153E-005	-5.99601E-002	1.09581E-001	3.57700E+000	9	...........
	62	0.84	9.75707E-002	-9.89051E-005	0.00000E+000	-9.65024E-006	-5.99601E-002	9.75941E-002	3.57700E+000	9	...........
	63	0.853333	8.56609E-002	-9.92062E-005	0.00000E+000	-8.49810E-006	-5.99601E-002	8.56847E-002	3.57700E+000	9	...........
	64	0.866667	7.38402E-002	-9.89343E-005	0.00000E+000	-7.30533E-006	-5.99601E-002	7.38592E-002	3.57700E+000	9	...........
	65	0.88	6.21128E-002	-9.79122E-005	0.00000E+000	-6.08160E-006	-5.99601E-002	6.21259E-002	3.57700E+000	9	...........
	66	0.893333	5.04987E-002	-9.89666E-005	0.00000E+000	-4.99768E-006	-5.99601E-002	5.05078E-002	3.57700E+000	9	...........
	67	0.906667	3.90223E-002	-9.74861E-005	0.00000E+000	-3.80413E-006	-5.99601E-002	3.90308E-002	3.57700E+000	9	...........
	68	0.92	2.76408E-002	-9.84384E-005	0.00000E+000	-2.72092E-006	-5.99601E-002	2.76376E-002	3.57700E+000	9	...........
	69	0.933333	1.63955E-002	-9.83717E-005	0.00000E+000	-1.61285E-006	-5.99601E-002	1.63810E-002	3.57700E+000	9	...........
	70	0.946667	5.29893E-003	-9.75298E-005	0.00000E+000	-5.16804E-007	-5.99601E-002	5.28212E-003	3.57700E+000	9	...........
	71	0.948333	-8.74198E-004	-1.00669E-004	0.00000E+000	8.80046E-008	-5.99601E-002	-8.89169E-004	3.57700E+000	9	...........
STARTTIMEOFFSET	QUANT	556.2651	Start Time Offset (s)
