EXPLAIN
TAG	PWR800_DISCHARGE
TITLE	LABEL	PWR Cyclic Charge Discharge (Cell) - Discharge Step	Test &Identifier
DATE	LABEL	12-7-2017	Date
TIME	LABEL	16:41:42	Time
NOTES	NOTES	2	&Notes...
	supercap test cell
	6M KOH
PSTAT	PSTAT	IFC5000-01520	Potentiostat
CAPACITY	QUANT	1.00000E-003	Capacity (A-hr)
CELLTYPE	SELECTOR	1	&Cell Type
WORKINGCONNECTION	SELECTOR	0	&Working Lead
MAXDISCHARGETIME	VARIABLEANDUNITS	1.00000E+002	s	1.00000E+002	second(s)	Max &Discharge Time
DISCHARGEMODE	MULTIPARAM	0	1.00000E-004	&Discharge Mode	Constant Current	Amp(s)
SAMPLETIME	QUANT	1.00000E-002	Sa&mple Period (s)
DISCHARGESTOPAT1	MULTIPARAM	3	0.00000E+000	Discharge Stop At &1	Voltage < Limit	V
DISCHARGESTOPAT2	MULTIPARAM	0	0.00000E+000	Discharge Stop At &2	None	N/A
AESBHCSELECTOR	TOGGLE	F	Save Both Half Cells
IRCOMP	TOGGLE	F	IR &Measure
EOC	QUANT	0	Open Circuit (V)
SEQUENCER	TOGGLE	TRUE	Run as Sequence
PSTATMODEL	IQUANT	53	Pstat Model
PSTATSECTION	LABEL	IFC5000-01520	Pstat Section
PSTATSERIALNO	LABEL	01520	Pstat Serial Number
CTRLMODE	IQUANT	0	Control Mode
ELECTROMETER	IQUANT	1	RE=0 or CS=1
IESTAB	IQUANT	0	I/E Stability
CASPEED	IQUANT	4	Control Amp Speed
CONVENTION	IQUANT	1	Current Convention
ICHRANGE	IQUANT	2	Ich Range
ICHRANGEMODE	TOGGLE	T	Ich Auto Range
ICHOFFSETENABLE	TOGGLE	F	Ich Offset Enable
ICHOFFSET	QUANT	0	Ich Offset (V)
ICHFILTER	IQUANT	1	Ich Filter
VCHRANGE	IQUANT	2	Vch Range
VCHRANGEMODE	TOGGLE	T	Vch Auto Range
VCHOFFSETENABLE	TOGGLE	F	Vch Offset Enable
VCHOFFSET	QUANT	0	Vch Offset (V)
VCHFILTER	IQUANT	1	Vch Filter
IERANGELOWERLIMIT	IQUANT	9	I/E Range Lower Limit
IERANGEMODE	TOGGLE	F	I/E AutoRange
IERANGE	IQUANT	9	I/E Range
ACHSELECT	IQUANT	1	Ach Select
ACHRANGE	IQUANT	2	Ach Range
ACHOFFSETENABLE	TOGGLE	F	Ach Offset Enable
ACHOFFSET	QUANT	0	Ach Offset (V)
ACHFILTER	IQUANT	1	Ach Filter
CABLEID	IQUANT	14	Cable ID
DCCALDATE	LABEL	5-7-2017	DC Calibration Date
ACCALDATE	LABEL	12/3/2015	AC Calibration Date
FRAMEWORKVERSION	QUANT	7.01	Framework Version
INSTRUMENTVERSION	LABEL	4.00	Instrument Version
CURVE	TABLE	71
	Pt	T	Vf	Im	Vu	Pwr	Sig	Ach	Temp	IERange	Over
	#	s	V	A	V	W	V	V	deg C	#	bits
	0	0.013333	8.44639E-001	-9.88051E-005	0.00000E+000	-8.34546E-005	-5.99601E-002	8.44916E-001	3.57700E+000	9	...........
	1	0.026667	8.31509E-001	-9.85509E-005	0.00000E+000	-8.19459E-005	-5.99601E-002	8.31787E-001	3.57700E+000	9	...........
	2	0.04	8.18970E-001	-9.86103E-005	0.00000E+000	-8.07589E-005	-5.99601E-002	8.19206E-001	3.57700E+000	9	...........
	3	0.053333	8.06805E-001	-9.86905E-005	0.00000E+000	-7.96239E-005	-5.99601E-002	8.07040E-001	3.57700E+000	9	...........
	4	0.066667	7.94934E-001	-9.86082E-005	0.00000E+000	-7.83870E-005	-5.99601E-002	7.95126E-001	3.57700E+000	9	...........
	5	0.08	7.83230E-001	-9.80956E-005	0.00000E+000	-7.68314E-005	-5.99601E-002	7.83417E-001	3.57700E+000	9	...........
	6	0.093333	7.71670E-001	-9.91291E-005	0.00000E+000	-7.64950E-005	-5.99601E-002	7.71885E-001	3.57700E+000	9	...........
	7	0.106667	7.60285E-001	-9.88186E-005	0.00000E+000	-7.51303E-005	-5.99601E-002	7.60470E-001	3.57700E+000	9	...........
	8	0.12	7.48977E-001	-9.89978E-005	0.00000E+000	-7.41471E-005	-5.99601E-002	7.49175E-001	3.57700E+000	9	...........
	9	0.133333	7.37760E-001	-1.00046E-004	0.00000E+000	-7.38100E-005	-5.99601E-002	7.37965E-001	3.57700E+000	9	...........
	10	0.146667	7.26667E-001	-9.81633E-005	0.00000E+000	-7.13321E-005	-5.99601E-002	7.26876E-001	3.57700E+000	9	...........
	11	0.16	7.15636E-001	-9.94021E-005	0.00000E+000	-7.11357E-005	-5.99601E-002	7.15850E-001	3.57700E+000	9	...........
	12	0.173333	7.04704E-001	-9.79372E-005	0.00000E+000	-6.90168E-005	-5.99601E-002	7.04928E-001	3.57700E+000	9	...........
	13	0.186667	6.93814E-001	-9.79862E-005	0.00000E+000	-6.79842E-005	-5.99601E-002	6.94074E-001	3.57700E+000	9	...........
	14	0.2	6.83044E-001	-9.74381E-005	0.00000E+000	-6.65545E-005	-5.99601E-002	6.83262E-001	3.57700E+000	9	...........
	15	0.213333	6.72326E-001	-9.82529E-005	0.00000E+000	-6.60580E-005	-5.99601E-002	6.72554E-001	3.57700E+000	9	...........
	16	0.226667	6.61593E-001	-9.98918E-005	0.00000E+000	-6.60877E-005	-5.99601E-002	6.61853E-001	3.57700E+000	9	...........
	17	0.24	6.50907E-001	-9.80508E-005	0.00000E+000	-6.38219E-005	-5.99601E-002	6.51171E-001	3.57700E+000	9	...........
	18	0.253333	6.40174E-001	-9.82675E-005	0.00000E+000	-6.29083E-005	-5.99601E-002	6.40412E-001	3.57700E+000	9	...........
	19	0.266667	6.29340E-001	-9.79997E-005	0.00000E+000	-6.16752E-005	-5.99601E-002	6.29564E-001	3.57700E+000	9	...........
	20	0.28	6.18366E-001	-9.94729E-005	0.00000E+000	-6.15107E-005	-5.99601E-002	6.18581E-001	3.57700E+000	9	...........
	21	0.293333	6.07168E-001	-9.92781E-005	0.00000E+000	-6.02785E-005	-5.99601E-002	6.07407E-001	3.57700E+000	9	...........
	22	0.306667	5.95848E-001	-9.90854E-005	0.00000E+000	-5.90398E-005	-5.99601E-002	5.96036E-001	3.57700E+000	9	...........
	23	0.32	5.84275E-001	-9.95438E-005	0.00000E+000	-5.81609E-005	-5.99601E-002	5.84497E-001	3.57700E+000	9	...........
	24	0.333333	5.72501E-001	-9.86811E-005	0.00000E+000	-5.64950E-005	-5.99601E-002	5.72725E-001	3.57700E+000	9	...........
	25	0.346667	5.60509E-001	-9.98574E-005	0.00000E+000	-5.59709E-005	-5.99601E-002	5.60759E-001	3.57700E+000	9	...........
	26	0.36	5.48354E-001	-9.91833E-005	0.00000E+000	-5.43876E-005	-5.99601E-002	5.48579E-001	3.57700E+000	9	...........
	27	0.373333	5.36011E-001	-9.92635E-005	0.00000E+000	-5.32063E-005	-5.99601E-002	5.36261E-001	3.57700E+000	9	...........
	28	0.386667	5.23530E-001	-9.80810E-005	0.00000E+000	-5.13483E-005	-5.99601E-002	5.23746E-001	3.57700E+000	9	...........
	29	0.4	5.10886E-001	-9.78038E-005	0.00000E+000	-4.99667E-005	-5.99601E-002	5.11105E-001	3.57700E+000	9	...........
	30	0.413333	4.98121E-001	-9.88364E-005	0.00000E+000	-4.92324E-005	-5.99601E-002	4.98336E-001	3.57700E+000	9	...........
	31	0.426667	4.85355E-001	-9.84321E-005	0.00000E+000	-4.77745E-005	-5.99601E-002	4.85522E-001	3.57700E+000	9	...........
	32	0.44	4.72553E-001	-9.83998E-005	0.00000E+000	-4.64991E-005	-5.99601E-002	4.72651E-001	3.57700E+000	9	...........
	33	0.453333	4.59480E-001	-9.93979E-005	0.00000E+000	-4.56714E-005	-5.99601E-002	4.59575E-001	3.57700E+000	9	...........
	34	0.466667	4.46330E-001	-9.88697E-005	0.00000E+000	-4.41285E-005	-5.99601E-002	4.46429E-001	3.57700E+000	9	...........
	35	0.48	4.33117E-001	-9.87863E-005	0.00000E+000	-4.27861E-005	-5.99601E-002	4.33213E-001	3.57700E+000	9	...........
	36	0.493333	4.19859E-001	-9.98636E-005	0.00000E+000	-4.19287E-005	-5.99601E-002	4.19949E-001	3.57700E+000	9	...........
	37	0.506667	4.06571E-001	-9.81779E-005	0.00000E+000	-3.99163E-005	-5.99601E-002	4.06652E-001	3.57700E+000	9	...........
	38	0.52	3.93259E-001	-9.83217E-005	0.00000E+000	-3.86659E-005	-5.99601E-002	3.93337E-001	3.57700E+000	9	...........
	39	0.533333	3.79925E-001	-9.89134E-005	0.00000E+000	-3.75797E-005	-5.99601E-002	3.80001E-001	3.57700E+000	9	...........
	40	0.546667	3.66595E-001	-9.86269E-005	0.00000E+000	-3.61562E-005	-5.99601E-002	3.66670E-001	3.57700E+000	9	...........
	41	0.56	3.53278E-001	-9.96886E-005	0.00000E+000	-3.52178E-005	-5.99601E-002	3.53346E-001	3.57700E+000	9	...........
	42	0.573333	3.39978E-001	-9.94875E-005	0.00000E+000	-3.38236E-005	-5.99601E-002	3.40049E-001	3.57700E+000	9	...........
	43	0.586667	3.26721E-001	-9.85342E-005	0.00000E+000	-3.21931E-005	-5.99601E-002	3.26783E-001	3.57700E+000	9	...........
	44	0.6	3.13497E-001	-9.72975E-005	0.00000E+000	-3.05025E-005	-5.99601E-002	3.13561E-001	3.57700E+000	9	...........
	45	0.613333	3.00316E-001	-9.86238E-005	0.00000E+000	-2.96183E-005	-5.99601E-002	3.00378E-001	3.57700E+000	9	...........
	46	0.626667	2.87197E-001	-9.89082E-005	0.00000E+000	-2.84062E-005	-5.99601E-002	2.87255E-001	3.57700E+000	9	...........
	47	0.64	2.74129E-001	-9.84477E-005	0.00000E+000	-2.69874E-005	-5.99601E-002	2.74187E-001	3.57700E+000	9	...........
	48	0.653333	2.61127E-001	-9.86915E-005	0.00000E+000	-2.57710E-005	-5.99601E-002	2.61178E-001	3.57700E+000	9	...........
	49	0.666667	2.48192E-001	-9.92646E-005	0.00000E+000	-2.46367E-005	-5.99601E-002	2.48237E-001	3.57700E+000	9	...........
	50	0.68	2.35328E-001	-9.95646E-005	0.00000E+000	-2.34303E-005	-5.99601E-002	2.35366E-001	3.57700E+000	9	...........
	51	0.693333	2.22517E-001	-9.92333E-005	0.00000E+000	-2.20811E-005	-5.99601E-002	2.22559E-001	3.57700E+000	9	...........
	52	0.706667	2.09779E-001	-9.93708E-005	0.00000E+000	-2.08459E-005	-5.99601E-002	2.09817E-001	3.57700E+000	9	...........
	53	0.72	1.97110E-001	-9.76455E-005	0.00000E+000	-1.92469E-005	-5.99601E-002	1.97152E-001	3.57700E+000	9	...........
	54	0.733333	1.84510E-001	-9.89895E-005	0.00000E+000	-1.82645E-005	-5.99601E-002	1.84542E-001	3.57700E+000	9	...........
	55	0.746667	1.71971E-001	-9.73527E-005	0.00000E+000	-1.67419E-005	-5.99601E-002	1.72008E-001	3.57700E+000	9	...........
	56	0.76	1.59516E-001	-9.84894E-005	0.00000E+000	-1.57106E-005	-5.99601E-002	1.59547E-001	3.57734E+000	9	...........
	57	0.773333	1.47119E-001	-9.87134E-005	0.00000E+000	-1.45227E-005	-5.99601E-002	1.47148E-001	3.57790E+000	9	...........
	58	0.786667	1.34791E-001	-1.00197E-004	0.00000E+000	-1.35056E-005	-5.99601E-002	1.34816E-001	3.57790E+000	9	...........
	59	0.8	1.22539E-001	-9.72433E-005	0.00000E+000	-1.19161E-005	-5.99601E-002	1.22562E-001	3.57790E+000	9	...........
	60	0.813333	1.10363E-001	-9.90249E-005	0.00000E+000	-1.09287E-005	-5.99601E-002	1.10385E-001	3.57790E+000	9	...........
	61	0.826667	9.82801E-002	-9.94354E-005	0.00000E+000	-9.77252E-006	-5.99601E-002	9.83002E-002	3.57790E+000	9	...........
	62	0.84	8.62986E-002	-9.91760E-005	0.00000E+000	-8.55875E-006	-5.99601E-002	8.63143E-002	3.57790E+000	9	...........
	63	0.853333	7.44166E-002	-9.93656E-005	0.00000E+000	-7.39445E-006	-5.99601E-002	7.44257E-002	3.57790E+000	9	...........
	64	0.866667	6.26354E-002	-9.81070E-005	0.00000E+000	-6.14497E-006	-5.99601E-002	6.26459E-002	3.57790E+000	9	...........
	65	0.88	5.09917E-002	-9.83748E-005	0.00000E+000	-5.01630E-006	-5.99601E-002	5.09928E-002	3.57790E+000	9	...........
	66	0.893333	3.95071E-002	-9.87790E-005	0.00000E+000	-3.90247E-006	-5.99601E-002	3.95124E-002	3.57790E+000	9	...........
	67	0.906667	2.81442E-002	-9.86769E-005	0.00000E+000	-2.77718E-006	-5.99601E-002	2.81426E-002	3.57790E+000	9	...........
	68	0.92	1.69425E-002	-9.85154E-005	0.00000E+000	-1.66910E-006	-5.99601E-002	1.69325E-002	3.57790E+000	9	...........
	69	0.933333	5.90321E-003	-9.94198E-005	0.00000E+000	-5.86896E-007	-5.99601E-002	5.88296E-003	3.57790E+000	9	...........
	70	0.935	-2.41601E-004	-9.97772E-005	0.00000E+000	2.41062E-008	-5.99601E-002	-2.69189E-004	3.57790E+000	9	...........
STARTTIMEOFFSET	QUANT	1351.036	Start Time Offset (s)
