EXPLAIN
TAG	PWR800_DISCHARGE
TITLE	LABEL	PWR Cyclic Charge Discharge (Cell) - Discharge Step	Test &Identifier
DATE	LABEL	12-7-2017	Date
TIME	LABEL	16:37:57	Time
NOTES	NOTES	2	&Notes...
	supercap test cell
	6M KOH
PSTAT	PSTAT	IFC5000-01520	Potentiostat
CAPACITY	QUANT	1.00000E-003	Capacity (A-hr)
CELLTYPE	SELECTOR	1	&Cell Type
WORKINGCONNECTION	SELECTOR	0	&Working Lead
MAXDISCHARGETIME	VARIABLEANDUNITS	1.00000E+002	s	1.00000E+002	second(s)	Max &Discharge Time
DISCHARGEMODE	MULTIPARAM	0	1.00000E-004	&Discharge Mode	Constant Current	Amp(s)
SAMPLETIME	QUANT	1.00000E-002	Sa&mple Period (s)
DISCHARGESTOPAT1	MULTIPARAM	3	0.00000E+000	Discharge Stop At &1	Voltage < Limit	V
DISCHARGESTOPAT2	MULTIPARAM	0	0.00000E+000	Discharge Stop At &2	None	N/A
AESBHCSELECTOR	TOGGLE	F	Save Both Half Cells
IRCOMP	TOGGLE	F	IR &Measure
EOC	QUANT	0	Open Circuit (V)
SEQUENCER	TOGGLE	TRUE	Run as Sequence
PSTATMODEL	IQUANT	53	Pstat Model
PSTATSECTION	LABEL	IFC5000-01520	Pstat Section
PSTATSERIALNO	LABEL	01520	Pstat Serial Number
CTRLMODE	IQUANT	0	Control Mode
ELECTROMETER	IQUANT	1	RE=0 or CS=1
IESTAB	IQUANT	0	I/E Stability
CASPEED	IQUANT	4	Control Amp Speed
CONVENTION	IQUANT	1	Current Convention
ICHRANGE	IQUANT	2	Ich Range
ICHRANGEMODE	TOGGLE	T	Ich Auto Range
ICHOFFSETENABLE	TOGGLE	F	Ich Offset Enable
ICHOFFSET	QUANT	0	Ich Offset (V)
ICHFILTER	IQUANT	1	Ich Filter
VCHRANGE	IQUANT	2	Vch Range
VCHRANGEMODE	TOGGLE	T	Vch Auto Range
VCHOFFSETENABLE	TOGGLE	F	Vch Offset Enable
VCHOFFSET	QUANT	0	Vch Offset (V)
VCHFILTER	IQUANT	1	Vch Filter
IERANGELOWERLIMIT	IQUANT	9	I/E Range Lower Limit
IERANGEMODE	TOGGLE	F	I/E AutoRange
IERANGE	IQUANT	9	I/E Range
ACHSELECT	IQUANT	1	Ach Select
ACHRANGE	IQUANT	2	Ach Range
ACHOFFSETENABLE	TOGGLE	F	Ach Offset Enable
ACHOFFSET	QUANT	0	Ach Offset (V)
ACHFILTER	IQUANT	1	Ach Filter
CABLEID	IQUANT	14	Cable ID
DCCALDATE	LABEL	5-7-2017	DC Calibration Date
ACCALDATE	LABEL	12/3/2015	AC Calibration Date
FRAMEWORKVERSION	QUANT	7.01	Framework Version
INSTRUMENTVERSION	LABEL	4.00	Instrument Version
CURVE	TABLE	71
	Pt	T	Vf	Im	Vu	Pwr	Sig	Ach	Temp	IERange	Over
	#	s	V	A	V	W	V	V	deg C	#	bits
	0	0.013333	8.44466E-001	-9.89999E-005	0.00000E+000	-8.36021E-005	-5.99601E-002	8.44783E-001	3.57710E+000	9	...........
	1	0.026667	8.31387E-001	-9.83467E-005	0.00000E+000	-8.17642E-005	-5.99601E-002	8.31695E-001	3.57710E+000	9	...........
	2	0.04	8.18902E-001	-9.91239E-005	0.00000E+000	-8.11727E-005	-5.99601E-002	8.19213E-001	3.57710E+000	9	...........
	3	0.053333	8.06801E-001	-9.81143E-005	0.00000E+000	-7.91587E-005	-5.99601E-002	8.07058E-001	3.57710E+000	9	...........
	4	0.066667	7.94940E-001	-9.96105E-005	0.00000E+000	-7.91844E-005	-5.99601E-002	7.95216E-001	3.57710E+000	9	...........
	5	0.08	7.83296E-001	-9.86269E-005	0.00000E+000	-7.72541E-005	-5.99601E-002	7.83560E-001	3.57710E+000	9	...........
	6	0.093333	7.71809E-001	-9.84915E-005	0.00000E+000	-7.60166E-005	-5.99601E-002	7.72070E-001	3.57710E+000	9	...........
	7	0.106667	7.60427E-001	-9.85009E-005	0.00000E+000	-7.49028E-005	-5.99601E-002	7.60696E-001	3.57710E+000	9	...........
	8	0.12	7.49176E-001	-9.89812E-005	0.00000E+000	-7.41543E-005	-5.99601E-002	7.49424E-001	3.57710E+000	9	...........
	9	0.133333	7.38017E-001	-9.80685E-005	0.00000E+000	-7.23762E-005	-5.99601E-002	7.38273E-001	3.57710E+000	9	...........
	10	0.146667	7.26976E-001	-9.84456E-005	0.00000E+000	-7.15677E-005	-5.99601E-002	7.27231E-001	3.57710E+000	9	...........
	11	0.16	7.16004E-001	-9.95240E-005	0.00000E+000	-7.12595E-005	-5.99601E-002	7.16248E-001	3.57710E+000	9	...........
	12	0.173333	7.05108E-001	-9.89176E-005	0.00000E+000	-6.97476E-005	-5.99601E-002	7.05363E-001	3.57710E+000	9	...........
	13	0.186667	6.94306E-001	-9.87874E-005	0.00000E+000	-6.85886E-005	-5.99601E-002	6.94550E-001	3.57710E+000	9	...........
	14	0.2	6.83574E-001	-9.92625E-005	0.00000E+000	-6.78533E-005	-5.99601E-002	6.83810E-001	3.57710E+000	9	...........
	15	0.213333	6.72915E-001	-9.90822E-005	0.00000E+000	-6.66739E-005	-5.99601E-002	6.73128E-001	3.57710E+000	9	...........
	16	0.226667	6.62237E-001	-9.78476E-005	0.00000E+000	-6.47983E-005	-5.99601E-002	6.62478E-001	3.57710E+000	9	...........
	17	0.24	6.51563E-001	-9.97865E-005	0.00000E+000	-6.50173E-005	-5.99601E-002	6.51788E-001	3.57710E+000	9	...........
	18	0.253333	6.40822E-001	-9.95490E-005	0.00000E+000	-6.37932E-005	-5.99601E-002	6.41061E-001	3.57710E+000	9	...........
	19	0.266667	6.29996E-001	-9.82644E-005	0.00000E+000	-6.19061E-005	-5.99601E-002	6.30224E-001	3.57710E+000	9	...........
	20	0.28	6.19029E-001	-9.86269E-005	0.00000E+000	-6.10529E-005	-5.99601E-002	6.19231E-001	3.57710E+000	9	...........
	21	0.293333	6.07821E-001	-9.79341E-005	0.00000E+000	-5.95264E-005	-5.99601E-002	6.08066E-001	3.57710E+000	9	...........
	22	0.306667	5.96473E-001	-9.89874E-005	0.00000E+000	-5.90433E-005	-5.99601E-002	5.96692E-001	3.57710E+000	9	...........
	23	0.32	5.84883E-001	-9.86342E-005	0.00000E+000	-5.76894E-005	-5.99601E-002	5.85126E-001	3.57710E+000	9	...........
	24	0.333333	5.73143E-001	-9.95594E-005	0.00000E+000	-5.70618E-005	-5.99601E-002	5.73348E-001	3.57710E+000	9	...........
	25	0.346667	5.61171E-001	-9.85946E-005	0.00000E+000	-5.53285E-005	-5.99601E-002	5.61393E-001	3.57710E+000	9	...........
	26	0.36	5.49042E-001	-9.86978E-005	0.00000E+000	-5.41892E-005	-5.99601E-002	5.49236E-001	3.57710E+000	9	...........
	27	0.373333	5.36697E-001	-9.81529E-005	0.00000E+000	-5.26784E-005	-5.99601E-002	5.36925E-001	3.57710E+000	9	...........
	28	0.386667	5.24238E-001	-9.97751E-005	0.00000E+000	-5.23059E-005	-5.99601E-002	5.24434E-001	3.57710E+000	9	...........
	29	0.4	5.11614E-001	-9.76601E-005	0.00000E+000	-4.99643E-005	-5.99601E-002	5.11835E-001	3.57710E+000	9	...........
	30	0.413333	4.98868E-001	-9.72964E-005	0.00000E+000	-4.85381E-005	-5.99601E-002	4.99094E-001	3.57710E+000	9	...........
	31	0.426667	4.86163E-001	-9.81508E-005	0.00000E+000	-4.77173E-005	-5.99601E-002	4.86301E-001	3.57710E+000	9	...........
	32	0.44	4.73428E-001	-9.92927E-005	0.00000E+000	-4.70079E-005	-5.99601E-002	4.73527E-001	3.57710E+000	9	...........
	33	0.453333	4.60402E-001	-9.79924E-005	0.00000E+000	-4.51159E-005	-5.99601E-002	4.60496E-001	3.57710E+000	9	...........
	34	0.466667	4.47301E-001	-9.93167E-005	0.00000E+000	-4.44244E-005	-5.99601E-002	4.47401E-001	3.57710E+000	9	...........
	35	0.48	4.34152E-001	-9.81029E-005	0.00000E+000	-4.25915E-005	-5.99601E-002	4.34246E-001	3.57710E+000	9	...........
	36	0.493333	4.20955E-001	-9.87884E-005	0.00000E+000	-4.15855E-005	-5.99601E-002	4.21049E-001	3.57710E+000	9	...........
	37	0.506667	4.07732E-001	-9.90885E-005	0.00000E+000	-4.04015E-005	-5.99601E-002	4.07814E-001	3.57710E+000	9	...........
	38	0.52	3.94479E-001	-9.84759E-005	0.00000E+000	-3.88467E-005	-5.99601E-002	3.94559E-001	3.57710E+000	9	...........
	39	0.533333	3.81217E-001	-9.93885E-005	0.00000E+000	-3.78886E-005	-5.99601E-002	3.81298E-001	3.57710E+000	9	...........
	40	0.546667	3.67960E-001	-9.81914E-005	0.00000E+000	-3.61305E-005	-5.99601E-002	3.68036E-001	3.57710E+000	9	...........
	41	0.56	3.54715E-001	-9.73642E-005	0.00000E+000	-3.45365E-005	-5.99601E-002	3.54790E-001	3.57710E+000	9	...........
	42	0.573333	3.41491E-001	-9.89489E-005	0.00000E+000	-3.37902E-005	-5.99601E-002	3.41564E-001	3.57710E+000	9	...........
	43	0.586667	3.28299E-001	-9.98845E-005	0.00000E+000	-3.27920E-005	-5.99601E-002	3.28371E-001	3.57710E+000	9	...........
	44	0.6	3.15155E-001	-9.86571E-005	0.00000E+000	-3.10923E-005	-5.99601E-002	3.15228E-001	3.57710E+000	9	...........
	45	0.613333	3.02047E-001	-9.89801E-005	0.00000E+000	-2.98967E-005	-5.99601E-002	3.02114E-001	3.57710E+000	9	...........
	46	0.626667	2.88998E-001	-9.79372E-005	0.00000E+000	-2.83037E-005	-5.99601E-002	2.89061E-001	3.57710E+000	9	...........
	47	0.64	2.76007E-001	-9.88509E-005	0.00000E+000	-2.72836E-005	-5.99601E-002	2.76069E-001	3.57710E+000	9	...........
	48	0.653333	2.63067E-001	-9.83925E-005	0.00000E+000	-2.58838E-005	-5.99601E-002	2.63124E-001	3.57710E+000	9	...........
	49	0.666667	2.50183E-001	-9.81831E-005	0.00000E+000	-2.45638E-005	-5.99601E-002	2.50244E-001	3.57710E+000	9	...........
	50	0.68	2.37386E-001	-9.91750E-005	0.00000E+000	-2.35427E-005	-5.99601E-002	2.37433E-001	3.57710E+000	9	...........
	51	0.693333	2.24647E-001	-9.85967E-005	0.00000E+000	-2.21495E-005	-5.99601E-002	2.24692E-001	3.57710E+000	9	...........
	52	0.706667	2.11968E-001	-9.78403E-005	0.00000E+000	-2.07390E-005	-5.99601E-002	2.12006E-001	3.57710E+000	9	...........
	53	0.72	1.99353E-001	-9.89176E-005	0.00000E+000	-1.97196E-005	-5.99601E-002	1.99396E-001	3.57710E+000	9	...........
	54	0.733333	1.86811E-001	-9.90124E-005	0.00000E+000	-1.84966E-005	-5.99601E-002	1.86851E-001	3.57710E+000	9	...........
	55	0.746667	1.74325E-001	-9.90479E-005	0.00000E+000	-1.72665E-005	-5.99601E-002	1.74363E-001	3.57710E+000	9	...........
	56	0.76	1.61905E-001	-9.83946E-005	0.00000E+000	-1.59306E-005	-5.99601E-002	1.61936E-001	3.57710E+000	9	...........
	57	0.773333	1.49548E-001	-9.92375E-005	0.00000E+000	-1.48408E-005	-5.99601E-002	1.49575E-001	3.57710E+000	9	...........
	58	0.786667	1.37259E-001	-9.81435E-005	0.00000E+000	-1.34711E-005	-5.99601E-002	1.37289E-001	3.57790E+000	9	...........
	59	0.8	1.25037E-001	-9.91197E-005	0.00000E+000	-1.23937E-005	-5.99601E-002	1.25058E-001	3.57790E+000	9	...........
	60	0.813333	1.12892E-001	-9.80466E-005	0.00000E+000	-1.10687E-005	-5.99601E-002	1.12914E-001	3.57790E+000	9	...........
	61	0.826667	1.00824E-001	-9.89207E-005	0.00000E+000	-9.97363E-006	-5.99601E-002	1.00842E-001	3.57790E+000	9	...........
	62	0.84	8.88427E-002	-9.90812E-005	0.00000E+000	-8.80264E-006	-5.99601E-002	8.88623E-002	3.57790E+000	9	...........
	63	0.853333	7.69727E-002	-9.85936E-005	0.00000E+000	-7.58901E-006	-5.99601E-002	7.69915E-002	3.57790E+000	9	...........
	64	0.866667	6.52061E-002	-1.00088E-004	0.00000E+000	-6.52633E-006	-5.99601E-002	6.52135E-002	3.57790E+000	9	...........
	65	0.88	5.35565E-002	-9.84248E-005	0.00000E+000	-5.27129E-006	-5.99601E-002	5.35663E-002	3.57790E+000	9	...........
	66	0.893333	4.20789E-002	-9.98980E-005	0.00000E+000	-4.20359E-006	-5.99601E-002	4.20844E-002	3.57790E+000	9	...........
	67	0.906667	3.07096E-002	-9.83852E-005	0.00000E+000	-3.02138E-006	-5.99601E-002	3.07073E-002	3.57790E+000	9	...........
	68	0.92	1.94880E-002	-9.85842E-005	0.00000E+000	-1.92121E-006	-5.99601E-002	1.94816E-002	3.57790E+000	9	...........
	69	0.933333	8.41969E-003	-9.84759E-005	0.00000E+000	-8.29137E-007	-5.99601E-002	8.40406E-003	3.57790E+000	9	...........
	70	0.938333	9.06698E-004	-1.00033E-004	0.00000E+000	-9.06995E-008	-5.99601E-002	8.87546E-004	3.57790E+000	9	...........
STARTTIMEOFFSET	QUANT	1192.3	Start Time Offset (s)
