EXPLAIN
TAG	PWR800_DISCHARGE
TITLE	LABEL	PWR Cyclic Charge Discharge (Cell) - Discharge Step	Test &Identifier
DATE	LABEL	12-7-2017	Date
TIME	LABEL	16:41:29	Time
NOTES	NOTES	2	&Notes...
	supercap test cell
	6M KOH
PSTAT	PSTAT	IFC5000-01520	Potentiostat
CAPACITY	QUANT	1.00000E-003	Capacity (A-hr)
CELLTYPE	SELECTOR	1	&Cell Type
WORKINGCONNECTION	SELECTOR	0	&Working Lead
MAXDISCHARGETIME	VARIABLEANDUNITS	1.00000E+002	s	1.00000E+002	second(s)	Max &Discharge Time
DISCHARGEMODE	MULTIPARAM	0	1.00000E-004	&Discharge Mode	Constant Current	Amp(s)
SAMPLETIME	QUANT	1.00000E-002	Sa&mple Period (s)
DISCHARGESTOPAT1	MULTIPARAM	3	0.00000E+000	Discharge Stop At &1	Voltage < Limit	V
DISCHARGESTOPAT2	MULTIPARAM	0	0.00000E+000	Discharge Stop At &2	None	N/A
AESBHCSELECTOR	TOGGLE	F	Save Both Half Cells
IRCOMP	TOGGLE	F	IR &Measure
EOC	QUANT	0	Open Circuit (V)
SEQUENCER	TOGGLE	TRUE	Run as Sequence
PSTATMODEL	IQUANT	53	Pstat Model
PSTATSECTION	LABEL	IFC5000-01520	Pstat Section
PSTATSERIALNO	LABEL	01520	Pstat Serial Number
CTRLMODE	IQUANT	0	Control Mode
ELECTROMETER	IQUANT	1	RE=0 or CS=1
IESTAB	IQUANT	0	I/E Stability
CASPEED	IQUANT	4	Control Amp Speed
CONVENTION	IQUANT	1	Current Convention
ICHRANGE	IQUANT	2	Ich Range
ICHRANGEMODE	TOGGLE	T	Ich Auto Range
ICHOFFSETENABLE	TOGGLE	F	Ich Offset Enable
ICHOFFSET	QUANT	0	Ich Offset (V)
ICHFILTER	IQUANT	1	Ich Filter
VCHRANGE	IQUANT	2	Vch Range
VCHRANGEMODE	TOGGLE	T	Vch Auto Range
VCHOFFSETENABLE	TOGGLE	F	Vch Offset Enable
VCHOFFSET	QUANT	0	Vch Offset (V)
VCHFILTER	IQUANT	1	Vch Filter
IERANGELOWERLIMIT	IQUANT	9	I/E Range Lower Limit
IERANGEMODE	TOGGLE	F	I/E AutoRange
IERANGE	IQUANT	9	I/E Range
ACHSELECT	IQUANT	1	Ach Select
ACHRANGE	IQUANT	2	Ach Range
ACHOFFSETENABLE	TOGGLE	F	Ach Offset Enable
ACHOFFSET	QUANT	0	Ach Offset (V)
ACHFILTER	IQUANT	1	Ach Filter
CABLEID	IQUANT	14	Cable ID
DCCALDATE	LABEL	5-7-2017	DC Calibration Date
ACCALDATE	LABEL	12/3/2015	AC Calibration Date
FRAMEWORKVERSION	QUANT	7.01	Framework Version
INSTRUMENTVERSION	LABEL	4.00	Instrument Version
CURVE	TABLE	71
	Pt	T	Vf	Im	Vu	Pwr	Sig	Ach	Temp	IERange	Over
	#	s	V	A	V	W	V	V	deg C	#	bits
	0	0.013333	8.45695E-001	-9.85207E-005	0.00000E+000	-8.33185E-005	-5.99601E-002	8.45971E-001	3.57780E+000	9	...........
	1	0.026667	8.32578E-001	-9.82414E-005	0.00000E+000	-8.17936E-005	-5.99601E-002	8.32832E-001	3.57780E+000	9	...........
	2	0.04	8.20040E-001	-9.85134E-005	0.00000E+000	-8.07849E-005	-5.99601E-002	8.20313E-001	3.57780E+000	9	...........
	3	0.053333	8.07889E-001	-9.85519E-005	0.00000E+000	-7.96190E-005	-5.99601E-002	8.08122E-001	3.57780E+000	9	...........
	4	0.066667	7.96013E-001	-9.87540E-005	0.00000E+000	-7.86095E-005	-5.99601E-002	7.96220E-001	3.57780E+000	9	...........
	5	0.08	7.84285E-001	-9.88363E-005	0.00000E+000	-7.75159E-005	-5.99601E-002	7.84517E-001	3.57780E+000	9	...........
	6	0.093333	7.72763E-001	-9.89155E-005	0.00000E+000	-7.64383E-005	-5.99601E-002	7.72992E-001	3.57780E+000	9	...........
	7	0.106667	7.61354E-001	-1.00335E-004	0.00000E+000	-7.63901E-005	-5.99601E-002	7.61562E-001	3.57780E+000	9	...........
	8	0.12	7.50054E-001	-9.83258E-005	0.00000E+000	-7.37496E-005	-5.99601E-002	7.50284E-001	3.57780E+000	9	...........
	9	0.133333	7.38848E-001	-9.94917E-005	0.00000E+000	-7.35093E-005	-5.99601E-002	7.39079E-001	3.57780E+000	9	...........
	10	0.146667	7.27740E-001	-9.75194E-005	0.00000E+000	-7.09688E-005	-5.99601E-002	7.27986E-001	3.57780E+000	9	...........
	11	0.16	7.16723E-001	-9.81977E-005	0.00000E+000	-7.03805E-005	-5.99601E-002	7.16960E-001	3.57780E+000	9	...........
	12	0.173333	7.05788E-001	-9.96032E-005	0.00000E+000	-7.02988E-005	-5.99601E-002	7.06049E-001	3.57780E+000	9	...........
	13	0.186667	6.94929E-001	-9.83988E-005	0.00000E+000	-6.83802E-005	-5.99601E-002	6.95180E-001	3.57780E+000	9	...........
	14	0.2	6.84163E-001	-9.71412E-005	0.00000E+000	-6.64604E-005	-5.99601E-002	6.84405E-001	3.57780E+000	9	...........
	15	0.213333	6.73435E-001	-9.92719E-005	0.00000E+000	-6.68532E-005	-5.99601E-002	6.73690E-001	3.57780E+000	9	...........
	16	0.226667	6.62740E-001	-9.77913E-005	0.00000E+000	-6.48102E-005	-5.99601E-002	6.62992E-001	3.57780E+000	9	...........
	17	0.24	6.52065E-001	-9.81737E-005	0.00000E+000	-6.40156E-005	-5.99601E-002	6.52307E-001	3.57780E+000	9	...........
	18	0.253333	6.41355E-001	-9.75621E-005	0.00000E+000	-6.25719E-005	-5.99601E-002	6.41588E-001	3.57780E+000	9	...........
	19	0.266667	6.30542E-001	-9.91520E-005	0.00000E+000	-6.25195E-005	-5.99601E-002	6.30773E-001	3.57780E+000	9	...........
	20	0.28	6.19612E-001	-9.85780E-005	0.00000E+000	-6.10801E-005	-5.99601E-002	6.19811E-001	3.57780E+000	9	...........
	21	0.293333	6.08398E-001	-9.99230E-005	0.00000E+000	-6.07929E-005	-5.99601E-002	6.08682E-001	3.57780E+000	9	...........
	22	0.306667	5.97121E-001	-9.83383E-005	0.00000E+000	-5.87199E-005	-5.99601E-002	5.97348E-001	3.57780E+000	9	...........
	23	0.32	5.85574E-001	-9.81831E-005	0.00000E+000	-5.74935E-005	-5.99601E-002	5.85806E-001	3.57780E+000	9	...........
	24	0.333333	5.73826E-001	-9.92562E-005	0.00000E+000	-5.69558E-005	-5.99601E-002	5.74057E-001	3.57780E+000	9	...........
	25	0.346667	5.61869E-001	-9.83602E-005	0.00000E+000	-5.52656E-005	-5.99601E-002	5.62120E-001	3.57780E+000	9	...........
	26	0.36	5.49751E-001	-9.99157E-005	0.00000E+000	-5.49288E-005	-5.99601E-002	5.49974E-001	3.57780E+000	9	...........
	27	0.373333	5.37439E-001	-9.87113E-005	0.00000E+000	-5.30513E-005	-5.99601E-002	5.37670E-001	3.57780E+000	9	...........
	28	0.386667	5.24950E-001	-9.85873E-005	0.00000E+000	-5.17535E-005	-5.99601E-002	5.25176E-001	3.57780E+000	9	...........
	29	0.4	5.12347E-001	-9.83071E-005	0.00000E+000	-5.03673E-005	-5.99601E-002	5.12561E-001	3.57728E+000	9	...........
	30	0.413333	4.99566E-001	-9.91083E-005	0.00000E+000	-4.95111E-005	-5.99601E-002	4.99805E-001	3.57640E+000	9	...........
	31	0.426667	4.86821E-001	-9.81820E-005	0.00000E+000	-4.77971E-005	-5.99601E-002	4.86999E-001	3.57640E+000	9	...........
	32	0.44	4.74058E-001	-9.89062E-005	0.00000E+000	-4.68872E-005	-5.99601E-002	4.74162E-001	3.57640E+000	9	...........
	33	0.453333	4.61002E-001	-9.87426E-005	0.00000E+000	-4.55205E-005	-5.99601E-002	4.61097E-001	3.57640E+000	9	...........
	34	0.466667	4.47862E-001	-9.88739E-005	0.00000E+000	-4.42818E-005	-5.99601E-002	4.47957E-001	3.57640E+000	9	...........
	35	0.48	4.34666E-001	-9.99355E-005	0.00000E+000	-4.34386E-005	-5.99601E-002	4.34760E-001	3.57640E+000	9	...........
	36	0.493333	4.21430E-001	-9.82904E-005	0.00000E+000	-4.14225E-005	-5.99601E-002	4.21519E-001	3.57640E+000	9	...........
	37	0.506667	4.08151E-001	-9.74944E-005	0.00000E+000	-3.97925E-005	-5.99601E-002	4.08239E-001	3.57640E+000	9	...........
	38	0.52	3.94844E-001	-9.89708E-005	0.00000E+000	-3.90780E-005	-5.99601E-002	3.94920E-001	3.57640E+000	9	...........
	39	0.533333	3.81530E-001	-9.78268E-005	0.00000E+000	-3.73238E-005	-5.99601E-002	3.81603E-001	3.57640E+000	9	...........
	40	0.546667	3.68212E-001	-9.82216E-005	0.00000E+000	-3.61664E-005	-5.99601E-002	3.68285E-001	3.57640E+000	9	...........
	41	0.56	3.54901E-001	-9.88937E-005	0.00000E+000	-3.50974E-005	-5.99601E-002	3.54966E-001	3.57640E+000	9	...........
	42	0.573333	3.41608E-001	-9.64765E-005	0.00000E+000	-3.29571E-005	-5.99601E-002	3.41677E-001	3.57640E+000	9	...........
	43	0.586667	3.28356E-001	-9.81373E-005	0.00000E+000	-3.22239E-005	-5.99601E-002	3.28418E-001	3.57640E+000	9	...........
	44	0.6	3.15131E-001	-9.87926E-005	0.00000E+000	-3.11327E-005	-5.99601E-002	3.15196E-001	3.57640E+000	9	...........
	45	0.613333	3.01967E-001	-9.87916E-005	0.00000E+000	-2.98317E-005	-5.99601E-002	3.02022E-001	3.57640E+000	9	...........
	46	0.626667	2.88841E-001	-9.96782E-005	0.00000E+000	-2.87911E-005	-5.99601E-002	2.88906E-001	3.57640E+000	9	...........
	47	0.64	2.75780E-001	-9.82331E-005	0.00000E+000	-2.70908E-005	-5.99601E-002	2.75838E-001	3.57640E+000	9	...........
	48	0.653333	2.62775E-001	-9.88655E-005	0.00000E+000	-2.59794E-005	-5.99601E-002	2.62834E-001	3.57640E+000	9	...........
	49	0.666667	2.49841E-001	-9.97970E-005	0.00000E+000	-2.49334E-005	-5.99601E-002	2.49896E-001	3.57640E+000	9	...........
	50	0.68	2.36982E-001	-9.85102E-005	0.00000E+000	-2.33451E-005	-5.99601E-002	2.37024E-001	3.57640E+000	9	...........
	51	0.693333	2.24181E-001	-9.82873E-005	0.00000E+000	-2.20342E-005	-5.99601E-002	2.24224E-001	3.57640E+000	9	...........
	52	0.706667	2.11446E-001	-9.92666E-005	0.00000E+000	-2.09895E-005	-5.99601E-002	2.11482E-001	3.57640E+000	9	...........
	53	0.72	1.98776E-001	-9.85280E-005	0.00000E+000	-1.95850E-005	-5.99601E-002	1.98816E-001	3.57640E+000	9	...........
	54	0.733333	1.86179E-001	-9.89499E-005	0.00000E+000	-1.84224E-005	-5.99601E-002	1.86215E-001	3.57640E+000	9	...........
	55	0.746667	1.73648E-001	-9.75444E-005	0.00000E+000	-1.69384E-005	-5.99601E-002	1.73682E-001	3.57640E+000	9	...........
	56	0.76	1.61185E-001	-9.79028E-005	0.00000E+000	-1.57805E-005	-5.99601E-002	1.61215E-001	3.57640E+000	9	...........
	57	0.773333	1.48797E-001	-9.80414E-005	0.00000E+000	-1.45883E-005	-5.99601E-002	1.48820E-001	3.57640E+000	9	...........
	58	0.786667	1.36471E-001	-9.88093E-005	0.00000E+000	-1.34846E-005	-5.99601E-002	1.36490E-001	3.57640E+000	9	...........
	59	0.8	1.24208E-001	-1.00454E-004	0.00000E+000	-1.24773E-005	-5.99601E-002	1.24233E-001	3.57640E+000	9	...........
	60	0.813333	1.12037E-001	-9.92333E-005	0.00000E+000	-1.11178E-005	-5.99601E-002	1.12056E-001	3.57640E+000	9	...........
	61	0.826667	9.99357E-002	-9.94500E-005	0.00000E+000	-9.93861E-006	-5.99601E-002	9.99551E-002	3.57640E+000	9	...........
	62	0.84	8.79392E-002	-9.86676E-005	0.00000E+000	-8.67675E-006	-5.99601E-002	8.79547E-002	3.57640E+000	9	...........
	63	0.853333	7.60458E-002	-9.78434E-005	0.00000E+000	-7.44058E-006	-5.99601E-002	7.60569E-002	3.57640E+000	9	...........
	64	0.866667	6.42623E-002	-9.87217E-005	0.00000E+000	-6.34408E-006	-5.99601E-002	6.42654E-002	3.57640E+000	9	...........
	65	0.88	5.26093E-002	-9.95240E-005	0.00000E+000	-5.23589E-006	-5.99601E-002	5.26114E-002	3.57640E+000	9	...........
	66	0.893333	4.11172E-002	-9.95271E-005	0.00000E+000	-4.09228E-006	-5.99601E-002	4.11189E-002	3.57640E+000	9	...........
	67	0.906667	2.97469E-002	-9.84321E-005	0.00000E+000	-2.92805E-006	-5.99601E-002	2.97462E-002	3.57640E+000	9	...........
	68	0.92	1.85274E-002	-9.92031E-005	0.00000E+000	-1.83797E-006	-5.99601E-002	1.85207E-002	3.57640E+000	9	...........
	69	0.933333	7.47598E-003	-9.81560E-005	0.00000E+000	-7.33812E-007	-5.99601E-002	7.45722E-003	3.57640E+000	9	...........
	70	0.936667	6.57240E-004	-9.52137E-005	0.00000E+000	-6.25783E-008	-5.99601E-002	6.31849E-004	3.57640E+000	9	...........
STARTTIMEOFFSET	QUANT	1341.369	Start Time Offset (s)
