EXPLAIN
TAG	PWR800_DISCHARGE
TITLE	LABEL	PWR Cyclic Charge Discharge (Cell) - Discharge Step	Test &Identifier
DATE	LABEL	12-7-2017	Date
TIME	LABEL	16:41:10	Time
NOTES	NOTES	2	&Notes...
	supercap test cell
	6M KOH
PSTAT	PSTAT	IFC5000-01520	Potentiostat
CAPACITY	QUANT	1.00000E-003	Capacity (A-hr)
CELLTYPE	SELECTOR	1	&Cell Type
WORKINGCONNECTION	SELECTOR	0	&Working Lead
MAXDISCHARGETIME	VARIABLEANDUNITS	1.00000E+002	s	1.00000E+002	second(s)	Max &Discharge Time
DISCHARGEMODE	MULTIPARAM	0	1.00000E-004	&Discharge Mode	Constant Current	Amp(s)
SAMPLETIME	QUANT	1.00000E-002	Sa&mple Period (s)
DISCHARGESTOPAT1	MULTIPARAM	3	0.00000E+000	Discharge Stop At &1	Voltage < Limit	V
DISCHARGESTOPAT2	MULTIPARAM	0	0.00000E+000	Discharge Stop At &2	None	N/A
AESBHCSELECTOR	TOGGLE	F	Save Both Half Cells
IRCOMP	TOGGLE	F	IR &Measure
EOC	QUANT	0	Open Circuit (V)
SEQUENCER	TOGGLE	TRUE	Run as Sequence
PSTATMODEL	IQUANT	53	Pstat Model
PSTATSECTION	LABEL	IFC5000-01520	Pstat Section
PSTATSERIALNO	LABEL	01520	Pstat Serial Number
CTRLMODE	IQUANT	0	Control Mode
ELECTROMETER	IQUANT	1	RE=0 or CS=1
IESTAB	IQUANT	0	I/E Stability
CASPEED	IQUANT	4	Control Amp Speed
CONVENTION	IQUANT	1	Current Convention
ICHRANGE	IQUANT	2	Ich Range
ICHRANGEMODE	TOGGLE	T	Ich Auto Range
ICHOFFSETENABLE	TOGGLE	F	Ich Offset Enable
ICHOFFSET	QUANT	0	Ich Offset (V)
ICHFILTER	IQUANT	1	Ich Filter
VCHRANGE	IQUANT	2	Vch Range
VCHRANGEMODE	TOGGLE	T	Vch Auto Range
VCHOFFSETENABLE	TOGGLE	F	Vch Offset Enable
VCHOFFSET	QUANT	0	Vch Offset (V)
VCHFILTER	IQUANT	1	Vch Filter
IERANGELOWERLIMIT	IQUANT	9	I/E Range Lower Limit
IERANGEMODE	TOGGLE	F	I/E AutoRange
IERANGE	IQUANT	9	I/E Range
ACHSELECT	IQUANT	1	Ach Select
ACHRANGE	IQUANT	2	Ach Range
ACHOFFSETENABLE	TOGGLE	F	Ach Offset Enable
ACHOFFSET	QUANT	0	Ach Offset (V)
ACHFILTER	IQUANT	1	Ach Filter
CABLEID	IQUANT	14	Cable ID
DCCALDATE	LABEL	5-7-2017	DC Calibration Date
ACCALDATE	LABEL	12/3/2015	AC Calibration Date
FRAMEWORKVERSION	QUANT	7.01	Framework Version
INSTRUMENTVERSION	LABEL	4.00	Instrument Version
CURVE	TABLE	71
	Pt	T	Vf	Im	Vu	Pwr	Sig	Ach	Temp	IERange	Over
	#	s	V	A	V	W	V	V	deg C	#	bits
	0	0.013333	8.46192E-001	-9.85082E-005	0.00000E+000	-8.33568E-005	-5.99601E-002	8.46488E-001	3.57790E+000	9	...........
	1	0.026667	8.33086E-001	-9.95417E-005	0.00000E+000	-8.29268E-005	-5.99601E-002	8.33368E-001	3.57790E+000	9	...........
	2	0.04	8.20548E-001	-9.96876E-005	0.00000E+000	-8.17985E-005	-5.99601E-002	8.20841E-001	3.57790E+000	9	...........
	3	0.053333	8.08421E-001	-9.86561E-005	0.00000E+000	-7.97557E-005	-5.99601E-002	8.08653E-001	3.57790E+000	9	...........
	4	0.066667	7.96528E-001	-9.80143E-005	0.00000E+000	-7.80712E-005	-5.99601E-002	7.96808E-001	3.57790E+000	9	...........
	5	0.08	7.84837E-001	-9.89155E-005	0.00000E+000	-7.76325E-005	-5.99601E-002	7.85067E-001	3.57790E+000	9	...........
	6	0.093333	7.73315E-001	-9.79445E-005	0.00000E+000	-7.57419E-005	-5.99601E-002	7.73561E-001	3.57790E+000	9	...........
	7	0.106667	7.61893E-001	-9.95198E-005	0.00000E+000	-7.58235E-005	-5.99601E-002	7.62150E-001	3.57790E+000	9	...........
	8	0.12	7.50584E-001	-1.00624E-004	0.00000E+000	-7.55269E-005	-5.99601E-002	7.50854E-001	3.57790E+000	9	...........
	9	0.133333	7.39396E-001	-9.94021E-005	0.00000E+000	-7.34975E-005	-5.99601E-002	7.39620E-001	3.57790E+000	9	...........
	10	0.146667	7.28307E-001	-9.86467E-005	0.00000E+000	-7.18451E-005	-5.99601E-002	7.28496E-001	3.57790E+000	9	...........
	11	0.16	7.17255E-001	-9.78674E-005	0.00000E+000	-7.01959E-005	-5.99601E-002	7.17465E-001	3.57790E+000	9	...........
	12	0.173333	7.06324E-001	-9.85092E-005	0.00000E+000	-6.95794E-005	-5.99601E-002	7.06505E-001	3.57790E+000	9	...........
	13	0.186667	6.95456E-001	-9.87895E-005	0.00000E+000	-6.87037E-005	-5.99601E-002	6.95660E-001	3.57790E+000	9	...........
	14	0.2	6.84651E-001	-9.91302E-005	0.00000E+000	-6.78695E-005	-5.99601E-002	6.84833E-001	3.57790E+000	9	...........
	15	0.213333	6.73944E-001	-9.94604E-005	0.00000E+000	-6.70308E-005	-5.99601E-002	6.74118E-001	3.57790E+000	9	...........
	16	0.226667	6.63224E-001	-9.91041E-005	0.00000E+000	-6.57282E-005	-5.99601E-002	6.63419E-001	3.57790E+000	9	...........
	17	0.24	6.52550E-001	-9.89416E-005	0.00000E+000	-6.45643E-005	-5.99601E-002	6.52729E-001	3.57790E+000	9	...........
	18	0.253333	6.41811E-001	-9.85082E-005	0.00000E+000	-6.32236E-005	-5.99601E-002	6.42023E-001	3.57790E+000	9	...........
	19	0.266667	6.30971E-001	-9.87499E-005	0.00000E+000	-6.23083E-005	-5.99601E-002	6.31188E-001	3.57790E+000	9	...........
	20	0.28	6.20044E-001	-9.98647E-005	0.00000E+000	-6.19205E-005	-5.99601E-002	6.20234E-001	3.57790E+000	9	...........
	21	0.293333	6.08825E-001	-9.71204E-005	0.00000E+000	-5.91293E-005	-5.99601E-002	6.09100E-001	3.57790E+000	9	...........
	22	0.306667	5.97500E-001	-9.88301E-005	0.00000E+000	-5.90510E-005	-5.99601E-002	5.97758E-001	3.57790E+000	9	...........
	23	0.32	5.85942E-001	-9.83144E-005	0.00000E+000	-5.76065E-005	-5.99601E-002	5.86197E-001	3.57790E+000	9	...........
	24	0.333333	5.74221E-001	-9.90083E-005	0.00000E+000	-5.68526E-005	-5.99601E-002	5.74448E-001	3.57790E+000	9	...........
	25	0.346667	5.62255E-001	-9.95490E-005	0.00000E+000	-5.59720E-005	-5.99601E-002	5.62485E-001	3.57790E+000	9	...........
	26	0.36	5.50100E-001	-9.83227E-005	0.00000E+000	-5.40873E-005	-5.99601E-002	5.50340E-001	3.57790E+000	9	...........
	27	0.373333	5.37776E-001	-9.78768E-005	0.00000E+000	-5.26358E-005	-5.99601E-002	5.38030E-001	3.57790E+000	9	...........
	28	0.386667	5.25284E-001	-9.93802E-005	0.00000E+000	-5.22029E-005	-5.99601E-002	5.25535E-001	3.57790E+000	9	...........
	29	0.4	5.12682E-001	-9.84634E-005	0.00000E+000	-5.04804E-005	-5.99601E-002	5.12905E-001	3.57790E+000	9	...........
	30	0.413333	4.99905E-001	-9.98261E-005	0.00000E+000	-4.99036E-005	-5.99601E-002	5.00156E-001	3.57790E+000	9	...........
	31	0.426667	4.87135E-001	-9.81695E-005	0.00000E+000	-4.78218E-005	-5.99601E-002	4.87334E-001	3.57790E+000	9	...........
	32	0.44	4.74394E-001	-9.75079E-005	0.00000E+000	-4.62571E-005	-5.99601E-002	4.74491E-001	3.57790E+000	9	...........
	33	0.453333	4.61336E-001	-9.77642E-005	0.00000E+000	-4.51022E-005	-5.99601E-002	4.61431E-001	3.57790E+000	9	...........
	34	0.466667	4.48195E-001	-9.83769E-005	0.00000E+000	-4.40920E-005	-5.99601E-002	4.48289E-001	3.57701E+000	9	...........
	35	0.48	4.35004E-001	-9.75007E-005	0.00000E+000	-4.24131E-005	-5.99601E-002	4.35094E-001	3.57640E+000	9	...........
	36	0.493333	4.21753E-001	-9.85863E-005	0.00000E+000	-4.15791E-005	-5.99601E-002	4.21840E-001	3.57640E+000	9	...........
	37	0.506667	4.08470E-001	-9.95011E-005	0.00000E+000	-4.06432E-005	-5.99601E-002	4.08543E-001	3.57640E+000	9	...........
	38	0.52	3.95158E-001	-9.85457E-005	0.00000E+000	-3.89411E-005	-5.99601E-002	3.95236E-001	3.57640E+000	9	...........
	39	0.533333	3.81841E-001	-9.87488E-005	0.00000E+000	-3.77063E-005	-5.99601E-002	3.81909E-001	3.57640E+000	9	...........
	40	0.546667	3.68515E-001	-9.80195E-005	0.00000E+000	-3.61217E-005	-5.99601E-002	3.68581E-001	3.57640E+000	9	...........
	41	0.56	3.55204E-001	-9.91062E-005	0.00000E+000	-3.52030E-005	-5.99601E-002	3.55270E-001	3.57640E+000	9	...........
	42	0.573333	3.41918E-001	-9.98074E-005	0.00000E+000	-3.41259E-005	-5.99601E-002	3.41978E-001	3.57640E+000	9	...........
	43	0.586667	3.28650E-001	-9.86811E-005	0.00000E+000	-3.24316E-005	-5.99601E-002	3.28713E-001	3.57640E+000	9	...........
	44	0.6	3.15428E-001	-9.85175E-005	0.00000E+000	-3.10752E-005	-5.99601E-002	3.15486E-001	3.57640E+000	9	...........
	45	0.613333	3.02250E-001	-9.65286E-005	0.00000E+000	-2.91757E-005	-5.99601E-002	3.02309E-001	3.57640E+000	9	...........
	46	0.626667	2.89117E-001	-1.00527E-004	0.00000E+000	-2.90642E-005	-5.99601E-002	2.89170E-001	3.57640E+000	9	...........
	47	0.64	2.76046E-001	-9.83144E-005	0.00000E+000	-2.71393E-005	-5.99601E-002	2.76105E-001	3.57640E+000	9	...........
	48	0.653333	2.63036E-001	-9.94219E-005	0.00000E+000	-2.61516E-005	-5.99601E-002	2.63095E-001	3.57640E+000	9	...........
	49	0.666667	2.50093E-001	-9.80216E-005	0.00000E+000	-2.45145E-005	-5.99601E-002	2.50147E-001	3.57640E+000	9	...........
	50	0.68	2.37224E-001	-9.85446E-005	0.00000E+000	-2.33772E-005	-5.99601E-002	2.37268E-001	3.57640E+000	9	...........
	51	0.693333	2.24414E-001	-9.76423E-005	0.00000E+000	-2.19123E-005	-5.99601E-002	2.24460E-001	3.57640E+000	9	...........
	52	0.706667	2.11666E-001	-9.93781E-005	0.00000E+000	-2.10350E-005	-5.99601E-002	2.11707E-001	3.57640E+000	9	...........
	53	0.72	1.98995E-001	-9.91906E-005	0.00000E+000	-1.97384E-005	-5.99601E-002	1.99035E-001	3.57640E+000	9	...........
	54	0.733333	1.86389E-001	-9.86103E-005	0.00000E+000	-1.83799E-005	-5.99601E-002	1.86427E-001	3.57640E+000	9	...........
	55	0.746667	1.73854E-001	-9.85154E-005	0.00000E+000	-1.71273E-005	-5.99601E-002	1.73888E-001	3.57640E+000	9	...........
	56	0.76	1.61390E-001	-9.81237E-005	0.00000E+000	-1.58362E-005	-5.99601E-002	1.61419E-001	3.57640E+000	9	...........
	57	0.773333	1.48984E-001	-9.82300E-005	0.00000E+000	-1.46347E-005	-5.99601E-002	1.49011E-001	3.57640E+000	9	...........
	58	0.786667	1.36650E-001	-9.84342E-005	0.00000E+000	-1.34511E-005	-5.99601E-002	1.36669E-001	3.57640E+000	9	...........
	59	0.8	1.24380E-001	-9.93948E-005	0.00000E+000	-1.23627E-005	-5.99601E-002	1.24406E-001	3.57640E+000	9	...........
	60	0.813333	1.12195E-001	-9.91771E-005	0.00000E+000	-1.11272E-005	-5.99601E-002	1.12216E-001	3.57640E+000	9	...........
	61	0.826667	1.00082E-001	-9.88447E-005	0.00000E+000	-9.89259E-006	-5.99601E-002	1.00103E-001	3.57640E+000	9	...........
	62	0.84	8.80727E-002	-9.78309E-005	0.00000E+000	-8.61623E-006	-5.99601E-002	8.80885E-002	3.57640E+000	9	...........
	63	0.853333	7.61788E-002	-9.77580E-005	0.00000E+000	-7.44709E-006	-5.99601E-002	7.61876E-002	3.57640E+000	9	...........
	64	0.866667	6.43877E-002	-9.88812E-005	0.00000E+000	-6.36673E-006	-5.99601E-002	6.43945E-002	3.57640E+000	9	...........
	65	0.88	5.27231E-002	-9.96761E-005	0.00000E+000	-5.25523E-006	-5.99601E-002	5.27279E-002	3.57640E+000	9	...........
	66	0.893333	4.12320E-002	-9.76642E-005	0.00000E+000	-4.02689E-006	-5.99601E-002	4.12369E-002	3.57640E+000	9	...........
	67	0.906667	2.98430E-002	-9.90614E-005	0.00000E+000	-2.95629E-006	-5.99601E-002	2.98435E-002	3.57640E+000	9	...........
	68	0.92	1.86023E-002	-9.92708E-005	0.00000E+000	-1.84666E-006	-5.99601E-002	1.85943E-002	3.57640E+000	9	...........
	69	0.933333	7.53708E-003	-9.80497E-005	0.00000E+000	-7.39009E-007	-5.99601E-002	7.51812E-003	3.57640E+000	9	...........
	70	0.938333	2.27907E-005	-9.77573E-005	0.00000E+000	-2.22796E-009	-5.99601E-002	-1.94291E-007	3.57640E+000	9	...........
STARTTIMEOFFSET	QUANT	1327.824	Start Time Offset (s)
