EXPLAIN
TAG	PWR800_DISCHARGE
TITLE	LABEL	PWR Cyclic Charge Discharge (Cell) - Discharge Step	Test &Identifier
DATE	LABEL	12-7-2017	Date
TIME	LABEL	16:53:58	Time
NOTES	NOTES	2	&Notes...
	supercap test cell
	6M KOH
PSTAT	PSTAT	IFC5000-01520	Potentiostat
CAPACITY	QUANT	1.00000E-003	Capacity (A-hr)
CELLTYPE	SELECTOR	1	&Cell Type
WORKINGCONNECTION	SELECTOR	0	&Working Lead
MAXDISCHARGETIME	VARIABLEANDUNITS	1.00000E+002	s	1.00000E+002	second(s)	Max &Discharge Time
DISCHARGEMODE	MULTIPARAM	0	1.00000E-004	&Discharge Mode	Constant Current	Amp(s)
SAMPLETIME	QUANT	1.00000E-002	Sa&mple Period (s)
DISCHARGESTOPAT1	MULTIPARAM	3	0.00000E+000	Discharge Stop At &1	Voltage < Limit	V
DISCHARGESTOPAT2	MULTIPARAM	0	0.00000E+000	Discharge Stop At &2	None	N/A
AESBHCSELECTOR	TOGGLE	F	Save Both Half Cells
IRCOMP	TOGGLE	F	IR &Measure
EOC	QUANT	0	Open Circuit (V)
SEQUENCER	TOGGLE	TRUE	Run as Sequence
PSTATMODEL	IQUANT	53	Pstat Model
PSTATSECTION	LABEL	IFC5000-01520	Pstat Section
PSTATSERIALNO	LABEL	01520	Pstat Serial Number
CTRLMODE	IQUANT	0	Control Mode
ELECTROMETER	IQUANT	1	RE=0 or CS=1
IESTAB	IQUANT	0	I/E Stability
CASPEED	IQUANT	4	Control Amp Speed
CONVENTION	IQUANT	1	Current Convention
ICHRANGE	IQUANT	2	Ich Range
ICHRANGEMODE	TOGGLE	T	Ich Auto Range
ICHOFFSETENABLE	TOGGLE	F	Ich Offset Enable
ICHOFFSET	QUANT	0	Ich Offset (V)
ICHFILTER	IQUANT	1	Ich Filter
VCHRANGE	IQUANT	2	Vch Range
VCHRANGEMODE	TOGGLE	T	Vch Auto Range
VCHOFFSETENABLE	TOGGLE	F	Vch Offset Enable
VCHOFFSET	QUANT	0	Vch Offset (V)
VCHFILTER	IQUANT	1	Vch Filter
IERANGELOWERLIMIT	IQUANT	9	I/E Range Lower Limit
IERANGEMODE	TOGGLE	F	I/E AutoRange
IERANGE	IQUANT	9	I/E Range
ACHSELECT	IQUANT	1	Ach Select
ACHRANGE	IQUANT	2	Ach Range
ACHOFFSETENABLE	TOGGLE	F	Ach Offset Enable
ACHOFFSET	QUANT	0	Ach Offset (V)
ACHFILTER	IQUANT	1	Ach Filter
CABLEID	IQUANT	14	Cable ID
DCCALDATE	LABEL	5-7-2017	DC Calibration Date
ACCALDATE	LABEL	12/3/2015	AC Calibration Date
FRAMEWORKVERSION	QUANT	7.01	Framework Version
INSTRUMENTVERSION	LABEL	4.00	Instrument Version
CURVE	TABLE	70
	Pt	T	Vf	Im	Vu	Pwr	Sig	Ach	Temp	IERange	Over
	#	s	V	A	V	W	V	V	deg C	#	bits
	0	0.013333	8.44397E-001	-9.67484E-005	0.00000E+000	-8.16941E-005	-5.99601E-002	8.44673E-001	3.57650E+000	9	...........
	1	0.026667	8.31185E-001	-9.83321E-005	0.00000E+000	-8.17321E-005	-5.99601E-002	8.31445E-001	3.57650E+000	9	...........
	2	0.04	8.18554E-001	-9.89916E-005	0.00000E+000	-8.10300E-005	-5.99601E-002	8.18801E-001	3.57650E+000	9	...........
	3	0.053333	8.06278E-001	-9.89906E-005	0.00000E+000	-7.98139E-005	-5.99601E-002	8.06521E-001	3.57650E+000	9	...........
	4	0.066667	7.94291E-001	-9.92614E-005	0.00000E+000	-7.88425E-005	-5.99601E-002	7.94506E-001	3.57650E+000	9	...........
	5	0.08	7.82467E-001	-9.81102E-005	0.00000E+000	-7.67679E-005	-5.99601E-002	7.82702E-001	3.57650E+000	9	...........
	6	0.093333	7.70816E-001	-9.92083E-005	0.00000E+000	-7.64714E-005	-5.99601E-002	7.71036E-001	3.57650E+000	9	...........
	7	0.106667	7.59266E-001	-9.92010E-005	0.00000E+000	-7.53199E-005	-5.99601E-002	7.59502E-001	3.57650E+000	9	...........
	8	0.12	7.47838E-001	-9.86019E-005	0.00000E+000	-7.37383E-005	-5.99601E-002	7.48056E-001	3.57650E+000	9	...........
	9	0.133333	7.36491E-001	-9.84363E-005	0.00000E+000	-7.24974E-005	-5.99601E-002	7.36705E-001	3.57650E+000	9	...........
	10	0.146667	7.25262E-001	-9.86176E-005	0.00000E+000	-7.15236E-005	-5.99601E-002	7.25456E-001	3.57650E+000	9	...........
	11	0.16	7.14065E-001	-9.84040E-005	0.00000E+000	-7.02669E-005	-5.99601E-002	7.14273E-001	3.57650E+000	9	...........
	12	0.173333	7.02982E-001	-9.94844E-005	0.00000E+000	-6.99358E-005	-5.99601E-002	7.03209E-001	3.57650E+000	9	...........
	13	0.186667	6.91996E-001	-9.96699E-005	0.00000E+000	-6.89711E-005	-5.99601E-002	6.92198E-001	3.57650E+000	9	...........
	14	0.2	6.81066E-001	-9.89801E-005	0.00000E+000	-6.74120E-005	-5.99601E-002	6.81252E-001	3.57650E+000	9	...........
	15	0.213333	6.70200E-001	-9.80799E-005	0.00000E+000	-6.57332E-005	-5.99601E-002	6.70383E-001	3.57650E+000	9	...........
	16	0.226667	6.59383E-001	-9.91218E-005	0.00000E+000	-6.53592E-005	-5.99601E-002	6.59579E-001	3.57650E+000	9	...........
	17	0.24	6.48600E-001	-9.89301E-005	0.00000E+000	-6.41661E-005	-5.99601E-002	6.48822E-001	3.57650E+000	9	...........
	18	0.253333	6.37811E-001	-9.88968E-005	0.00000E+000	-6.30774E-005	-5.99601E-002	6.38027E-001	3.57650E+000	9	...........
	19	0.266667	6.26942E-001	-9.82519E-005	0.00000E+000	-6.15982E-005	-5.99601E-002	6.27147E-001	3.57650E+000	9	...........
	20	0.28	6.15943E-001	-9.88155E-005	0.00000E+000	-6.08647E-005	-5.99601E-002	6.16176E-001	3.57650E+000	9	...........
	21	0.293333	6.04740E-001	-9.79778E-005	0.00000E+000	-5.92511E-005	-5.99601E-002	6.05017E-001	3.57650E+000	9	...........
	22	0.306667	5.93401E-001	-9.87770E-005	0.00000E+000	-5.86143E-005	-5.99601E-002	5.93651E-001	3.57650E+000	9	...........
	23	0.32	5.81824E-001	-9.93927E-005	0.00000E+000	-5.78291E-005	-5.99601E-002	5.82055E-001	3.57650E+000	9	...........
	24	0.333333	5.70037E-001	-9.87353E-005	0.00000E+000	-5.62828E-005	-5.99601E-002	5.70265E-001	3.57650E+000	9	...........
	25	0.346667	5.58025E-001	-9.82706E-005	0.00000E+000	-5.48375E-005	-5.99601E-002	5.58271E-001	3.57650E+000	9	...........
	26	0.36	5.45819E-001	-9.96126E-005	0.00000E+000	-5.43705E-005	-5.99601E-002	5.46075E-001	3.57650E+000	9	...........
	27	0.373333	5.33420E-001	-9.85332E-005	0.00000E+000	-5.25595E-005	-5.99601E-002	5.33671E-001	3.57650E+000	9	...........
	28	0.386667	5.20865E-001	-1.00008E-004	0.00000E+000	-5.20909E-005	-5.99601E-002	5.21097E-001	3.57650E+000	9	...........
	29	0.4	5.08114E-001	-9.99282E-005	0.00000E+000	-5.07750E-005	-5.99601E-002	5.08391E-001	3.57650E+000	9	...........
	30	0.413333	4.95281E-001	-9.85019E-005	0.00000E+000	-4.87861E-005	-5.99601E-002	4.95530E-001	3.57650E+000	9	...........
	31	0.426667	4.82502E-001	-9.91083E-005	0.00000E+000	-4.78199E-005	-5.99601E-002	4.82657E-001	3.57650E+000	9	...........
	32	0.44	4.69511E-001	-9.90697E-005	0.00000E+000	-4.65143E-005	-5.99601E-002	4.69611E-001	3.57650E+000	9	...........
	33	0.453333	4.56316E-001	-9.85196E-005	0.00000E+000	-4.49561E-005	-5.99601E-002	4.56410E-001	3.57650E+000	9	...........
	34	0.466667	4.43038E-001	-9.90593E-005	0.00000E+000	-4.38871E-005	-5.99601E-002	4.43130E-001	3.57650E+000	9	...........
	35	0.48	4.29695E-001	-9.80049E-005	0.00000E+000	-4.21122E-005	-5.99601E-002	4.29784E-001	3.57650E+000	9	...........
	36	0.493333	4.16305E-001	-9.97886E-005	0.00000E+000	-4.15425E-005	-5.99601E-002	4.16390E-001	3.57650E+000	9	...........
	37	0.506667	4.02871E-001	-9.78028E-005	0.00000E+000	-3.94019E-005	-5.99601E-002	4.02953E-001	3.57650E+000	9	...........
	38	0.52	3.89404E-001	-9.87478E-005	0.00000E+000	-3.84527E-005	-5.99601E-002	3.89479E-001	3.57650E+000	9	...........
	39	0.533333	3.75921E-001	-9.91093E-005	0.00000E+000	-3.72573E-005	-5.99601E-002	3.75993E-001	3.57650E+000	9	...........
	40	0.546667	3.62437E-001	-9.93500E-005	0.00000E+000	-3.60081E-005	-5.99601E-002	3.62508E-001	3.57650E+000	9	...........
	41	0.56	3.48964E-001	-9.90312E-005	0.00000E+000	-3.45583E-005	-5.99601E-002	3.49035E-001	3.57650E+000	9	...........
	42	0.573333	3.35510E-001	-9.88051E-005	0.00000E+000	-3.31501E-005	-5.99601E-002	3.35576E-001	3.57650E+000	9	...........
	43	0.586667	3.22088E-001	-1.00115E-004	0.00000E+000	-3.22457E-005	-5.99601E-002	3.22154E-001	3.57650E+000	9	...........
	44	0.6	3.08701E-001	-9.91500E-005	0.00000E+000	-3.06077E-005	-5.99601E-002	3.08770E-001	3.57650E+000	9	...........
	45	0.613333	2.95366E-001	-9.92083E-005	0.00000E+000	-2.93028E-005	-5.99601E-002	2.95425E-001	3.57713E+000	9	...........
	46	0.626667	2.82092E-001	-9.75277E-005	0.00000E+000	-2.75118E-005	-5.99601E-002	2.82150E-001	3.57900E+000	9	...........
	47	0.64	2.68876E-001	-9.81560E-005	0.00000E+000	-2.63918E-005	-5.99601E-002	2.68931E-001	3.57900E+000	9	...........
	48	0.653333	2.55716E-001	-9.93604E-005	0.00000E+000	-2.54080E-005	-5.99601E-002	2.55771E-001	3.57900E+000	9	...........
	49	0.666667	2.42637E-001	-9.94719E-005	0.00000E+000	-2.41356E-005	-5.99601E-002	2.42686E-001	3.57900E+000	9	...........
	50	0.68	2.29632E-001	-9.99168E-005	0.00000E+000	-2.29441E-005	-5.99601E-002	2.29683E-001	3.57900E+000	9	...........
	51	0.693333	2.16701E-001	-9.89280E-005	0.00000E+000	-2.14378E-005	-5.99601E-002	2.16745E-001	3.57900E+000	9	...........
	52	0.706667	2.03844E-001	-9.86301E-005	0.00000E+000	-2.01051E-005	-5.99601E-002	2.03880E-001	3.57900E+000	9	...........
	53	0.72	1.91063E-001	-9.75913E-005	0.00000E+000	-1.86461E-005	-5.99601E-002	1.91098E-001	3.57900E+000	9	...........
	54	0.733333	1.78359E-001	-9.94156E-005	0.00000E+000	-1.77317E-005	-5.99601E-002	1.78392E-001	3.57900E+000	9	...........
	55	0.746667	1.65740E-001	-9.95417E-005	0.00000E+000	-1.64980E-005	-5.99601E-002	1.65766E-001	3.57900E+000	9	...........
	56	0.76	1.53197E-001	-9.86603E-005	0.00000E+000	-1.51145E-005	-5.99601E-002	1.53220E-001	3.57900E+000	9	...........
	57	0.773333	1.40728E-001	-9.90176E-005	0.00000E+000	-1.39346E-005	-5.99601E-002	1.40751E-001	3.57900E+000	9	...........
	58	0.786667	1.28342E-001	-9.97240E-005	0.00000E+000	-1.27988E-005	-5.99601E-002	1.28363E-001	3.57900E+000	9	...........
	59	0.8	1.16035E-001	-9.89312E-005	0.00000E+000	-1.14795E-005	-5.99601E-002	1.16054E-001	3.57900E+000	9	...........
	60	0.813333	1.03822E-001	-9.94521E-005	0.00000E+000	-1.03253E-005	-5.99601E-002	1.03843E-001	3.57900E+000	9	...........
	61	0.826667	9.17110E-002	-9.82091E-005	0.00000E+000	-9.00686E-006	-5.99601E-002	9.17304E-002	3.57900E+000	9	...........
	62	0.84	7.97164E-002	-9.99022E-005	0.00000E+000	-7.96385E-006	-5.99601E-002	7.97231E-002	3.57900E+000	9	...........
	63	0.853333	6.78332E-002	-9.88832E-005	0.00000E+000	-6.70756E-006	-5.99601E-002	6.78369E-002	3.57900E+000	9	...........
	64	0.866667	5.60681E-002	-9.78924E-005	0.00000E+000	-5.48864E-006	-5.99601E-002	5.60729E-002	3.57900E+000	9	...........
	65	0.88	4.44741E-002	-9.81039E-005	0.00000E+000	-4.36308E-006	-5.99601E-002	4.44801E-002	3.57900E+000	9	...........
	66	0.893333	3.30197E-002	-9.96803E-005	0.00000E+000	-3.29141E-006	-5.99601E-002	3.30168E-002	3.57900E+000	9	...........
	67	0.906667	2.17159E-002	-9.90354E-005	0.00000E+000	-2.15065E-006	-5.99601E-002	2.17123E-002	3.57900E+000	9	...........
	68	0.92	1.05875E-002	-9.94323E-005	0.00000E+000	-1.05274E-006	-5.99601E-002	1.05718E-002	3.57900E+000	9	...........
	69	0.928333	1.66714E-003	-9.87686E-005	0.00000E+000	-1.64661E-007	-5.99601E-002	1.64811E-003	3.57900E+000	9	...........
STARTTIMEOFFSET	QUANT	1871.876	Start Time Offset (s)
