EXPLAIN
TAG	PWR800_DISCHARGE
TITLE	LABEL	PWR Cyclic Charge Discharge (Cell) - Discharge Step	Test &Identifier
DATE	LABEL	12-7-2017	Date
TIME	LABEL	16:12:13	Time
NOTES	NOTES	2	&Notes...
	supercap test cell
	6M KOH
PSTAT	PSTAT	IFC5000-01520	Potentiostat
CAPACITY	QUANT	1.00000E-003	Capacity (A-hr)
CELLTYPE	SELECTOR	1	&Cell Type
WORKINGCONNECTION	SELECTOR	0	&Working Lead
MAXDISCHARGETIME	VARIABLEANDUNITS	1.00000E+002	s	1.00000E+002	second(s)	Max &Discharge Time
DISCHARGEMODE	MULTIPARAM	0	1.00000E-004	&Discharge Mode	Constant Current	Amp(s)
SAMPLETIME	QUANT	1.00000E-002	Sa&mple Period (s)
DISCHARGESTOPAT1	MULTIPARAM	3	0.00000E+000	Discharge Stop At &1	Voltage < Limit	V
DISCHARGESTOPAT2	MULTIPARAM	0	0.00000E+000	Discharge Stop At &2	None	N/A
AESBHCSELECTOR	TOGGLE	F	Save Both Half Cells
IRCOMP	TOGGLE	F	IR &Measure
EOC	QUANT	0	Open Circuit (V)
SEQUENCER	TOGGLE	TRUE	Run as Sequence
PSTATMODEL	IQUANT	53	Pstat Model
PSTATSECTION	LABEL	IFC5000-01520	Pstat Section
PSTATSERIALNO	LABEL	01520	Pstat Serial Number
CTRLMODE	IQUANT	0	Control Mode
ELECTROMETER	IQUANT	1	RE=0 or CS=1
IESTAB	IQUANT	0	I/E Stability
CASPEED	IQUANT	4	Control Amp Speed
CONVENTION	IQUANT	1	Current Convention
ICHRANGE	IQUANT	2	Ich Range
ICHRANGEMODE	TOGGLE	T	Ich Auto Range
ICHOFFSETENABLE	TOGGLE	F	Ich Offset Enable
ICHOFFSET	QUANT	0	Ich Offset (V)
ICHFILTER	IQUANT	1	Ich Filter
VCHRANGE	IQUANT	2	Vch Range
VCHRANGEMODE	TOGGLE	T	Vch Auto Range
VCHOFFSETENABLE	TOGGLE	F	Vch Offset Enable
VCHOFFSET	QUANT	0	Vch Offset (V)
VCHFILTER	IQUANT	1	Vch Filter
IERANGELOWERLIMIT	IQUANT	9	I/E Range Lower Limit
IERANGEMODE	TOGGLE	F	I/E AutoRange
IERANGE	IQUANT	9	I/E Range
ACHSELECT	IQUANT	1	Ach Select
ACHRANGE	IQUANT	2	Ach Range
ACHOFFSETENABLE	TOGGLE	F	Ach Offset Enable
ACHOFFSET	QUANT	0	Ach Offset (V)
ACHFILTER	IQUANT	1	Ach Filter
CABLEID	IQUANT	14	Cable ID
DCCALDATE	LABEL	5-7-2017	DC Calibration Date
ACCALDATE	LABEL	12/3/2015	AC Calibration Date
FRAMEWORKVERSION	QUANT	7.01	Framework Version
INSTRUMENTVERSION	LABEL	4.00	Instrument Version
CURVE	TABLE	73
	Pt	T	Vf	Im	Vu	Pwr	Sig	Ach	Temp	IERange	Over
	#	s	V	A	V	W	V	V	deg C	#	bits
	0	0.013333	8.31954E-001	-9.90354E-005	0.00000E+000	-8.23928E-005	-5.99601E-002	8.32272E-001	3.57870E+000	9	...........
	1	0.026667	8.18740E-001	-9.85530E-005	0.00000E+000	-8.06893E-005	-5.99601E-002	8.19070E-001	3.57870E+000	9	...........
	2	0.04	8.06122E-001	-9.96657E-005	0.00000E+000	-8.03427E-005	-5.99601E-002	8.06427E-001	3.57870E+000	9	...........
	3	0.053333	7.93846E-001	-9.91625E-005	0.00000E+000	-7.87197E-005	-5.99601E-002	7.94141E-001	3.57870E+000	9	...........
	4	0.066667	7.81820E-001	-9.86363E-005	0.00000E+000	-7.71159E-005	-5.99601E-002	7.82099E-001	3.57870E+000	9	...........
	5	0.08	7.69919E-001	-9.88405E-005	0.00000E+000	-7.60991E-005	-5.99601E-002	7.70209E-001	3.57870E+000	9	...........
	6	0.093333	7.58123E-001	-9.80393E-005	0.00000E+000	-7.43258E-005	-5.99601E-002	7.58402E-001	3.57870E+000	9	...........
	7	0.106667	7.46380E-001	-9.86853E-005	0.00000E+000	-7.36567E-005	-5.99601E-002	7.46665E-001	3.57870E+000	9	...........
	8	0.12	7.34610E-001	-9.91906E-005	0.00000E+000	-7.28664E-005	-5.99601E-002	7.34891E-001	3.57870E+000	9	...........
	9	0.133333	7.22906E-001	-9.79414E-005	0.00000E+000	-7.08024E-005	-5.99601E-002	7.23133E-001	3.57870E+000	9	...........
	10	0.146667	7.11050E-001	-9.89155E-005	0.00000E+000	-7.03339E-005	-5.99601E-002	7.11309E-001	3.57870E+000	9	...........
	11	0.16	6.99220E-001	-9.81341E-005	0.00000E+000	-6.86173E-005	-5.99601E-002	6.99499E-001	3.57870E+000	9	...........
	12	0.173333	6.87352E-001	-9.86155E-005	0.00000E+000	-6.77835E-005	-5.99601E-002	6.87622E-001	3.57870E+000	9	...........
	13	0.186667	6.75474E-001	-9.91291E-005	0.00000E+000	-6.69591E-005	-5.99601E-002	6.75722E-001	3.57870E+000	9	...........
	14	0.2	6.63558E-001	-9.80622E-005	0.00000E+000	-6.50700E-005	-5.99601E-002	6.63798E-001	3.57870E+000	9	...........
	15	0.213333	6.51628E-001	-9.84519E-005	0.00000E+000	-6.41541E-005	-5.99601E-002	6.51870E-001	3.57870E+000	9	...........
	16	0.226667	6.39653E-001	-9.88207E-005	0.00000E+000	-6.32110E-005	-5.99601E-002	6.39932E-001	3.57870E+000	9	...........
	17	0.24	6.27723E-001	-9.91489E-005	0.00000E+000	-6.22381E-005	-5.99601E-002	6.27976E-001	3.57870E+000	9	...........
	18	0.253333	6.15788E-001	-9.90510E-005	0.00000E+000	-6.09944E-005	-5.99601E-002	6.16013E-001	3.57870E+000	9	...........
	19	0.266667	6.03818E-001	-9.90312E-005	0.00000E+000	-5.97968E-005	-5.99601E-002	6.04100E-001	3.57870E+000	9	...........
	20	0.28	5.91933E-001	-9.87134E-005	0.00000E+000	-5.84317E-005	-5.99601E-002	5.92172E-001	3.57870E+000	9	...........
	21	0.293333	5.80041E-001	-9.84602E-005	0.00000E+000	-5.71110E-005	-5.99601E-002	5.80262E-001	3.57870E+000	9	...........
	22	0.306667	5.68190E-001	-9.85696E-005	0.00000E+000	-5.60063E-005	-5.99601E-002	5.68424E-001	3.57870E+000	9	...........
	23	0.32	5.56318E-001	-9.79591E-005	0.00000E+000	-5.44964E-005	-5.99601E-002	5.56567E-001	3.57870E+000	9	...........
	24	0.333333	5.44544E-001	-9.84800E-005	0.00000E+000	-5.36267E-005	-5.99601E-002	5.44771E-001	3.57870E+000	9	...........
	25	0.346667	5.32728E-001	-9.84946E-005	0.00000E+000	-5.24709E-005	-5.99601E-002	5.33002E-001	3.57870E+000	9	...........
	26	0.36	5.21049E-001	-9.91427E-005	0.00000E+000	-5.16582E-005	-5.99601E-002	5.21249E-001	3.57845E+000	9	...........
	27	0.373333	5.09331E-001	-9.86061E-005	0.00000E+000	-5.02231E-005	-5.99601E-002	5.09573E-001	3.57770E+000	9	...........
	28	0.386667	4.97685E-001	-9.85644E-005	0.00000E+000	-4.90541E-005	-5.99601E-002	4.97889E-001	3.57770E+000	9	...........
	29	0.4	4.86207E-001	-9.84019E-005	0.00000E+000	-4.78437E-005	-5.99601E-002	4.86349E-001	3.57770E+000	9	...........
	30	0.413333	4.74840E-001	-9.97928E-005	0.00000E+000	-4.73857E-005	-5.99601E-002	4.74939E-001	3.57770E+000	9	...........
	31	0.426667	4.63312E-001	-9.93886E-005	0.00000E+000	-4.60479E-005	-5.99601E-002	4.63410E-001	3.57770E+000	9	...........
	32	0.44	4.51828E-001	-9.90854E-005	0.00000E+000	-4.47696E-005	-5.99601E-002	4.51924E-001	3.57770E+000	9	...........
	33	0.453333	4.40376E-001	-9.83633E-005	0.00000E+000	-4.33169E-005	-5.99601E-002	4.40470E-001	3.57770E+000	9	...........
	34	0.466667	4.28947E-001	-9.93104E-005	0.00000E+000	-4.25989E-005	-5.99601E-002	4.29038E-001	3.57770E+000	9	...........
	35	0.48	4.17543E-001	-9.88051E-005	0.00000E+000	-4.12553E-005	-5.99601E-002	4.17630E-001	3.57770E+000	9	...........
	36	0.493333	4.06157E-001	-9.91343E-005	0.00000E+000	-4.02641E-005	-5.99601E-002	4.06242E-001	3.57770E+000	9	...........
	37	0.506667	3.94789E-001	-9.91698E-005	0.00000E+000	-3.91511E-005	-5.99601E-002	3.94862E-001	3.57770E+000	9	...........
	38	0.52	3.83411E-001	-9.93094E-005	0.00000E+000	-3.80763E-005	-5.99601E-002	3.83487E-001	3.57770E+000	9	...........
	39	0.533333	3.72037E-001	-9.96542E-005	0.00000E+000	-3.70751E-005	-5.99601E-002	3.72112E-001	3.57770E+000	9	...........
	40	0.546667	3.60658E-001	-9.87540E-005	0.00000E+000	-3.56164E-005	-5.99601E-002	3.60730E-001	3.57770E+000	9	...........
	41	0.56	3.49261E-001	-9.91114E-005	0.00000E+000	-3.46158E-005	-5.99601E-002	3.49335E-001	3.57770E+000	9	...........
	42	0.573333	3.37845E-001	-9.84373E-005	0.00000E+000	-3.32566E-005	-5.99601E-002	3.37917E-001	3.57770E+000	9	...........
	43	0.586667	3.26418E-001	-9.85488E-005	0.00000E+000	-3.21681E-005	-5.99601E-002	3.26486E-001	3.57770E+000	9	...........
	44	0.6	3.14960E-001	-9.93708E-005	0.00000E+000	-3.12978E-005	-5.99601E-002	3.15027E-001	3.57770E+000	9	...........
	45	0.613333	3.03494E-001	-9.82435E-005	0.00000E+000	-2.98164E-005	-5.99601E-002	3.03551E-001	3.57770E+000	9	...........
	46	0.626667	2.91995E-001	-9.83936E-005	0.00000E+000	-2.87304E-005	-5.99601E-002	2.92055E-001	3.57770E+000	9	...........
	47	0.64	2.80475E-001	-9.86509E-005	0.00000E+000	-2.76691E-005	-5.99601E-002	2.80537E-001	3.57770E+000	9	...........
	48	0.653333	2.68946E-001	-9.89728E-005	0.00000E+000	-2.66183E-005	-5.99601E-002	2.69004E-001	3.57770E+000	9	...........
	49	0.666667	2.57394E-001	-9.90354E-005	0.00000E+000	-2.54911E-005	-5.99601E-002	2.57441E-001	3.57770E+000	9	...........
	50	0.68	2.45818E-001	-9.81768E-005	0.00000E+000	-2.41336E-005	-5.99601E-002	2.45866E-001	3.57770E+000	9	...........
	51	0.693333	2.34240E-001	-9.93385E-005	0.00000E+000	-2.32690E-005	-5.99601E-002	2.34277E-001	3.57770E+000	9	...........
	52	0.706667	2.22642E-001	-9.91781E-005	0.00000E+000	-2.20812E-005	-5.99601E-002	2.22681E-001	3.57770E+000	9	...........
	53	0.72	2.11031E-001	-9.89593E-005	0.00000E+000	-2.08834E-005	-5.99601E-002	2.11060E-001	3.57770E+000	9	...........
	54	0.733333	1.99418E-001	-9.84290E-005	0.00000E+000	-1.96285E-005	-5.99601E-002	1.99448E-001	3.57770E+000	9	...........
	55	0.746667	1.87801E-001	-9.81998E-005	0.00000E+000	-1.84420E-005	-5.99601E-002	1.87832E-001	3.57770E+000	9	...........
	56	0.76	1.76178E-001	-9.88207E-005	0.00000E+000	-1.74100E-005	-5.99601E-002	1.76208E-001	3.57770E+000	9	...........
	57	0.773333	1.64566E-001	-9.93604E-005	0.00000E+000	-1.63514E-005	-5.99601E-002	1.64593E-001	3.57770E+000	9	...........
	58	0.786667	1.52974E-001	-9.91927E-005	0.00000E+000	-1.51739E-005	-5.99601E-002	1.52998E-001	3.57770E+000	9	...........
	59	0.8	1.41408E-001	-9.83081E-005	0.00000E+000	-1.39016E-005	-5.99601E-002	1.41428E-001	3.57770E+000	9	...........
	60	0.813333	1.29855E-001	-9.86301E-005	0.00000E+000	-1.28076E-005	-5.99601E-002	1.29878E-001	3.57770E+000	9	...........
	61	0.826667	1.18347E-001	-9.94594E-005	0.00000E+000	-1.17707E-005	-5.99601E-002	1.18365E-001	3.57770E+000	9	...........
	62	0.84	1.06892E-001	-9.84384E-005	0.00000E+000	-1.05223E-005	-5.99601E-002	1.06913E-001	3.57770E+000	9	...........
	63	0.853333	9.54977E-002	-9.84144E-005	0.00000E+000	-9.39835E-006	-5.99601E-002	9.55115E-002	3.57770E+000	9	...........
	64	0.866667	8.41677E-002	-9.93677E-005	0.00000E+000	-8.36355E-006	-5.99601E-002	8.41799E-002	3.57770E+000	9	...........
	65	0.88	7.29252E-002	-9.92698E-005	0.00000E+000	-7.23927E-006	-5.99601E-002	7.29316E-002	3.57770E+000	9	...........
	66	0.893333	6.17757E-002	-9.87332E-005	0.00000E+000	-6.09931E-006	-5.99601E-002	6.17808E-002	3.57770E+000	9	...........
	67	0.906667	5.07292E-002	-9.83925E-005	0.00000E+000	-4.99138E-006	-5.99601E-002	5.07304E-002	3.57770E+000	9	...........
	68	0.92	3.98169E-002	-9.86030E-005	0.00000E+000	-3.92606E-006	-5.99601E-002	3.98194E-002	3.57770E+000	9	...........
	69	0.933333	2.90052E-002	-9.83185E-005	0.00000E+000	-2.85175E-006	-5.99601E-002	2.89993E-002	3.57770E+000	9	...........
	70	0.946667	1.83328E-002	-9.88499E-005	0.00000E+000	-1.81220E-006	-5.99601E-002	1.83173E-002	3.57770E+000	9	...........
	71	0.96	7.79367E-003	-9.87520E-005	0.00000E+000	-7.69640E-007	-5.99601E-002	7.77149E-003	3.57770E+000	9	...........
	72	0.965	6.34164E-004	-9.79157E-005	0.00000E+000	-6.20946E-008	-5.99601E-002	6.12277E-004	3.57770E+000	9	...........
STARTTIMEOFFSET	QUANT	91.10168	Start Time Offset (s)
