EXPLAIN
TAG	PWR800_DISCHARGE
TITLE	LABEL	PWR Cyclic Charge Discharge (Cell) - Discharge Step	Test &Identifier
DATE	LABEL	12-7-2017	Date
TIME	LABEL	16:39:01	Time
NOTES	NOTES	2	&Notes...
	supercap test cell
	6M KOH
PSTAT	PSTAT	IFC5000-01520	Potentiostat
CAPACITY	QUANT	1.00000E-003	Capacity (A-hr)
CELLTYPE	SELECTOR	1	&Cell Type
WORKINGCONNECTION	SELECTOR	0	&Working Lead
MAXDISCHARGETIME	VARIABLEANDUNITS	1.00000E+002	s	1.00000E+002	second(s)	Max &Discharge Time
DISCHARGEMODE	MULTIPARAM	0	1.00000E-004	&Discharge Mode	Constant Current	Amp(s)
SAMPLETIME	QUANT	1.00000E-002	Sa&mple Period (s)
DISCHARGESTOPAT1	MULTIPARAM	3	0.00000E+000	Discharge Stop At &1	Voltage < Limit	V
DISCHARGESTOPAT2	MULTIPARAM	0	0.00000E+000	Discharge Stop At &2	None	N/A
AESBHCSELECTOR	TOGGLE	F	Save Both Half Cells
IRCOMP	TOGGLE	F	IR &Measure
EOC	QUANT	0	Open Circuit (V)
SEQUENCER	TOGGLE	TRUE	Run as Sequence
PSTATMODEL	IQUANT	53	Pstat Model
PSTATSECTION	LABEL	IFC5000-01520	Pstat Section
PSTATSERIALNO	LABEL	01520	Pstat Serial Number
CTRLMODE	IQUANT	0	Control Mode
ELECTROMETER	IQUANT	1	RE=0 or CS=1
IESTAB	IQUANT	0	I/E Stability
CASPEED	IQUANT	4	Control Amp Speed
CONVENTION	IQUANT	1	Current Convention
ICHRANGE	IQUANT	2	Ich Range
ICHRANGEMODE	TOGGLE	T	Ich Auto Range
ICHOFFSETENABLE	TOGGLE	F	Ich Offset Enable
ICHOFFSET	QUANT	0	Ich Offset (V)
ICHFILTER	IQUANT	1	Ich Filter
VCHRANGE	IQUANT	2	Vch Range
VCHRANGEMODE	TOGGLE	T	Vch Auto Range
VCHOFFSETENABLE	TOGGLE	F	Vch Offset Enable
VCHOFFSET	QUANT	0	Vch Offset (V)
VCHFILTER	IQUANT	1	Vch Filter
IERANGELOWERLIMIT	IQUANT	9	I/E Range Lower Limit
IERANGEMODE	TOGGLE	F	I/E AutoRange
IERANGE	IQUANT	9	I/E Range
ACHSELECT	IQUANT	1	Ach Select
ACHRANGE	IQUANT	2	Ach Range
ACHOFFSETENABLE	TOGGLE	F	Ach Offset Enable
ACHOFFSET	QUANT	0	Ach Offset (V)
ACHFILTER	IQUANT	1	Ach Filter
CABLEID	IQUANT	14	Cable ID
DCCALDATE	LABEL	5-7-2017	DC Calibration Date
ACCALDATE	LABEL	12/3/2015	AC Calibration Date
FRAMEWORKVERSION	QUANT	7.01	Framework Version
INSTRUMENTVERSION	LABEL	4.00	Instrument Version
CURVE	TABLE	71
	Pt	T	Vf	Im	Vu	Pwr	Sig	Ach	Temp	IERange	Over
	#	s	V	A	V	W	V	V	deg C	#	bits
	0	0.013333	8.45354E-001	-9.79320E-005	0.00000E+000	-8.27872E-005	-5.99601E-002	8.45688E-001	3.57750E+000	9	...........
	1	0.026667	8.32303E-001	-9.84509E-005	0.00000E+000	-8.19409E-005	-5.99601E-002	8.32593E-001	3.57750E+000	9	...........
	2	0.04	8.19799E-001	-9.84623E-005	0.00000E+000	-8.07194E-005	-5.99601E-002	8.20093E-001	3.57750E+000	9	...........
	3	0.053333	8.07666E-001	-9.88374E-005	0.00000E+000	-7.98276E-005	-5.99601E-002	8.07943E-001	3.57750E+000	9	...........
	4	0.066667	7.95817E-001	-9.88405E-005	0.00000E+000	-7.86589E-005	-5.99601E-002	7.96086E-001	3.57750E+000	9	...........
	5	0.08	7.84136E-001	-1.00362E-004	0.00000E+000	-7.86972E-005	-5.99601E-002	7.84402E-001	3.57750E+000	9	...........
	6	0.093333	7.72636E-001	-9.92937E-005	0.00000E+000	-7.67179E-005	-5.99601E-002	7.72895E-001	3.57750E+000	9	...........
	7	0.106667	7.61248E-001	-1.00074E-004	0.00000E+000	-7.61812E-005	-5.99601E-002	7.61507E-001	3.57750E+000	9	...........
	8	0.12	7.49991E-001	-9.88374E-005	0.00000E+000	-7.41272E-005	-5.99601E-002	7.50229E-001	3.57750E+000	9	...........
	9	0.133333	7.38801E-001	-9.93719E-005	0.00000E+000	-7.34160E-005	-5.99601E-002	7.39033E-001	3.57750E+000	9	...........
	10	0.146667	7.27747E-001	-9.89447E-005	0.00000E+000	-7.20067E-005	-5.99601E-002	7.27971E-001	3.57750E+000	9	...........
	11	0.16	7.16750E-001	-9.86488E-005	0.00000E+000	-7.07065E-005	-5.99601E-002	7.16985E-001	3.57750E+000	9	...........
	12	0.173333	7.05822E-001	-1.00027E-004	0.00000E+000	-7.06014E-005	-5.99601E-002	7.06058E-001	3.57750E+000	9	...........
	13	0.186667	6.95002E-001	-9.98678E-005	0.00000E+000	-6.94083E-005	-5.99601E-002	6.95239E-001	3.57750E+000	9	...........
	14	0.2	6.84231E-001	-9.88176E-005	0.00000E+000	-6.76140E-005	-5.99601E-002	6.84467E-001	3.57750E+000	9	...........
	15	0.213333	6.73544E-001	-9.88124E-005	0.00000E+000	-6.65545E-005	-5.99601E-002	6.73783E-001	3.57750E+000	9	...........
	16	0.226667	6.62848E-001	-9.81477E-005	0.00000E+000	-6.50569E-005	-5.99601E-002	6.63094E-001	3.57750E+000	9	...........
	17	0.24	6.52152E-001	-9.91750E-005	0.00000E+000	-6.46772E-005	-5.99601E-002	6.52400E-001	3.57750E+000	9	...........
	18	0.253333	6.41432E-001	-9.84998E-005	0.00000E+000	-6.31810E-005	-5.99601E-002	6.41657E-001	3.57750E+000	9	...........
	19	0.266667	6.30584E-001	-9.86280E-005	0.00000E+000	-6.21933E-005	-5.99601E-002	6.30824E-001	3.57750E+000	9	...........
	20	0.28	6.19603E-001	-9.93198E-005	0.00000E+000	-6.15388E-005	-5.99601E-002	6.19826E-001	3.57750E+000	9	...........
	21	0.293333	6.08390E-001	-9.90176E-005	0.00000E+000	-6.02413E-005	-5.99601E-002	6.08642E-001	3.57750E+000	9	...........
	22	0.306667	5.97061E-001	-9.93156E-005	0.00000E+000	-5.92975E-005	-5.99601E-002	5.97275E-001	3.57750E+000	9	...........
	23	0.32	5.85474E-001	-9.97855E-005	0.00000E+000	-5.84218E-005	-5.99601E-002	5.85711E-001	3.57750E+000	9	...........
	24	0.333333	5.73721E-001	-9.81185E-005	0.00000E+000	-5.62926E-005	-5.99601E-002	5.73938E-001	3.57750E+000	9	...........
	25	0.346667	5.61748E-001	-9.82716E-005	0.00000E+000	-5.52039E-005	-5.99601E-002	5.61980E-001	3.57750E+000	9	...........
	26	0.36	5.49582E-001	-9.91302E-005	0.00000E+000	-5.44802E-005	-5.99601E-002	5.49820E-001	3.57750E+000	9	...........
	27	0.373333	5.37264E-001	-9.86353E-005	0.00000E+000	-5.29932E-005	-5.99601E-002	5.37499E-001	3.57750E+000	9	...........
	28	0.386667	5.24769E-001	-9.90854E-005	0.00000E+000	-5.19969E-005	-5.99601E-002	5.25004E-001	3.57750E+000	9	...........
	29	0.4	5.12153E-001	-9.95313E-005	0.00000E+000	-5.09753E-005	-5.99601E-002	5.12384E-001	3.57750E+000	9	...........
	30	0.413333	4.99401E-001	-9.89020E-005	0.00000E+000	-4.93918E-005	-5.99601E-002	4.99621E-001	3.57750E+000	9	...........
	31	0.426667	4.86622E-001	-9.80549E-005	0.00000E+000	-4.77157E-005	-5.99601E-002	4.86817E-001	3.57750E+000	9	...........
	32	0.44	4.73892E-001	-9.85811E-005	0.00000E+000	-4.67168E-005	-5.99601E-002	4.73998E-001	3.57750E+000	9	...........
	33	0.453333	4.60847E-001	-9.82539E-005	0.00000E+000	-4.52800E-005	-5.99601E-002	4.60947E-001	3.57750E+000	9	...........
	34	0.466667	4.47731E-001	-9.80747E-005	0.00000E+000	-4.39111E-005	-5.99601E-002	4.47829E-001	3.57750E+000	9	...........
	35	0.48	4.34547E-001	-9.85342E-005	0.00000E+000	-4.28178E-005	-5.99601E-002	4.34642E-001	3.57750E+000	9	...........
	36	0.493333	4.21323E-001	-9.78445E-005	0.00000E+000	-4.12242E-005	-5.99601E-002	4.21417E-001	3.57750E+000	9	...........
	37	0.506667	4.08070E-001	-9.92437E-005	0.00000E+000	-4.04984E-005	-5.99601E-002	4.08155E-001	3.57750E+000	9	...........
	38	0.52	3.94792E-001	-9.92114E-005	0.00000E+000	-3.91679E-005	-5.99601E-002	3.94871E-001	3.57750E+000	9	...........
	39	0.533333	3.81496E-001	-9.92344E-005	0.00000E+000	-3.78575E-005	-5.99601E-002	3.81578E-001	3.57750E+000	9	...........
	40	0.546667	3.68206E-001	-9.78497E-005	0.00000E+000	-3.60289E-005	-5.99601E-002	3.68281E-001	3.57750E+000	9	...........
	41	0.56	3.54930E-001	-9.90510E-005	0.00000E+000	-3.51562E-005	-5.99601E-002	3.55001E-001	3.57750E+000	9	...........
	42	0.573333	3.41676E-001	-9.82331E-005	0.00000E+000	-3.35639E-005	-5.99601E-002	3.41748E-001	3.57750E+000	9	...........
	43	0.586667	3.28460E-001	-9.81331E-005	0.00000E+000	-3.22328E-005	-5.99601E-002	3.28531E-001	3.57750E+000	9	...........
	44	0.6	3.15273E-001	-9.79205E-005	0.00000E+000	-3.08717E-005	-5.99601E-002	3.15341E-001	3.57750E+000	9	...........
	45	0.613333	3.02134E-001	-9.88728E-005	0.00000E+000	-2.98729E-005	-5.99601E-002	3.02200E-001	3.57750E+000	9	...........
	46	0.626667	2.89051E-001	-9.90583E-005	0.00000E+000	-2.86328E-005	-5.99601E-002	2.89109E-001	3.57750E+000	9	...........
	47	0.64	2.76029E-001	-9.83644E-005	0.00000E+000	-2.71515E-005	-5.99601E-002	2.76079E-001	3.57750E+000	9	...........
	48	0.653333	2.63052E-001	-9.76872E-005	0.00000E+000	-2.56968E-005	-5.99601E-002	2.63108E-001	3.57750E+000	9	...........
	49	0.666667	2.50138E-001	-9.95511E-005	0.00000E+000	-2.49015E-005	-5.99601E-002	2.50189E-001	3.57750E+000	9	...........
	50	0.68	2.37304E-001	-9.93729E-005	0.00000E+000	-2.35816E-005	-5.99601E-002	2.37348E-001	3.57750E+000	9	...........
	51	0.693333	2.24524E-001	-9.73881E-005	0.00000E+000	-2.18659E-005	-5.99601E-002	2.24569E-001	3.57750E+000	9	...........
	52	0.706667	2.11814E-001	-9.94750E-005	0.00000E+000	-2.10702E-005	-5.99601E-002	2.11855E-001	3.57750E+000	9	...........
	53	0.72	1.99170E-001	-9.88051E-005	0.00000E+000	-1.96790E-005	-5.99601E-002	1.99212E-001	3.57750E+000	9	...........
	54	0.733333	1.86594E-001	-9.93521E-005	0.00000E+000	-1.85385E-005	-5.99601E-002	1.86637E-001	3.57750E+000	9	...........
	55	0.746667	1.74083E-001	-9.89885E-005	0.00000E+000	-1.72322E-005	-5.99601E-002	1.74123E-001	3.57785E+000	9	...........
	56	0.76	1.61637E-001	-9.95167E-005	0.00000E+000	-1.60856E-005	-5.99601E-002	1.61675E-001	3.57790E+000	9	...........
	57	0.773333	1.49253E-001	-9.72996E-005	0.00000E+000	-1.45222E-005	-5.99601E-002	1.49282E-001	3.57790E+000	9	...........
	58	0.786667	1.36930E-001	-9.88322E-005	0.00000E+000	-1.35331E-005	-5.99601E-002	1.36958E-001	3.57790E+000	9	...........
	59	0.8	1.24679E-001	-9.98439E-005	0.00000E+000	-1.24485E-005	-5.99601E-002	1.24702E-001	3.57790E+000	9	...........
	60	0.813333	1.12497E-001	-9.81883E-005	0.00000E+000	-1.10459E-005	-5.99601E-002	1.12519E-001	3.57790E+000	9	...........
	61	0.826667	1.00401E-001	-9.83863E-005	0.00000E+000	-9.87809E-006	-5.99601E-002	1.00422E-001	3.57790E+000	9	...........
	62	0.84	8.84062E-002	-9.80674E-005	0.00000E+000	-8.66976E-006	-5.99601E-002	8.84225E-002	3.57790E+000	9	...........
	63	0.853333	7.65209E-002	-9.92198E-005	0.00000E+000	-7.59238E-006	-5.99601E-002	7.65290E-002	3.57790E+000	9	...........
	64	0.866667	6.47375E-002	-9.69943E-005	0.00000E+000	-6.27916E-006	-5.99601E-002	6.47466E-002	3.57790E+000	9	...........
	65	0.88	5.30611E-002	-9.84477E-005	0.00000E+000	-5.22374E-006	-5.99601E-002	5.30686E-002	3.57790E+000	9	...........
	66	0.893333	4.15640E-002	-1.00756E-004	0.00000E+000	-4.18781E-006	-5.99601E-002	4.15677E-002	3.57790E+000	9	...........
	67	0.906667	3.01740E-002	-9.91843E-005	0.00000E+000	-2.99279E-006	-5.99601E-002	3.01674E-002	3.57790E+000	9	...........
	68	0.92	1.89372E-002	-9.97782E-005	0.00000E+000	-1.88952E-006	-5.99601E-002	1.89287E-002	3.57790E+000	9	...........
	69	0.933333	7.87739E-003	-9.74402E-005	0.00000E+000	-7.67574E-007	-5.99601E-002	7.85986E-003	3.57790E+000	9	...........
	70	0.938333	3.55357E-004	-9.99105E-005	0.00000E+000	-3.55039E-008	-5.99601E-002	3.38544E-004	3.57790E+000	9	...........
STARTTIMEOFFSET	QUANT	1236.832	Start Time Offset (s)
