EXPLAIN
TAG	PWR800_DISCHARGE
TITLE	LABEL	PWR Cyclic Charge Discharge (Cell) - Discharge Step	Test &Identifier
DATE	LABEL	12-7-2017	Date
TIME	LABEL	16:18:51	Time
NOTES	NOTES	2	&Notes...
	supercap test cell
	6M KOH
PSTAT	PSTAT	IFC5000-01520	Potentiostat
CAPACITY	QUANT	1.00000E-003	Capacity (A-hr)
CELLTYPE	SELECTOR	1	&Cell Type
WORKINGCONNECTION	SELECTOR	0	&Working Lead
MAXDISCHARGETIME	VARIABLEANDUNITS	1.00000E+002	s	1.00000E+002	second(s)	Max &Discharge Time
DISCHARGEMODE	MULTIPARAM	0	1.00000E-004	&Discharge Mode	Constant Current	Amp(s)
SAMPLETIME	QUANT	1.00000E-002	Sa&mple Period (s)
DISCHARGESTOPAT1	MULTIPARAM	3	0.00000E+000	Discharge Stop At &1	Voltage < Limit	V
DISCHARGESTOPAT2	MULTIPARAM	0	0.00000E+000	Discharge Stop At &2	None	N/A
AESBHCSELECTOR	TOGGLE	F	Save Both Half Cells
IRCOMP	TOGGLE	F	IR &Measure
EOC	QUANT	0	Open Circuit (V)
SEQUENCER	TOGGLE	TRUE	Run as Sequence
PSTATMODEL	IQUANT	53	Pstat Model
PSTATSECTION	LABEL	IFC5000-01520	Pstat Section
PSTATSERIALNO	LABEL	01520	Pstat Serial Number
CTRLMODE	IQUANT	0	Control Mode
ELECTROMETER	IQUANT	1	RE=0 or CS=1
IESTAB	IQUANT	0	I/E Stability
CASPEED	IQUANT	4	Control Amp Speed
CONVENTION	IQUANT	1	Current Convention
ICHRANGE	IQUANT	2	Ich Range
ICHRANGEMODE	TOGGLE	T	Ich Auto Range
ICHOFFSETENABLE	TOGGLE	F	Ich Offset Enable
ICHOFFSET	QUANT	0	Ich Offset (V)
ICHFILTER	IQUANT	1	Ich Filter
VCHRANGE	IQUANT	2	Vch Range
VCHRANGEMODE	TOGGLE	T	Vch Auto Range
VCHOFFSETENABLE	TOGGLE	F	Vch Offset Enable
VCHOFFSET	QUANT	0	Vch Offset (V)
VCHFILTER	IQUANT	1	Vch Filter
IERANGELOWERLIMIT	IQUANT	9	I/E Range Lower Limit
IERANGEMODE	TOGGLE	F	I/E AutoRange
IERANGE	IQUANT	9	I/E Range
ACHSELECT	IQUANT	1	Ach Select
ACHRANGE	IQUANT	2	Ach Range
ACHOFFSETENABLE	TOGGLE	F	Ach Offset Enable
ACHOFFSET	QUANT	0	Ach Offset (V)
ACHFILTER	IQUANT	1	Ach Filter
CABLEID	IQUANT	14	Cable ID
DCCALDATE	LABEL	5-7-2017	DC Calibration Date
ACCALDATE	LABEL	12/3/2015	AC Calibration Date
FRAMEWORKVERSION	QUANT	7.01	Framework Version
INSTRUMENTVERSION	LABEL	4.00	Instrument Version
CURVE	TABLE	72
	Pt	T	Vf	Im	Vu	Pwr	Sig	Ach	Temp	IERange	Over
	#	s	V	A	V	W	V	V	deg C	#	bits
	0	0.013333	8.42178E-001	-9.86676E-005	0.00000E+000	-8.30956E-005	-5.99601E-002	8.42489E-001	3.57750E+000	9	...........
	1	0.026667	8.29283E-001	-9.85384E-005	0.00000E+000	-8.17162E-005	-5.99601E-002	8.29573E-001	3.57750E+000	9	...........
	2	0.04	8.16947E-001	-9.81841E-005	0.00000E+000	-8.02112E-005	-5.99601E-002	8.17236E-001	3.57750E+000	9	...........
	3	0.053333	8.05011E-001	-9.92239E-005	0.00000E+000	-7.98764E-005	-5.99601E-002	8.05268E-001	3.57750E+000	9	...........
	4	0.066667	7.93321E-001	-9.89020E-005	0.00000E+000	-7.84610E-005	-5.99601E-002	7.93611E-001	3.57750E+000	9	...........
	5	0.08	7.81863E-001	-9.89385E-005	0.00000E+000	-7.73563E-005	-5.99601E-002	7.82135E-001	3.57750E+000	9	...........
	6	0.093333	7.70571E-001	-9.86134E-005	0.00000E+000	-7.59886E-005	-5.99601E-002	7.70834E-001	3.57750E+000	9	...........
	7	0.106667	7.59425E-001	-9.86019E-005	0.00000E+000	-7.48807E-005	-5.99601E-002	7.59671E-001	3.57750E+000	9	...........
	8	0.12	7.48379E-001	-9.95730E-005	0.00000E+000	-7.45183E-005	-5.99601E-002	7.48645E-001	3.57750E+000	9	...........
	9	0.133333	7.37423E-001	-9.91562E-005	0.00000E+000	-7.31200E-005	-5.99601E-002	7.37695E-001	3.57750E+000	9	...........
	10	0.146667	7.26566E-001	-9.91447E-005	0.00000E+000	-7.20352E-005	-5.99601E-002	7.26829E-001	3.57750E+000	9	...........
	11	0.16	7.15732E-001	-9.86373E-005	0.00000E+000	-7.05979E-005	-5.99601E-002	7.16008E-001	3.57750E+000	9	...........
	12	0.173333	7.04893E-001	-9.88780E-005	0.00000E+000	-6.96984E-005	-5.99601E-002	7.05164E-001	3.57750E+000	9	...........
	13	0.186667	6.94019E-001	-9.88280E-005	0.00000E+000	-6.85885E-005	-5.99601E-002	6.94312E-001	3.57750E+000	9	...........
	14	0.2	6.83060E-001	-9.77257E-005	0.00000E+000	-6.67525E-005	-5.99601E-002	6.83332E-001	3.57750E+000	9	...........
	15	0.213333	6.71997E-001	-9.86123E-005	0.00000E+000	-6.62672E-005	-5.99601E-002	6.72262E-001	3.57750E+000	9	...........
	16	0.226667	6.60756E-001	-9.95188E-005	0.00000E+000	-6.57576E-005	-5.99601E-002	6.61034E-001	3.57750E+000	9	...........
	17	0.24	6.49400E-001	-9.87676E-005	0.00000E+000	-6.41397E-005	-5.99601E-002	6.49672E-001	3.57750E+000	9	...........
	18	0.253333	6.37881E-001	-9.83446E-005	0.00000E+000	-6.27321E-005	-5.99601E-002	6.38123E-001	3.57750E+000	9	...........
	19	0.266667	6.26235E-001	-9.89676E-005	0.00000E+000	-6.19770E-005	-5.99601E-002	6.26467E-001	3.57750E+000	9	...........
	20	0.28	6.14420E-001	-9.91979E-005	0.00000E+000	-6.09491E-005	-5.99601E-002	6.14683E-001	3.57750E+000	9	...........
	21	0.293333	6.02488E-001	-9.79924E-005	0.00000E+000	-5.90392E-005	-5.99601E-002	6.02757E-001	3.57750E+000	9	...........
	22	0.306667	5.90485E-001	-9.83019E-005	0.00000E+000	-5.80457E-005	-5.99601E-002	5.90735E-001	3.57750E+000	9	...........
	23	0.32	5.78364E-001	-9.85467E-005	0.00000E+000	-5.69959E-005	-5.99601E-002	5.78603E-001	3.57750E+000	9	...........
	24	0.333333	5.66154E-001	-9.92844E-005	0.00000E+000	-5.62103E-005	-5.99601E-002	5.66411E-001	3.57750E+000	9	...........
	25	0.346667	5.53869E-001	-9.81300E-005	0.00000E+000	-5.43511E-005	-5.99601E-002	5.54106E-001	3.57750E+000	9	...........
	26	0.36	5.41529E-001	-9.92614E-005	0.00000E+000	-5.37530E-005	-5.99601E-002	5.41759E-001	3.57750E+000	9	...........
	27	0.373333	5.29104E-001	-9.81748E-005	0.00000E+000	-5.19447E-005	-5.99601E-002	5.29345E-001	3.57750E+000	9	...........
	28	0.386667	5.16687E-001	-9.85894E-005	0.00000E+000	-5.09399E-005	-5.99601E-002	5.16908E-001	3.57750E+000	9	...........
	29	0.4	5.04173E-001	-9.79122E-005	0.00000E+000	-4.93647E-005	-5.99601E-002	5.04419E-001	3.57750E+000	9	...........
	30	0.413333	4.91664E-001	-9.85655E-005	0.00000E+000	-4.84611E-005	-5.99601E-002	4.91908E-001	3.57750E+000	9	...........
	31	0.426667	4.79429E-001	-9.81977E-005	0.00000E+000	-4.70789E-005	-5.99601E-002	4.79562E-001	3.57750E+000	9	...........
	32	0.44	4.66933E-001	-9.92323E-005	0.00000E+000	-4.63348E-005	-5.99601E-002	4.67031E-001	3.57750E+000	9	...........
	33	0.453333	4.54360E-001	-9.75194E-005	0.00000E+000	-4.43089E-005	-5.99601E-002	4.54468E-001	3.57750E+000	9	...........
	34	0.466667	4.41794E-001	-9.90426E-005	0.00000E+000	-4.37565E-005	-5.99601E-002	4.41902E-001	3.57750E+000	9	...........
	35	0.48	4.29236E-001	-9.80758E-005	0.00000E+000	-4.20977E-005	-5.99601E-002	4.29339E-001	3.57750E+000	9	...........
	36	0.493333	4.16687E-001	-9.87113E-005	0.00000E+000	-4.11317E-005	-5.99601E-002	4.16782E-001	3.57750E+000	9	...........
	37	0.506667	4.04160E-001	-9.78903E-005	0.00000E+000	-3.95633E-005	-5.99601E-002	4.04253E-001	3.57750E+000	9	...........
	38	0.52	3.91646E-001	-9.88207E-005	0.00000E+000	-3.87027E-005	-5.99601E-002	3.91726E-001	3.57750E+000	9	...........
	39	0.533333	3.79145E-001	-9.88249E-005	0.00000E+000	-3.74689E-005	-5.99601E-002	3.79228E-001	3.57750E+000	9	...........
	40	0.546667	3.66681E-001	-9.87092E-005	0.00000E+000	-3.61948E-005	-5.99601E-002	3.66763E-001	3.57750E+000	9	...........
	41	0.56	3.54239E-001	-9.85217E-005	0.00000E+000	-3.49003E-005	-5.99601E-002	3.54315E-001	3.57750E+000	9	...........
	42	0.573333	3.41821E-001	-9.89395E-005	0.00000E+000	-3.38196E-005	-5.99601E-002	3.41890E-001	3.57750E+000	9	...........
	43	0.586667	3.29433E-001	-9.87843E-005	0.00000E+000	-3.25428E-005	-5.99601E-002	3.29502E-001	3.57750E+000	9	...........
	44	0.6	3.17074E-001	-9.93167E-005	0.00000E+000	-3.14907E-005	-5.99601E-002	3.17138E-001	3.57750E+000	9	...........
	45	0.613333	3.04736E-001	-9.88603E-005	0.00000E+000	-3.01263E-005	-5.99601E-002	3.04803E-001	3.57750E+000	9	...........
	46	0.626667	2.92423E-001	-9.80310E-005	0.00000E+000	-2.86665E-005	-5.99601E-002	2.92487E-001	3.57843E+000	9	...........
	47	0.64	2.80133E-001	-9.87738E-005	0.00000E+000	-2.76698E-005	-5.99601E-002	2.80194E-001	3.57990E+000	9	...........
	48	0.653333	2.67857E-001	-9.88009E-005	0.00000E+000	-2.64645E-005	-5.99601E-002	2.67919E-001	3.57990E+000	9	...........
	49	0.666667	2.55590E-001	-9.80768E-005	0.00000E+000	-2.50675E-005	-5.99601E-002	2.55652E-001	3.57990E+000	9	...........
	50	0.68	2.43340E-001	-9.81695E-005	0.00000E+000	-2.38885E-005	-5.99601E-002	2.43391E-001	3.57990E+000	9	...........
	51	0.693333	2.31100E-001	-9.86738E-005	0.00000E+000	-2.28036E-005	-5.99601E-002	2.31146E-001	3.57990E+000	9	...........
	52	0.706667	2.18861E-001	-9.94021E-005	0.00000E+000	-2.17552E-005	-5.99601E-002	2.18909E-001	3.57990E+000	9	...........
	53	0.72	2.06651E-001	-9.87947E-005	0.00000E+000	-2.04161E-005	-5.99601E-002	2.06692E-001	3.57990E+000	9	...........
	54	0.733333	1.94448E-001	-9.89958E-005	0.00000E+000	-1.92496E-005	-5.99601E-002	1.94489E-001	3.57990E+000	9	...........
	55	0.746667	1.82260E-001	-9.84686E-005	0.00000E+000	-1.79469E-005	-5.99601E-002	1.82302E-001	3.57990E+000	9	...........
	56	0.76	1.70101E-001	-9.89728E-005	0.00000E+000	-1.68354E-005	-5.99601E-002	1.70135E-001	3.57990E+000	9	...........
	57	0.773333	1.57966E-001	-9.85394E-005	0.00000E+000	-1.55659E-005	-5.99601E-002	1.57998E-001	3.57990E+000	9	...........
	58	0.786667	1.45864E-001	-9.89270E-005	0.00000E+000	-1.44299E-005	-5.99601E-002	1.45889E-001	3.57990E+000	9	...........
	59	0.8	1.33797E-001	-9.91093E-005	0.00000E+000	-1.32606E-005	-5.99601E-002	1.33827E-001	3.57990E+000	9	...........
	60	0.813333	1.21777E-001	-9.91875E-005	0.00000E+000	-1.20788E-005	-5.99601E-002	1.21806E-001	3.57990E+000	9	...........
	61	0.826667	1.09802E-001	-9.90520E-005	0.00000E+000	-1.08761E-005	-5.99601E-002	1.09825E-001	3.57990E+000	9	...........
	62	0.84	9.78869E-002	-9.89176E-005	0.00000E+000	-9.68274E-006	-5.99601E-002	9.79099E-002	3.57990E+000	9	...........
	63	0.853333	8.60441E-002	-9.95761E-005	0.00000E+000	-8.56793E-006	-5.99601E-002	8.60636E-002	3.57990E+000	9	...........
	64	0.866667	7.42815E-002	-9.88447E-005	0.00000E+000	-7.34233E-006	-5.99601E-002	7.42914E-002	3.57990E+000	9	...........
	65	0.88	6.26005E-002	-9.94802E-005	0.00000E+000	-6.22751E-006	-5.99601E-002	6.26112E-002	3.57990E+000	9	...........
	66	0.893333	5.10297E-002	-9.87217E-005	0.00000E+000	-5.03774E-006	-5.99601E-002	5.10266E-002	3.57990E+000	9	...........
	67	0.906667	3.95802E-002	-9.86363E-005	0.00000E+000	-3.90405E-006	-5.99601E-002	3.95806E-002	3.57990E+000	9	...........
	68	0.92	2.82231E-002	-9.89510E-005	0.00000E+000	-2.79270E-006	-5.99601E-002	2.82189E-002	3.57990E+000	9	...........
	69	0.933333	1.70062E-002	-9.99272E-005	0.00000E+000	-1.69938E-006	-5.99601E-002	1.69933E-002	3.57990E+000	9	...........
	70	0.946667	5.92674E-003	-9.94781E-005	0.00000E+000	-5.89581E-007	-5.99601E-002	5.90769E-003	3.57990E+000	9	...........
	71	0.948333	-2.35994E-004	-9.87020E-005	0.00000E+000	2.32931E-008	-5.99601E-002	-2.66086E-004	3.57990E+000	9	...........
STARTTIMEOFFSET	QUANT	375.83	Start Time Offset (s)
