EXPLAIN
TAG	PWR800_DISCHARGE
TITLE	LABEL	PWR Cyclic Charge Discharge (Cell) - Discharge Step	Test &Identifier
DATE	LABEL	12-7-2017	Date
TIME	LABEL	16:27:37	Time
NOTES	NOTES	2	&Notes...
	supercap test cell
	6M KOH
PSTAT	PSTAT	IFC5000-01520	Potentiostat
CAPACITY	QUANT	1.00000E-003	Capacity (A-hr)
CELLTYPE	SELECTOR	1	&Cell Type
WORKINGCONNECTION	SELECTOR	0	&Working Lead
MAXDISCHARGETIME	VARIABLEANDUNITS	1.00000E+002	s	1.00000E+002	second(s)	Max &Discharge Time
DISCHARGEMODE	MULTIPARAM	0	1.00000E-004	&Discharge Mode	Constant Current	Amp(s)
SAMPLETIME	QUANT	1.00000E-002	Sa&mple Period (s)
DISCHARGESTOPAT1	MULTIPARAM	3	0.00000E+000	Discharge Stop At &1	Voltage < Limit	V
DISCHARGESTOPAT2	MULTIPARAM	0	0.00000E+000	Discharge Stop At &2	None	N/A
AESBHCSELECTOR	TOGGLE	F	Save Both Half Cells
IRCOMP	TOGGLE	F	IR &Measure
EOC	QUANT	0	Open Circuit (V)
SEQUENCER	TOGGLE	TRUE	Run as Sequence
PSTATMODEL	IQUANT	53	Pstat Model
PSTATSECTION	LABEL	IFC5000-01520	Pstat Section
PSTATSERIALNO	LABEL	01520	Pstat Serial Number
CTRLMODE	IQUANT	0	Control Mode
ELECTROMETER	IQUANT	1	RE=0 or CS=1
IESTAB	IQUANT	0	I/E Stability
CASPEED	IQUANT	4	Control Amp Speed
CONVENTION	IQUANT	1	Current Convention
ICHRANGE	IQUANT	2	Ich Range
ICHRANGEMODE	TOGGLE	T	Ich Auto Range
ICHOFFSETENABLE	TOGGLE	F	Ich Offset Enable
ICHOFFSET	QUANT	0	Ich Offset (V)
ICHFILTER	IQUANT	1	Ich Filter
VCHRANGE	IQUANT	2	Vch Range
VCHRANGEMODE	TOGGLE	T	Vch Auto Range
VCHOFFSETENABLE	TOGGLE	F	Vch Offset Enable
VCHOFFSET	QUANT	0	Vch Offset (V)
VCHFILTER	IQUANT	1	Vch Filter
IERANGELOWERLIMIT	IQUANT	9	I/E Range Lower Limit
IERANGEMODE	TOGGLE	F	I/E AutoRange
IERANGE	IQUANT	9	I/E Range
ACHSELECT	IQUANT	1	Ach Select
ACHRANGE	IQUANT	2	Ach Range
ACHOFFSETENABLE	TOGGLE	F	Ach Offset Enable
ACHOFFSET	QUANT	0	Ach Offset (V)
ACHFILTER	IQUANT	1	Ach Filter
CABLEID	IQUANT	14	Cable ID
DCCALDATE	LABEL	5-7-2017	DC Calibration Date
ACCALDATE	LABEL	12/3/2015	AC Calibration Date
FRAMEWORKVERSION	QUANT	7.01	Framework Version
INSTRUMENTVERSION	LABEL	4.00	Instrument Version
CURVE	TABLE	71
	Pt	T	Vf	Im	Vu	Pwr	Sig	Ach	Temp	IERange	Over
	#	s	V	A	V	W	V	V	deg C	#	bits
	0	0.013333	8.47150E-001	-1.00102E-004	0.00000E+000	-8.48016E-005	-5.99601E-002	8.47467E-001	3.57820E+000	9	...........
	1	0.026667	8.34175E-001	-9.85332E-005	0.00000E+000	-8.21939E-005	-5.99601E-002	8.34481E-001	3.57820E+000	9	...........
	2	0.04	8.21799E-001	-9.76601E-005	0.00000E+000	-8.02569E-005	-5.99601E-002	8.22106E-001	3.57820E+000	9	...........
	3	0.053333	8.09769E-001	-9.82435E-005	0.00000E+000	-7.95546E-005	-5.99601E-002	8.10080E-001	3.57820E+000	9	...........
	4	0.066667	7.98056E-001	-9.86259E-005	0.00000E+000	-7.87090E-005	-5.99601E-002	7.98350E-001	3.57820E+000	9	...........
	5	0.08	7.86486E-001	-9.80028E-005	0.00000E+000	-7.70778E-005	-5.99601E-002	7.86789E-001	3.57820E+000	9	...........
	6	0.093333	7.75127E-001	-9.80581E-005	0.00000E+000	-7.60074E-005	-5.99601E-002	7.75402E-001	3.57820E+000	9	...........
	7	0.106667	7.63871E-001	-9.92208E-005	0.00000E+000	-7.57919E-005	-5.99601E-002	7.64165E-001	3.57820E+000	9	...........
	8	0.12	7.52760E-001	-9.87186E-005	0.00000E+000	-7.43114E-005	-5.99601E-002	7.53036E-001	3.57820E+000	9	...........
	9	0.133333	7.41718E-001	-9.76997E-005	0.00000E+000	-7.24656E-005	-5.99601E-002	7.42014E-001	3.57820E+000	9	...........
	10	0.146667	7.30800E-001	-9.99324E-005	0.00000E+000	-7.30306E-005	-5.99601E-002	7.31091E-001	3.57820E+000	9	...........
	11	0.16	7.19977E-001	-9.87322E-005	0.00000E+000	-7.10849E-005	-5.99601E-002	7.20259E-001	3.57820E+000	9	...........
	12	0.173333	7.09179E-001	-9.95855E-005	0.00000E+000	-7.06239E-005	-5.99601E-002	7.09468E-001	3.57820E+000	9	...........
	13	0.186667	6.98478E-001	-9.86842E-005	0.00000E+000	-6.89288E-005	-5.99601E-002	6.98762E-001	3.57820E+000	9	...........
	14	0.2	6.87827E-001	-9.73517E-005	0.00000E+000	-6.69611E-005	-5.99601E-002	6.88098E-001	3.57820E+000	9	...........
	15	0.213333	6.77180E-001	-9.91260E-005	0.00000E+000	-6.71262E-005	-5.99601E-002	6.77427E-001	3.57820E+000	9	...........
	16	0.226667	6.66483E-001	-9.90843E-005	0.00000E+000	-6.60380E-005	-5.99601E-002	6.66729E-001	3.57820E+000	9	...........
	17	0.24	6.55705E-001	-9.88353E-005	0.00000E+000	-6.48068E-005	-5.99601E-002	6.55928E-001	3.57820E+000	9	...........
	18	0.253333	6.44836E-001	-9.90531E-005	0.00000E+000	-6.38730E-005	-5.99601E-002	6.45034E-001	3.57820E+000	9	...........
	19	0.266667	6.33771E-001	-9.92635E-005	0.00000E+000	-6.29103E-005	-5.99601E-002	6.33983E-001	3.57820E+000	9	...........
	20	0.28	6.22545E-001	-1.00071E-004	0.00000E+000	-6.22987E-005	-5.99601E-002	6.22768E-001	3.57820E+000	9	...........
	21	0.293333	6.11092E-001	-9.95021E-005	0.00000E+000	-6.08050E-005	-5.99601E-002	6.11361E-001	3.57820E+000	9	...........
	22	0.306667	5.99508E-001	-9.84040E-005	0.00000E+000	-5.89940E-005	-5.99601E-002	5.99792E-001	3.57820E+000	9	...........
	23	0.32	5.87746E-001	-9.96480E-005	0.00000E+000	-5.85677E-005	-5.99601E-002	5.88017E-001	3.57820E+000	9	...........
	24	0.333333	5.75802E-001	-9.87686E-005	0.00000E+000	-5.68711E-005	-5.99601E-002	5.76073E-001	3.57820E+000	9	...........
	25	0.346667	5.63711E-001	-9.94657E-005	0.00000E+000	-5.60699E-005	-5.99601E-002	5.63976E-001	3.57820E+000	9	...........
	26	0.36	5.51466E-001	-9.87165E-005	0.00000E+000	-5.44389E-005	-5.99601E-002	5.51747E-001	3.57820E+000	9	...........
	27	0.373333	5.39092E-001	-9.93385E-005	0.00000E+000	-5.35526E-005	-5.99601E-002	5.39374E-001	3.57689E+000	9	...........
	28	0.386667	5.26616E-001	-9.88499E-005	0.00000E+000	-5.20559E-005	-5.99601E-002	5.26884E-001	3.57670E+000	9	...........
	29	0.4	5.14010E-001	-9.91750E-005	0.00000E+000	-5.09769E-005	-5.99601E-002	5.14298E-001	3.57670E+000	9	...........
	30	0.413333	5.01294E-001	-9.87790E-005	0.00000E+000	-4.95174E-005	-5.99601E-002	5.01601E-001	3.57670E+000	9	...........
	31	0.426667	4.88588E-001	-9.69964E-005	0.00000E+000	-4.73912E-005	-5.99601E-002	4.88838E-001	3.57670E+000	9	...........
	32	0.44	4.76068E-001	-9.78184E-005	0.00000E+000	-4.65682E-005	-5.99601E-002	4.76177E-001	3.57670E+000	9	...........
	33	0.453333	4.63173E-001	-9.71100E-005	0.00000E+000	-4.49787E-005	-5.99601E-002	4.63275E-001	3.57670E+000	9	...........
	34	0.466667	4.50221E-001	-9.87645E-005	0.00000E+000	-4.44658E-005	-5.99601E-002	4.50327E-001	3.57670E+000	9	...........
	35	0.48	4.37246E-001	-9.88572E-005	0.00000E+000	-4.32249E-005	-5.99601E-002	4.37346E-001	3.57670E+000	9	...........
	36	0.493333	4.24237E-001	-9.86530E-005	0.00000E+000	-4.18522E-005	-5.99601E-002	4.24334E-001	3.57670E+000	9	...........
	37	0.506667	4.11213E-001	-9.82508E-005	0.00000E+000	-4.04020E-005	-5.99601E-002	4.11300E-001	3.57670E+000	9	...........
	38	0.52	3.98184E-001	-9.87259E-005	0.00000E+000	-3.93110E-005	-5.99601E-002	3.98264E-001	3.57670E+000	9	...........
	39	0.533333	3.85158E-001	-9.92364E-005	0.00000E+000	-3.82217E-005	-5.99601E-002	3.85237E-001	3.57670E+000	9	...........
	40	0.546667	3.72139E-001	-9.84384E-005	0.00000E+000	-3.66327E-005	-5.99601E-002	3.72214E-001	3.57670E+000	9	...........
	41	0.56	3.59141E-001	-9.85425E-005	0.00000E+000	-3.53907E-005	-5.99601E-002	3.59215E-001	3.57670E+000	9	...........
	42	0.573333	3.46172E-001	-9.96699E-005	0.00000E+000	-3.45029E-005	-5.99601E-002	3.46242E-001	3.57670E+000	9	...........
	43	0.586667	3.33232E-001	-9.92510E-005	0.00000E+000	-3.30736E-005	-5.99601E-002	3.33309E-001	3.57670E+000	9	...........
	44	0.6	3.20349E-001	-9.85696E-005	0.00000E+000	-3.15766E-005	-5.99601E-002	3.20420E-001	3.57670E+000	9	...........
	45	0.613333	3.07484E-001	-9.79758E-005	0.00000E+000	-3.01260E-005	-5.99601E-002	3.07555E-001	3.57670E+000	9	...........
	46	0.626667	2.94672E-001	-9.92427E-005	0.00000E+000	-2.92440E-005	-5.99601E-002	2.94734E-001	3.57670E+000	9	...........
	47	0.64	2.81908E-001	-9.86415E-005	0.00000E+000	-2.78078E-005	-5.99601E-002	2.81974E-001	3.57670E+000	9	...........
	48	0.653333	2.69200E-001	-9.91427E-005	0.00000E+000	-2.66892E-005	-5.99601E-002	2.69261E-001	3.57670E+000	9	...........
	49	0.666667	2.56530E-001	-9.75965E-005	0.00000E+000	-2.50364E-005	-5.99601E-002	2.56596E-001	3.57670E+000	9	...........
	50	0.68	2.43925E-001	-9.73423E-005	0.00000E+000	-2.37443E-005	-5.99601E-002	2.43975E-001	3.57670E+000	9	...........
	51	0.693333	2.31351E-001	-9.94177E-005	0.00000E+000	-2.30004E-005	-5.99601E-002	2.31402E-001	3.57670E+000	9	...........
	52	0.706667	2.18828E-001	-9.90926E-005	0.00000E+000	-2.16843E-005	-5.99601E-002	2.18878E-001	3.57670E+000	9	...........
	53	0.72	2.06358E-001	-9.87009E-005	0.00000E+000	-2.03677E-005	-5.99601E-002	2.06402E-001	3.57670E+000	9	...........
	54	0.733333	1.93924E-001	-9.93771E-005	0.00000E+000	-1.92716E-005	-5.99601E-002	1.93968E-001	3.57670E+000	9	...........
	55	0.746667	1.81532E-001	-9.87186E-005	0.00000E+000	-1.79205E-005	-5.99601E-002	1.81570E-001	3.57670E+000	9	...........
	56	0.76	1.69183E-001	-9.68151E-005	0.00000E+000	-1.63795E-005	-5.99601E-002	1.69217E-001	3.57670E+000	9	...........
	57	0.773333	1.56882E-001	-9.86676E-005	0.00000E+000	-1.54791E-005	-5.99601E-002	1.56912E-001	3.57670E+000	9	...........
	58	0.786667	1.44620E-001	-9.85353E-005	0.00000E+000	-1.42502E-005	-5.99601E-002	1.44649E-001	3.57670E+000	9	...........
	59	0.8	1.32410E-001	-9.91250E-005	0.00000E+000	-1.31251E-005	-5.99601E-002	1.32438E-001	3.57670E+000	9	...........
	60	0.813333	1.20263E-001	-9.81372E-005	0.00000E+000	-1.18023E-005	-5.99601E-002	1.20290E-001	3.57670E+000	9	...........
	61	0.826667	1.08185E-001	-9.92146E-005	0.00000E+000	-1.07335E-005	-5.99601E-002	1.08207E-001	3.57670E+000	9	...........
	62	0.84	9.61779E-002	-9.95355E-005	0.00000E+000	-9.57311E-006	-5.99601E-002	9.61971E-002	3.57670E+000	9	...........
	63	0.853333	8.42610E-002	-9.93969E-005	0.00000E+000	-8.37528E-006	-5.99601E-002	8.42744E-002	3.57670E+000	9	...........
	64	0.866667	7.24329E-002	-9.86561E-005	0.00000E+000	-7.14595E-006	-5.99601E-002	7.24463E-002	3.57670E+000	9	...........
	65	0.88	6.07155E-002	-9.86759E-005	0.00000E+000	-5.99116E-006	-5.99601E-002	6.07257E-002	3.57670E+000	9	...........
	66	0.893333	4.91180E-002	-9.97209E-005	0.00000E+000	-4.89809E-006	-5.99601E-002	4.91241E-002	3.57670E+000	9	...........
	67	0.906667	3.76525E-002	-9.84904E-005	0.00000E+000	-3.70841E-006	-5.99601E-002	3.76605E-002	3.57670E+000	9	...........
	68	0.92	2.62958E-002	-9.91031E-005	0.00000E+000	-2.60599E-006	-5.99601E-002	2.62958E-002	3.57670E+000	9	...........
	69	0.933333	1.50978E-002	-9.91635E-005	0.00000E+000	-1.49715E-006	-5.99601E-002	1.50826E-002	3.57670E+000	9	...........
	70	0.946667	4.04629E-003	-9.76965E-005	0.00000E+000	-3.95308E-007	-5.99601E-002	4.03126E-003	3.57670E+000	9	...........
STARTTIMEOFFSET	QUANT	751.2017	Start Time Offset (s)
