EXPLAIN
TAG	PWR800_DISCHARGE
TITLE	LABEL	PWR Cyclic Charge Discharge (Cell) - Discharge Step	Test &Identifier
DATE	LABEL	12-7-2017	Date
TIME	LABEL	16:51:27	Time
NOTES	NOTES	2	&Notes...
	supercap test cell
	6M KOH
PSTAT	PSTAT	IFC5000-01520	Potentiostat
CAPACITY	QUANT	1.00000E-003	Capacity (A-hr)
CELLTYPE	SELECTOR	1	&Cell Type
WORKINGCONNECTION	SELECTOR	0	&Working Lead
MAXDISCHARGETIME	VARIABLEANDUNITS	1.00000E+002	s	1.00000E+002	second(s)	Max &Discharge Time
DISCHARGEMODE	MULTIPARAM	0	1.00000E-004	&Discharge Mode	Constant Current	Amp(s)
SAMPLETIME	QUANT	1.00000E-002	Sa&mple Period (s)
DISCHARGESTOPAT1	MULTIPARAM	3	0.00000E+000	Discharge Stop At &1	Voltage < Limit	V
DISCHARGESTOPAT2	MULTIPARAM	0	0.00000E+000	Discharge Stop At &2	None	N/A
AESBHCSELECTOR	TOGGLE	F	Save Both Half Cells
IRCOMP	TOGGLE	F	IR &Measure
EOC	QUANT	0	Open Circuit (V)
SEQUENCER	TOGGLE	TRUE	Run as Sequence
PSTATMODEL	IQUANT	53	Pstat Model
PSTATSECTION	LABEL	IFC5000-01520	Pstat Section
PSTATSERIALNO	LABEL	01520	Pstat Serial Number
CTRLMODE	IQUANT	0	Control Mode
ELECTROMETER	IQUANT	1	RE=0 or CS=1
IESTAB	IQUANT	0	I/E Stability
CASPEED	IQUANT	4	Control Amp Speed
CONVENTION	IQUANT	1	Current Convention
ICHRANGE	IQUANT	2	Ich Range
ICHRANGEMODE	TOGGLE	T	Ich Auto Range
ICHOFFSETENABLE	TOGGLE	F	Ich Offset Enable
ICHOFFSET	QUANT	0	Ich Offset (V)
ICHFILTER	IQUANT	1	Ich Filter
VCHRANGE	IQUANT	2	Vch Range
VCHRANGEMODE	TOGGLE	T	Vch Auto Range
VCHOFFSETENABLE	TOGGLE	F	Vch Offset Enable
VCHOFFSET	QUANT	0	Vch Offset (V)
VCHFILTER	IQUANT	1	Vch Filter
IERANGELOWERLIMIT	IQUANT	9	I/E Range Lower Limit
IERANGEMODE	TOGGLE	F	I/E AutoRange
IERANGE	IQUANT	9	I/E Range
ACHSELECT	IQUANT	1	Ach Select
ACHRANGE	IQUANT	2	Ach Range
ACHOFFSETENABLE	TOGGLE	F	Ach Offset Enable
ACHOFFSET	QUANT	0	Ach Offset (V)
ACHFILTER	IQUANT	1	Ach Filter
CABLEID	IQUANT	14	Cable ID
DCCALDATE	LABEL	5-7-2017	DC Calibration Date
ACCALDATE	LABEL	12/3/2015	AC Calibration Date
FRAMEWORKVERSION	QUANT	7.01	Framework Version
INSTRUMENTVERSION	LABEL	4.00	Instrument Version
CURVE	TABLE	70
	Pt	T	Vf	Im	Vu	Pwr	Sig	Ach	Temp	IERange	Over
	#	s	V	A	V	W	V	V	deg C	#	bits
	0	0.013333	8.46951E-001	-9.88291E-005	0.00000E+000	-8.37033E-005	-5.99601E-002	8.47262E-001	3.57680E+000	9	...........
	1	0.026667	8.33730E-001	-9.89395E-005	0.00000E+000	-8.24888E-005	-5.99601E-002	8.34026E-001	3.57680E+000	9	...........
	2	0.04	8.21107E-001	-9.94459E-005	0.00000E+000	-8.16557E-005	-5.99601E-002	8.21402E-001	3.57680E+000	9	...........
	3	0.053333	8.08830E-001	-9.77517E-005	0.00000E+000	-7.90646E-005	-5.99601E-002	8.09093E-001	3.57680E+000	9	...........
	4	0.066667	7.96833E-001	-9.88853E-005	0.00000E+000	-7.87951E-005	-5.99601E-002	7.97110E-001	3.57680E+000	9	...........
	5	0.08	7.85010E-001	-9.81841E-005	0.00000E+000	-7.70756E-005	-5.99601E-002	7.85279E-001	3.57680E+000	9	...........
	6	0.093333	7.73354E-001	-1.00690E-004	0.00000E+000	-7.78689E-005	-5.99601E-002	7.73616E-001	3.57680E+000	9	...........
	7	0.106667	7.61802E-001	-9.91302E-005	0.00000E+000	-7.55175E-005	-5.99601E-002	7.62045E-001	3.57674E+000	9	...........
	8	0.12	7.50371E-001	-9.84738E-005	0.00000E+000	-7.38919E-005	-5.99601E-002	7.50620E-001	3.57630E+000	9	...........
	9	0.133333	7.39023E-001	-9.91072E-005	0.00000E+000	-7.32426E-005	-5.99601E-002	7.39286E-001	3.57630E+000	9	...........
	10	0.146667	7.27798E-001	-9.80466E-005	0.00000E+000	-7.13581E-005	-5.99601E-002	7.28043E-001	3.57630E+000	9	...........
	11	0.16	7.16631E-001	-9.82070E-005	0.00000E+000	-7.03782E-005	-5.99601E-002	7.16875E-001	3.57630E+000	9	...........
	12	0.173333	7.05521E-001	-9.84248E-005	0.00000E+000	-6.94408E-005	-5.99601E-002	7.05780E-001	3.57630E+000	9	...........
	13	0.186667	6.94537E-001	-9.94500E-005	0.00000E+000	-6.90717E-005	-5.99601E-002	6.94770E-001	3.57630E+000	9	...........
	14	0.2	6.83594E-001	-9.91375E-005	0.00000E+000	-6.77698E-005	-5.99601E-002	6.83844E-001	3.57630E+000	9	...........
	15	0.213333	6.72755E-001	-9.69235E-005	0.00000E+000	-6.52057E-005	-5.99601E-002	6.72987E-001	3.57630E+000	9	...........
	16	0.226667	6.61927E-001	-9.82394E-005	0.00000E+000	-6.50273E-005	-5.99601E-002	6.62160E-001	3.57630E+000	9	...........
	17	0.24	6.51151E-001	-9.78893E-005	0.00000E+000	-6.37407E-005	-5.99601E-002	6.51361E-001	3.57630E+000	9	...........
	18	0.253333	6.40356E-001	-9.83592E-005	0.00000E+000	-6.29848E-005	-5.99601E-002	6.40532E-001	3.57630E+000	9	...........
	19	0.266667	6.29467E-001	-9.98532E-005	0.00000E+000	-6.28543E-005	-5.99601E-002	6.29653E-001	3.57630E+000	9	...........
	20	0.28	6.18490E-001	-9.90676E-005	0.00000E+000	-6.12723E-005	-5.99601E-002	6.18674E-001	3.57630E+000	9	...........
	21	0.293333	6.07266E-001	-9.95990E-005	0.00000E+000	-6.04831E-005	-5.99601E-002	6.07531E-001	3.57630E+000	9	...........
	22	0.306667	5.95958E-001	-9.83165E-005	0.00000E+000	-5.85925E-005	-5.99601E-002	5.96186E-001	3.57630E+000	9	...........
	23	0.32	5.84400E-001	-9.84884E-005	0.00000E+000	-5.75566E-005	-5.99601E-002	5.84621E-001	3.57630E+000	9	...........
	24	0.333333	5.72628E-001	-9.71527E-005	0.00000E+000	-5.56323E-005	-5.99601E-002	5.72837E-001	3.57630E+000	9	...........
	25	0.346667	5.60594E-001	-9.93688E-005	0.00000E+000	-5.57055E-005	-5.99601E-002	5.60814E-001	3.57630E+000	9	...........
	26	0.36	5.48423E-001	-9.92771E-005	0.00000E+000	-5.44458E-005	-5.99601E-002	5.48614E-001	3.57630E+000	9	...........
	27	0.373333	5.36021E-001	-9.84092E-005	0.00000E+000	-5.27494E-005	-5.99601E-002	5.36204E-001	3.57630E+000	9	...........
	28	0.386667	5.23475E-001	-9.79570E-005	0.00000E+000	-5.12780E-005	-5.99601E-002	5.23659E-001	3.57630E+000	9	...........
	29	0.4	5.10743E-001	-9.95334E-005	0.00000E+000	-5.08359E-005	-5.99601E-002	5.10929E-001	3.57630E+000	9	...........
	30	0.413333	4.97882E-001	-9.84852E-005	0.00000E+000	-4.90340E-005	-5.99601E-002	4.98078E-001	3.57630E+000	9	...........
	31	0.426667	4.85044E-001	-9.80414E-005	0.00000E+000	-4.75544E-005	-5.99601E-002	4.85199E-001	3.57630E+000	9	...........
	32	0.44	4.72133E-001	-9.80278E-005	0.00000E+000	-4.62822E-005	-5.99601E-002	4.72228E-001	3.57630E+000	9	...........
	33	0.453333	4.58947E-001	-9.86822E-005	0.00000E+000	-4.52899E-005	-5.99601E-002	4.59039E-001	3.57630E+000	9	...........
	34	0.466667	4.45679E-001	-9.77038E-005	0.00000E+000	-4.35445E-005	-5.99601E-002	4.45775E-001	3.57630E+000	9	...........
	35	0.48	4.32339E-001	-9.80299E-005	0.00000E+000	-4.23821E-005	-5.99601E-002	4.32433E-001	3.57630E+000	9	...........
	36	0.493333	4.18947E-001	-9.75965E-005	0.00000E+000	-4.08878E-005	-5.99601E-002	4.19032E-001	3.57630E+000	9	...........
	37	0.506667	4.05508E-001	-9.96063E-005	0.00000E+000	-4.03912E-005	-5.99601E-002	4.05591E-001	3.57630E+000	9	...........
	38	0.52	3.92052E-001	-9.91166E-005	0.00000E+000	-3.88588E-005	-5.99601E-002	3.92127E-001	3.57630E+000	9	...........
	39	0.533333	3.78570E-001	-9.96532E-005	0.00000E+000	-3.77257E-005	-5.99601E-002	3.78648E-001	3.57630E+000	9	...........
	40	0.546667	3.65097E-001	-9.99178E-005	0.00000E+000	-3.64797E-005	-5.99601E-002	3.65169E-001	3.57630E+000	9	...........
	41	0.56	3.51624E-001	-9.97584E-005	0.00000E+000	-3.50775E-005	-5.99601E-002	3.51696E-001	3.57630E+000	9	...........
	42	0.573333	3.38177E-001	-9.81643E-005	0.00000E+000	-3.31969E-005	-5.99601E-002	3.38248E-001	3.57630E+000	9	...........
	43	0.586667	3.24755E-001	-9.79893E-005	0.00000E+000	-3.18225E-005	-5.99601E-002	3.24827E-001	3.57630E+000	9	...........
	44	0.6	3.11373E-001	-9.96261E-005	0.00000E+000	-3.10209E-005	-5.99601E-002	3.11435E-001	3.57630E+000	9	...........
	45	0.613333	2.98026E-001	-9.95073E-005	0.00000E+000	-2.96558E-005	-5.99601E-002	2.98094E-001	3.57630E+000	9	...........
	46	0.626667	2.84743E-001	-9.82831E-005	0.00000E+000	-2.79854E-005	-5.99601E-002	2.84805E-001	3.57630E+000	9	...........
	47	0.64	2.71525E-001	-9.85665E-005	0.00000E+000	-2.67633E-005	-5.99601E-002	2.71579E-001	3.57630E+000	9	...........
	48	0.653333	2.58355E-001	-9.87686E-005	0.00000E+000	-2.55174E-005	-5.99601E-002	2.58412E-001	3.57630E+000	9	...........
	49	0.666667	2.45263E-001	-9.76236E-005	0.00000E+000	-2.39435E-005	-5.99601E-002	2.45314E-001	3.57630E+000	9	...........
	50	0.68	2.32243E-001	-9.75507E-005	0.00000E+000	-2.26555E-005	-5.99601E-002	2.32291E-001	3.57630E+000	9	...........
	51	0.693333	2.19294E-001	-9.92229E-005	0.00000E+000	-2.17590E-005	-5.99601E-002	2.19335E-001	3.57630E+000	9	...........
	52	0.706667	2.06417E-001	-9.94219E-005	0.00000E+000	-2.05224E-005	-5.99601E-002	2.06462E-001	3.57630E+000	9	...........
	53	0.72	1.93635E-001	-9.92646E-005	0.00000E+000	-1.92211E-005	-5.99601E-002	1.93674E-001	3.57630E+000	9	...........
	54	0.733333	1.80916E-001	-9.85894E-005	0.00000E+000	-1.78364E-005	-5.99601E-002	1.80953E-001	3.57630E+000	9	...........
	55	0.746667	1.68285E-001	-9.86269E-005	0.00000E+000	-1.65974E-005	-5.99601E-002	1.68315E-001	3.57630E+000	9	...........
	56	0.76	1.55724E-001	-9.86030E-005	0.00000E+000	-1.53549E-005	-5.99601E-002	1.55754E-001	3.57630E+000	9	...........
	57	0.773333	1.43238E-001	-9.92875E-005	0.00000E+000	-1.42218E-005	-5.99601E-002	1.43268E-001	3.57630E+000	9	...........
	58	0.786667	1.30828E-001	-9.85509E-005	0.00000E+000	-1.28933E-005	-5.99601E-002	1.30852E-001	3.57630E+000	9	...........
	59	0.8	1.18506E-001	-9.87457E-005	0.00000E+000	-1.17020E-005	-5.99601E-002	1.18531E-001	3.57630E+000	9	...........
	60	0.813333	1.06267E-001	-9.88655E-005	0.00000E+000	-1.05061E-005	-5.99601E-002	1.06289E-001	3.57630E+000	9	...........
	61	0.826667	9.41304E-002	-9.86113E-005	0.00000E+000	-9.28232E-006	-5.99601E-002	9.41460E-002	3.57630E+000	9	...........
	62	0.84	8.20974E-002	-9.79195E-005	0.00000E+000	-8.03894E-006	-5.99601E-002	8.21033E-002	3.57630E+000	9	...........
	63	0.853333	7.01767E-002	-9.76038E-005	0.00000E+000	-6.84952E-006	-5.99601E-002	7.01820E-002	3.57630E+000	9	...........
	64	0.866667	5.83854E-002	-9.79403E-005	0.00000E+000	-5.71829E-006	-5.99601E-002	5.83889E-002	3.57630E+000	9	...........
	65	0.88	4.67500E-002	-9.94969E-005	0.00000E+000	-4.65148E-006	-5.99601E-002	4.67520E-002	3.57630E+000	9	...........
	66	0.893333	3.52616E-002	-9.76674E-005	0.00000E+000	-3.44391E-006	-5.99601E-002	3.52576E-002	3.57630E+000	9	...........
	67	0.906667	2.39023E-002	-9.83415E-005	0.00000E+000	-2.35058E-006	-5.99601E-002	2.38999E-002	3.57630E+000	9	...........
	68	0.92	1.27214E-002	-9.89353E-005	0.00000E+000	-1.25860E-006	-5.99601E-002	1.27076E-002	3.57630E+000	9	...........
	69	0.93	3.07412E-003	-9.88534E-005	0.00000E+000	-3.03887E-007	-5.99601E-002	3.05731E-003	3.57630E+000	9	...........
STARTTIMEOFFSET	QUANT	1764.767	Start Time Offset (s)
