EXPLAIN
TAG	PWR800_DISCHARGE
TITLE	LABEL	PWR Cyclic Charge Discharge (Cell) - Discharge Step	Test &Identifier
DATE	LABEL	12-7-2017	Date
TIME	LABEL	16:50:09	Time
NOTES	NOTES	2	&Notes...
	supercap test cell
	6M KOH
PSTAT	PSTAT	IFC5000-01520	Potentiostat
CAPACITY	QUANT	1.00000E-003	Capacity (A-hr)
CELLTYPE	SELECTOR	1	&Cell Type
WORKINGCONNECTION	SELECTOR	0	&Working Lead
MAXDISCHARGETIME	VARIABLEANDUNITS	1.00000E+002	s	1.00000E+002	second(s)	Max &Discharge Time
DISCHARGEMODE	MULTIPARAM	0	1.00000E-004	&Discharge Mode	Constant Current	Amp(s)
SAMPLETIME	QUANT	1.00000E-002	Sa&mple Period (s)
DISCHARGESTOPAT1	MULTIPARAM	3	0.00000E+000	Discharge Stop At &1	Voltage < Limit	V
DISCHARGESTOPAT2	MULTIPARAM	0	0.00000E+000	Discharge Stop At &2	None	N/A
AESBHCSELECTOR	TOGGLE	F	Save Both Half Cells
IRCOMP	TOGGLE	F	IR &Measure
EOC	QUANT	0	Open Circuit (V)
SEQUENCER	TOGGLE	TRUE	Run as Sequence
PSTATMODEL	IQUANT	53	Pstat Model
PSTATSECTION	LABEL	IFC5000-01520	Pstat Section
PSTATSERIALNO	LABEL	01520	Pstat Serial Number
CTRLMODE	IQUANT	0	Control Mode
ELECTROMETER	IQUANT	1	RE=0 or CS=1
IESTAB	IQUANT	0	I/E Stability
CASPEED	IQUANT	4	Control Amp Speed
CONVENTION	IQUANT	1	Current Convention
ICHRANGE	IQUANT	2	Ich Range
ICHRANGEMODE	TOGGLE	T	Ich Auto Range
ICHOFFSETENABLE	TOGGLE	F	Ich Offset Enable
ICHOFFSET	QUANT	0	Ich Offset (V)
ICHFILTER	IQUANT	1	Ich Filter
VCHRANGE	IQUANT	2	Vch Range
VCHRANGEMODE	TOGGLE	T	Vch Auto Range
VCHOFFSETENABLE	TOGGLE	F	Vch Offset Enable
VCHOFFSET	QUANT	0	Vch Offset (V)
VCHFILTER	IQUANT	1	Vch Filter
IERANGELOWERLIMIT	IQUANT	9	I/E Range Lower Limit
IERANGEMODE	TOGGLE	F	I/E AutoRange
IERANGE	IQUANT	9	I/E Range
ACHSELECT	IQUANT	1	Ach Select
ACHRANGE	IQUANT	2	Ach Range
ACHOFFSETENABLE	TOGGLE	F	Ach Offset Enable
ACHOFFSET	QUANT	0	Ach Offset (V)
ACHFILTER	IQUANT	1	Ach Filter
CABLEID	IQUANT	14	Cable ID
DCCALDATE	LABEL	5-7-2017	DC Calibration Date
ACCALDATE	LABEL	12/3/2015	AC Calibration Date
FRAMEWORKVERSION	QUANT	7.01	Framework Version
INSTRUMENTVERSION	LABEL	4.00	Instrument Version
CURVE	TABLE	70
	Pt	T	Vf	Im	Vu	Pwr	Sig	Ach	Temp	IERange	Over
	#	s	V	A	V	W	V	V	deg C	#	bits
	0	0.013333	8.45049E-001	-9.90947E-005	0.00000E+000	-8.37399E-005	-5.99601E-002	8.45338E-001	3.57750E+000	9	...........
	1	0.026667	8.31861E-001	-9.92823E-005	0.00000E+000	-8.25891E-005	-5.99601E-002	8.32138E-001	3.57750E+000	9	...........
	2	0.04	8.19244E-001	-1.00071E-004	0.00000E+000	-8.19826E-005	-5.99601E-002	8.19523E-001	3.57750E+000	9	...........
	3	0.053333	8.07011E-001	-9.98230E-005	0.00000E+000	-8.05583E-005	-5.99601E-002	8.07267E-001	3.57750E+000	9	...........
	4	0.066667	7.95033E-001	-9.95521E-005	0.00000E+000	-7.91472E-005	-5.99601E-002	7.95290E-001	3.57750E+000	9	...........
	5	0.08	7.83228E-001	-9.94698E-005	0.00000E+000	-7.79076E-005	-5.99601E-002	7.83495E-001	3.57750E+000	9	...........
	6	0.093333	7.71603E-001	-9.84019E-005	0.00000E+000	-7.59272E-005	-5.99601E-002	7.71854E-001	3.57750E+000	9	...........
	7	0.106667	7.60064E-001	-9.86696E-005	0.00000E+000	-7.49952E-005	-5.99601E-002	7.60320E-001	3.57750E+000	9	...........
	8	0.12	7.48648E-001	-1.00441E-004	0.00000E+000	-7.51949E-005	-5.99601E-002	7.48891E-001	3.57750E+000	9	...........
	9	0.133333	7.37343E-001	-9.82446E-005	0.00000E+000	-7.24399E-005	-5.99601E-002	7.37580E-001	3.57750E+000	9	...........
	10	0.146667	7.26149E-001	-9.78653E-005	0.00000E+000	-7.10648E-005	-5.99601E-002	7.26391E-001	3.57750E+000	9	...........
	11	0.16	7.14982E-001	-9.89489E-005	0.00000E+000	-7.07467E-005	-5.99601E-002	7.15248E-001	3.57750E+000	9	...........
	12	0.173333	7.03942E-001	-9.85467E-005	0.00000E+000	-6.93711E-005	-5.99601E-002	7.04179E-001	3.57750E+000	9	...........
	13	0.186667	6.92984E-001	-9.91448E-005	0.00000E+000	-6.87057E-005	-5.99601E-002	6.93214E-001	3.57750E+000	9	...........
	14	0.2	6.82088E-001	-9.83446E-005	0.00000E+000	-6.70797E-005	-5.99601E-002	6.82337E-001	3.57750E+000	9	...........
	15	0.213333	6.71265E-001	-9.86582E-005	0.00000E+000	-6.62257E-005	-5.99601E-002	6.71489E-001	3.57750E+000	9	...........
	16	0.226667	6.60467E-001	-9.96605E-005	0.00000E+000	-6.58224E-005	-5.99601E-002	6.60704E-001	3.57750E+000	9	...........
	17	0.24	6.49693E-001	-9.85780E-005	0.00000E+000	-6.40454E-005	-5.99601E-002	6.49942E-001	3.57750E+000	9	...........
	18	0.253333	6.38904E-001	-9.82498E-005	0.00000E+000	-6.27722E-005	-5.99601E-002	6.39148E-001	3.57750E+000	9	...........
	19	0.266667	6.28041E-001	-9.85165E-005	0.00000E+000	-6.18724E-005	-5.99601E-002	6.28278E-001	3.57750E+000	9	...........
	20	0.28	6.17057E-001	-9.87176E-005	0.00000E+000	-6.09144E-005	-5.99601E-002	6.17303E-001	3.57750E+000	9	...........
	21	0.293333	6.05854E-001	-9.89374E-005	0.00000E+000	-5.99416E-005	-5.99601E-002	6.06120E-001	3.57750E+000	9	...........
	22	0.306667	5.94524E-001	-9.91395E-005	0.00000E+000	-5.89408E-005	-5.99601E-002	5.94762E-001	3.57750E+000	9	...........
	23	0.32	5.82937E-001	-9.81102E-005	0.00000E+000	-5.71920E-005	-5.99601E-002	5.83200E-001	3.57750E+000	9	...........
	24	0.333333	5.71181E-001	-9.79528E-005	0.00000E+000	-5.59488E-005	-5.99601E-002	5.71398E-001	3.57750E+000	9	...........
	25	0.346667	5.59167E-001	-9.97751E-005	0.00000E+000	-5.57909E-005	-5.99601E-002	5.59373E-001	3.57750E+000	9	...........
	26	0.36	5.46967E-001	-9.89718E-005	0.00000E+000	-5.41343E-005	-5.99601E-002	5.47187E-001	3.57750E+000	9	...........
	27	0.373333	5.34598E-001	-9.92458E-005	0.00000E+000	-5.30566E-005	-5.99601E-002	5.34797E-001	3.57750E+000	9	...........
	28	0.386667	5.22041E-001	-9.76288E-005	0.00000E+000	-5.09662E-005	-5.99601E-002	5.22242E-001	3.57750E+000	9	...........
	29	0.4	5.09325E-001	-9.70547E-005	0.00000E+000	-4.94324E-005	-5.99601E-002	5.09543E-001	3.57750E+000	9	...........
	30	0.413333	4.96486E-001	-9.85040E-005	0.00000E+000	-4.89059E-005	-5.99601E-002	4.96694E-001	3.57750E+000	9	...........
	31	0.426667	4.83675E-001	-9.93562E-005	0.00000E+000	-4.80562E-005	-5.99601E-002	4.83825E-001	3.57750E+000	9	...........
	32	0.44	4.70757E-001	-9.93802E-005	0.00000E+000	-4.67839E-005	-5.99601E-002	4.70852E-001	3.57750E+000	9	...........
	33	0.453333	4.57591E-001	-9.84811E-005	0.00000E+000	-4.50641E-005	-5.99601E-002	4.57687E-001	3.57750E+000	9	...........
	34	0.466667	4.44338E-001	-1.00164E-004	0.00000E+000	-4.45066E-005	-5.99601E-002	4.44433E-001	3.57750E+000	9	...........
	35	0.48	4.31024E-001	-9.90072E-005	0.00000E+000	-4.26744E-005	-5.99601E-002	4.31113E-001	3.57750E+000	9	...........
	36	0.493333	4.17657E-001	-9.73058E-005	0.00000E+000	-4.06404E-005	-5.99601E-002	4.17749E-001	3.57750E+000	9	...........
	37	0.506667	4.04244E-001	-9.87509E-005	0.00000E+000	-3.99195E-005	-5.99601E-002	4.04328E-001	3.57750E+000	9	...........
	38	0.52	3.90809E-001	-9.90687E-005	0.00000E+000	-3.87170E-005	-5.99601E-002	3.90884E-001	3.57750E+000	9	...........
	39	0.533333	3.77361E-001	-9.75850E-005	0.00000E+000	-3.68248E-005	-5.99601E-002	3.77435E-001	3.57750E+000	9	...........
	40	0.546667	3.63908E-001	-9.90885E-005	0.00000E+000	-3.60591E-005	-5.99601E-002	3.63976E-001	3.57750E+000	9	...........
	41	0.56	3.50464E-001	-9.93542E-005	0.00000E+000	-3.48201E-005	-5.99601E-002	3.50532E-001	3.57750E+000	9	...........
	42	0.573333	3.37046E-001	-9.89176E-005	0.00000E+000	-3.33398E-005	-5.99601E-002	3.37111E-001	3.57750E+000	9	...........
	43	0.586667	3.23669E-001	-9.85478E-005	0.00000E+000	-3.18969E-005	-5.99601E-002	3.23728E-001	3.57722E+000	9	...........
	44	0.6	3.10319E-001	-9.92229E-005	0.00000E+000	-3.07908E-005	-5.99601E-002	3.10383E-001	3.57640E+000	9	...........
	45	0.613333	2.97021E-001	-9.74277E-005	0.00000E+000	-2.89381E-005	-5.99601E-002	2.97080E-001	3.57640E+000	9	...........
	46	0.626667	2.83766E-001	-9.91385E-005	0.00000E+000	-2.81321E-005	-5.99601E-002	2.83822E-001	3.57640E+000	9	...........
	47	0.64	2.70576E-001	-9.78799E-005	0.00000E+000	-2.64840E-005	-5.99601E-002	2.70634E-001	3.57640E+000	9	...........
	48	0.653333	2.57453E-001	-9.82571E-005	0.00000E+000	-2.52965E-005	-5.99601E-002	2.57507E-001	3.57640E+000	9	...........
	49	0.666667	2.44397E-001	-9.88509E-005	0.00000E+000	-2.41588E-005	-5.99601E-002	2.44445E-001	3.57640E+000	9	...........
	50	0.68	2.31413E-001	-9.81102E-005	0.00000E+000	-2.27039E-005	-5.99601E-002	2.31452E-001	3.57640E+000	9	...........
	51	0.693333	2.18505E-001	-9.77424E-005	0.00000E+000	-2.13572E-005	-5.99601E-002	2.18545E-001	3.57640E+000	9	...........
	52	0.706667	2.05667E-001	-9.79455E-005	0.00000E+000	-2.01442E-005	-5.99601E-002	2.05707E-001	3.57640E+000	9	...........
	53	0.72	1.92914E-001	-9.89009E-005	0.00000E+000	-1.90793E-005	-5.99601E-002	1.92953E-001	3.57640E+000	9	...........
	54	0.733333	1.80239E-001	-9.89812E-005	0.00000E+000	-1.78403E-005	-5.99601E-002	1.80272E-001	3.57640E+000	9	...........
	55	0.746667	1.67637E-001	-9.85634E-005	0.00000E+000	-1.65228E-005	-5.99601E-002	1.67665E-001	3.57640E+000	9	...........
	56	0.76	1.55117E-001	-9.89437E-005	0.00000E+000	-1.53479E-005	-5.99601E-002	1.55146E-001	3.57640E+000	9	...........
	57	0.773333	1.42665E-001	-9.91479E-005	0.00000E+000	-1.41450E-005	-5.99601E-002	1.42688E-001	3.57640E+000	9	...........
	58	0.786667	1.30290E-001	-9.81695E-005	0.00000E+000	-1.27905E-005	-5.99601E-002	1.30309E-001	3.57640E+000	9	...........
	59	0.8	1.17987E-001	-9.91385E-005	0.00000E+000	-1.16970E-005	-5.99601E-002	1.18011E-001	3.57640E+000	9	...........
	60	0.813333	1.05778E-001	-9.96501E-005	0.00000E+000	-1.05408E-005	-5.99601E-002	1.05799E-001	3.57640E+000	9	...........
	61	0.826667	9.36711E-002	-9.89478E-005	0.00000E+000	-9.26855E-006	-5.99601E-002	9.36868E-002	3.57640E+000	9	...........
	62	0.84	8.16630E-002	-9.87249E-005	0.00000E+000	-8.06217E-006	-5.99601E-002	8.16788E-002	3.57640E+000	9	...........
	63	0.853333	6.97792E-002	-9.86780E-005	0.00000E+000	-6.88567E-006	-5.99601E-002	6.97830E-002	3.57640E+000	9	...........
	64	0.866667	5.80159E-002	-9.88405E-005	0.00000E+000	-5.73432E-006	-5.99601E-002	5.80216E-002	3.57640E+000	9	...........
	65	0.88	4.64077E-002	-9.87665E-005	0.00000E+000	-4.58353E-006	-5.99601E-002	4.64119E-002	3.57640E+000	9	...........
	66	0.893333	3.49335E-002	-9.85300E-005	0.00000E+000	-3.44200E-006	-5.99601E-002	3.49309E-002	3.57640E+000	9	...........
	67	0.906667	2.36096E-002	-9.78747E-005	0.00000E+000	-2.31078E-006	-5.99601E-002	2.35979E-002	3.57640E+000	9	...........
	68	0.92	1.24506E-002	-9.85946E-005	0.00000E+000	-1.22756E-006	-5.99601E-002	1.24390E-002	3.57640E+000	9	...........
	69	0.93	2.82611E-003	-9.91618E-005	0.00000E+000	-2.80242E-007	-5.99601E-002	2.80980E-003	3.57640E+000	9	...........
STARTTIMEOFFSET	QUANT	1709.189	Start Time Offset (s)
