EXPLAIN
TAG	PWR800_DISCHARGE
TITLE	LABEL	PWR Cyclic Charge Discharge (Cell) - Discharge Step	Test &Identifier
DATE	LABEL	12-7-2017	Date
TIME	LABEL	16:54:58	Time
NOTES	NOTES	2	&Notes...
	supercap test cell
	6M KOH
PSTAT	PSTAT	IFC5000-01520	Potentiostat
CAPACITY	QUANT	1.00000E-003	Capacity (A-hr)
CELLTYPE	SELECTOR	1	&Cell Type
WORKINGCONNECTION	SELECTOR	0	&Working Lead
MAXDISCHARGETIME	VARIABLEANDUNITS	1.00000E+002	s	1.00000E+002	second(s)	Max &Discharge Time
DISCHARGEMODE	MULTIPARAM	0	1.00000E-004	&Discharge Mode	Constant Current	Amp(s)
SAMPLETIME	QUANT	1.00000E-002	Sa&mple Period (s)
DISCHARGESTOPAT1	MULTIPARAM	3	0.00000E+000	Discharge Stop At &1	Voltage < Limit	V
DISCHARGESTOPAT2	MULTIPARAM	0	0.00000E+000	Discharge Stop At &2	None	N/A
AESBHCSELECTOR	TOGGLE	F	Save Both Half Cells
IRCOMP	TOGGLE	F	IR &Measure
EOC	QUANT	0	Open Circuit (V)
SEQUENCER	TOGGLE	TRUE	Run as Sequence
PSTATMODEL	IQUANT	53	Pstat Model
PSTATSECTION	LABEL	IFC5000-01520	Pstat Section
PSTATSERIALNO	LABEL	01520	Pstat Serial Number
CTRLMODE	IQUANT	0	Control Mode
ELECTROMETER	IQUANT	1	RE=0 or CS=1
IESTAB	IQUANT	0	I/E Stability
CASPEED	IQUANT	4	Control Amp Speed
CONVENTION	IQUANT	1	Current Convention
ICHRANGE	IQUANT	2	Ich Range
ICHRANGEMODE	TOGGLE	T	Ich Auto Range
ICHOFFSETENABLE	TOGGLE	F	Ich Offset Enable
ICHOFFSET	QUANT	0	Ich Offset (V)
ICHFILTER	IQUANT	1	Ich Filter
VCHRANGE	IQUANT	2	Vch Range
VCHRANGEMODE	TOGGLE	T	Vch Auto Range
VCHOFFSETENABLE	TOGGLE	F	Vch Offset Enable
VCHOFFSET	QUANT	0	Vch Offset (V)
VCHFILTER	IQUANT	1	Vch Filter
IERANGELOWERLIMIT	IQUANT	9	I/E Range Lower Limit
IERANGEMODE	TOGGLE	F	I/E AutoRange
IERANGE	IQUANT	9	I/E Range
ACHSELECT	IQUANT	1	Ach Select
ACHRANGE	IQUANT	2	Ach Range
ACHOFFSETENABLE	TOGGLE	F	Ach Offset Enable
ACHOFFSET	QUANT	0	Ach Offset (V)
ACHFILTER	IQUANT	1	Ach Filter
CABLEID	IQUANT	14	Cable ID
DCCALDATE	LABEL	5-7-2017	DC Calibration Date
ACCALDATE	LABEL	12/3/2015	AC Calibration Date
FRAMEWORKVERSION	QUANT	7.01	Framework Version
INSTRUMENTVERSION	LABEL	4.00	Instrument Version
CURVE	TABLE	70
	Pt	T	Vf	Im	Vu	Pwr	Sig	Ach	Temp	IERange	Over
	#	s	V	A	V	W	V	V	deg C	#	bits
	0	0.013333	8.41804E-001	-9.97470E-005	0.00000E+000	-8.39674E-005	-5.99601E-002	8.42117E-001	3.57780E+000	9	...........
	1	0.026667	8.28769E-001	-9.87686E-005	0.00000E+000	-8.18564E-005	-5.99601E-002	8.29056E-001	3.57780E+000	9	...........
	2	0.04	8.16221E-001	-9.83342E-005	0.00000E+000	-8.02624E-005	-5.99601E-002	8.16527E-001	3.57780E+000	9	...........
	3	0.053333	8.04047E-001	-9.81331E-005	0.00000E+000	-7.89036E-005	-5.99601E-002	8.04340E-001	3.57780E+000	9	...........
	4	0.066667	7.92082E-001	-9.79039E-005	0.00000E+000	-7.75479E-005	-5.99601E-002	7.92364E-001	3.57780E+000	9	...........
	5	0.08	7.80294E-001	-9.82310E-005	0.00000E+000	-7.66490E-005	-5.99601E-002	7.80576E-001	3.57780E+000	9	...........
	6	0.093333	7.68669E-001	-9.88634E-005	0.00000E+000	-7.59933E-005	-5.99601E-002	7.68930E-001	3.57780E+000	9	...........
	7	0.106667	7.57147E-001	-9.79153E-005	0.00000E+000	-7.41363E-005	-5.99601E-002	7.57400E-001	3.57780E+000	9	...........
	8	0.12	7.45746E-001	-9.79956E-005	0.00000E+000	-7.30798E-005	-5.99601E-002	7.45981E-001	3.57780E+000	9	...........
	9	0.133333	7.34403E-001	-9.84696E-005	0.00000E+000	-7.23164E-005	-5.99601E-002	7.34624E-001	3.57780E+000	9	...........
	10	0.146667	7.23189E-001	-9.95646E-005	0.00000E+000	-7.20040E-005	-5.99601E-002	7.23393E-001	3.57780E+000	9	...........
	11	0.16	7.11983E-001	-9.99324E-005	0.00000E+000	-7.11502E-005	-5.99601E-002	7.12234E-001	3.57780E+000	9	...........
	12	0.173333	7.00922E-001	-9.78372E-005	0.00000E+000	-6.85762E-005	-5.99601E-002	7.01175E-001	3.57780E+000	9	...........
	13	0.186667	6.89924E-001	-9.83633E-005	0.00000E+000	-6.78632E-005	-5.99601E-002	6.90177E-001	3.57780E+000	9	...........
	14	0.2	6.78994E-001	-9.94177E-005	0.00000E+000	-6.75040E-005	-5.99601E-002	6.79273E-001	3.57780E+000	9	...........
	15	0.213333	6.68152E-001	-9.86967E-005	0.00000E+000	-6.59444E-005	-5.99601E-002	6.68395E-001	3.57780E+000	9	...........
	16	0.226667	6.57346E-001	-9.91135E-005	0.00000E+000	-6.51518E-005	-5.99601E-002	6.57584E-001	3.57780E+000	9	...........
	17	0.24	6.46535E-001	-9.77643E-005	0.00000E+000	-6.32081E-005	-5.99601E-002	6.46808E-001	3.57780E+000	9	...........
	18	0.253333	6.35715E-001	-9.65682E-005	0.00000E+000	-6.13898E-005	-5.99601E-002	6.35966E-001	3.57780E+000	9	...........
	19	0.266667	6.24840E-001	-9.88041E-005	0.00000E+000	-6.17367E-005	-5.99601E-002	6.25079E-001	3.57780E+000	9	...........
	20	0.28	6.13796E-001	-9.96157E-005	0.00000E+000	-6.11437E-005	-5.99601E-002	6.14058E-001	3.57667E+000	9	...........
	21	0.293333	6.02575E-001	-9.80497E-005	0.00000E+000	-5.90824E-005	-5.99601E-002	6.02858E-001	3.57630E+000	9	...........
	22	0.306667	5.91216E-001	-9.75548E-005	0.00000E+000	-5.76760E-005	-5.99601E-002	5.91461E-001	3.57630E+000	9	...........
	23	0.32	5.79584E-001	-9.91354E-005	0.00000E+000	-5.74573E-005	-5.99601E-002	5.79822E-001	3.57630E+000	9	...........
	24	0.333333	5.67757E-001	-9.81352E-005	0.00000E+000	-5.57170E-005	-5.99601E-002	5.68002E-001	3.57630E+000	9	...........
	25	0.346667	5.55689E-001	-9.92969E-005	0.00000E+000	-5.51782E-005	-5.99601E-002	5.55917E-001	3.57630E+000	9	...........
	26	0.36	5.43454E-001	-9.97011E-005	0.00000E+000	-5.41829E-005	-5.99601E-002	5.43684E-001	3.57630E+000	9	...........
	27	0.373333	5.30991E-001	-9.84561E-005	0.00000E+000	-5.22793E-005	-5.99601E-002	5.31237E-001	3.57630E+000	9	...........
	28	0.386667	5.18424E-001	-9.88624E-005	0.00000E+000	-5.12527E-005	-5.99601E-002	5.18644E-001	3.57630E+000	9	...........
	29	0.4	5.05598E-001	-9.84602E-005	0.00000E+000	-4.97813E-005	-5.99601E-002	5.05851E-001	3.57630E+000	9	...........
	30	0.413333	4.92726E-001	-9.81841E-005	0.00000E+000	-4.83779E-005	-5.99601E-002	4.92970E-001	3.57630E+000	9	...........
	31	0.426667	4.79970E-001	-9.79185E-005	0.00000E+000	-4.69979E-005	-5.99601E-002	4.80068E-001	3.57630E+000	9	...........
	32	0.44	4.66878E-001	-9.82779E-005	0.00000E+000	-4.58838E-005	-5.99601E-002	4.66979E-001	3.57630E+000	9	...........
	33	0.453333	4.53657E-001	-9.84123E-005	0.00000E+000	-4.46454E-005	-5.99601E-002	4.53753E-001	3.57630E+000	9	...........
	34	0.466667	4.40359E-001	-1.00215E-004	0.00000E+000	-4.41305E-005	-5.99601E-002	4.40457E-001	3.57630E+000	9	...........
	35	0.48	4.26993E-001	-9.88916E-005	0.00000E+000	-4.22261E-005	-5.99601E-002	4.27084E-001	3.57630E+000	9	...........
	36	0.493333	4.13572E-001	-9.96824E-005	0.00000E+000	-4.12258E-005	-5.99601E-002	4.13657E-001	3.57630E+000	9	...........
	37	0.506667	4.00109E-001	-9.96011E-005	0.00000E+000	-3.98513E-005	-5.99601E-002	4.00195E-001	3.57630E+000	9	...........
	38	0.52	3.86628E-001	-9.77622E-005	0.00000E+000	-3.77976E-005	-5.99601E-002	3.86698E-001	3.57630E+000	9	...........
	39	0.533333	3.73127E-001	-9.74298E-005	0.00000E+000	-3.63537E-005	-5.99601E-002	3.73205E-001	3.57630E+000	9	...........
	40	0.546667	3.59634E-001	-9.96157E-005	0.00000E+000	-3.58252E-005	-5.99601E-002	3.59708E-001	3.57630E+000	9	...........
	41	0.56	3.46146E-001	-9.79299E-005	0.00000E+000	-3.38981E-005	-5.99601E-002	3.46219E-001	3.57630E+000	9	...........
	42	0.573333	3.32682E-001	-9.86301E-005	0.00000E+000	-3.28124E-005	-5.99601E-002	3.32750E-001	3.57630E+000	9	...........
	43	0.586667	3.19249E-001	-9.89145E-005	0.00000E+000	-3.15784E-005	-5.99601E-002	3.19315E-001	3.57630E+000	9	...........
	44	0.6	3.05868E-001	-9.74798E-005	0.00000E+000	-2.98160E-005	-5.99601E-002	3.05930E-001	3.57630E+000	9	...........
	45	0.613333	2.92529E-001	-9.73235E-005	0.00000E+000	-2.84699E-005	-5.99601E-002	2.92589E-001	3.57630E+000	9	...........
	46	0.626667	2.79253E-001	-9.86144E-005	0.00000E+000	-2.75384E-005	-5.99601E-002	2.79306E-001	3.57630E+000	9	...........
	47	0.64	2.66022E-001	-9.78028E-005	0.00000E+000	-2.60177E-005	-5.99601E-002	2.66082E-001	3.57630E+000	9	...........
	48	0.653333	2.52868E-001	-9.93000E-005	0.00000E+000	-2.51098E-005	-5.99601E-002	2.52925E-001	3.57630E+000	9	...........
	49	0.666667	2.39788E-001	-9.86947E-005	0.00000E+000	-2.36658E-005	-5.99601E-002	2.39838E-001	3.57630E+000	9	...........
	50	0.68	2.26783E-001	-9.75725E-005	0.00000E+000	-2.21278E-005	-5.99601E-002	2.26831E-001	3.57630E+000	9	...........
	51	0.693333	2.13853E-001	-9.76101E-005	0.00000E+000	-2.08742E-005	-5.99601E-002	2.13897E-001	3.57630E+000	9	...........
	52	0.706667	2.00995E-001	-9.84269E-005	0.00000E+000	-1.97833E-005	-5.99601E-002	2.01037E-001	3.57630E+000	9	...........
	53	0.72	1.88220E-001	-9.81227E-005	0.00000E+000	-1.84687E-005	-5.99601E-002	1.88261E-001	3.57630E+000	9	...........
	54	0.733333	1.75527E-001	-9.91197E-005	0.00000E+000	-1.73982E-005	-5.99601E-002	1.75564E-001	3.57630E+000	9	...........
	55	0.746667	1.62907E-001	-9.99480E-005	0.00000E+000	-1.62823E-005	-5.99601E-002	1.62936E-001	3.57630E+000	9	...........
	56	0.76	1.50368E-001	-9.88103E-005	0.00000E+000	-1.48579E-005	-5.99601E-002	1.50396E-001	3.57630E+000	9	...........
	57	0.773333	1.37906E-001	-9.93187E-005	0.00000E+000	-1.36966E-005	-5.99601E-002	1.37933E-001	3.57630E+000	9	...........
	58	0.786667	1.25527E-001	-9.86832E-005	0.00000E+000	-1.23874E-005	-5.99601E-002	1.25547E-001	3.57630E+000	9	...........
	59	0.8	1.13229E-001	-9.89145E-005	0.00000E+000	-1.12000E-005	-5.99601E-002	1.13252E-001	3.57630E+000	9	...........
	60	0.813333	1.01027E-001	-9.89155E-005	0.00000E+000	-9.99311E-006	-5.99601E-002	1.01044E-001	3.57630E+000	9	...........
	61	0.826667	8.89298E-002	-9.88530E-005	0.00000E+000	-8.79098E-006	-5.99601E-002	8.89445E-002	3.57630E+000	9	...........
	62	0.84	7.69447E-002	-9.79112E-005	0.00000E+000	-7.53374E-006	-5.99601E-002	7.69590E-002	3.57630E+000	9	...........
	63	0.853333	6.50763E-002	-9.86342E-005	0.00000E+000	-6.41875E-006	-5.99601E-002	6.50831E-002	3.57630E+000	9	...........
	64	0.866667	5.33436E-002	-9.84123E-005	0.00000E+000	-5.24967E-006	-5.99601E-002	5.33497E-002	3.57630E+000	9	...........
	65	0.88	4.17842E-002	-9.88509E-005	0.00000E+000	-4.13041E-006	-5.99601E-002	4.17920E-002	3.57630E+000	9	...........
	66	0.893333	3.03569E-002	-9.83665E-005	0.00000E+000	-2.98610E-006	-5.99601E-002	3.03585E-002	3.57630E+000	9	...........
	67	0.906667	1.90840E-002	-9.86071E-005	0.00000E+000	-1.88182E-006	-5.99601E-002	1.90786E-002	3.57630E+000	9	...........
	68	0.92	7.99041E-003	-9.84821E-005	0.00000E+000	-7.86912E-007	-5.99601E-002	7.97585E-003	3.57630E+000	9	...........
	69	0.925	4.54366E-004	-1.00141E-004	0.00000E+000	-4.55008E-008	-5.99601E-002	4.32547E-004	3.57630E+000	9	...........
STARTTIMEOFFSET	QUANT	1913.914	Start Time Offset (s)
