EXPLAIN
TAG	PWR800_DISCHARGE
TITLE	LABEL	PWR Cyclic Charge Discharge (Cell) - Discharge Step	Test &Identifier
DATE	LABEL	12-7-2017	Date
TIME	LABEL	16:50:55	Time
NOTES	NOTES	2	&Notes...
	supercap test cell
	6M KOH
PSTAT	PSTAT	IFC5000-01520	Potentiostat
CAPACITY	QUANT	1.00000E-003	Capacity (A-hr)
CELLTYPE	SELECTOR	1	&Cell Type
WORKINGCONNECTION	SELECTOR	0	&Working Lead
MAXDISCHARGETIME	VARIABLEANDUNITS	1.00000E+002	s	1.00000E+002	second(s)	Max &Discharge Time
DISCHARGEMODE	MULTIPARAM	0	1.00000E-004	&Discharge Mode	Constant Current	Amp(s)
SAMPLETIME	QUANT	1.00000E-002	Sa&mple Period (s)
DISCHARGESTOPAT1	MULTIPARAM	3	0.00000E+000	Discharge Stop At &1	Voltage < Limit	V
DISCHARGESTOPAT2	MULTIPARAM	0	0.00000E+000	Discharge Stop At &2	None	N/A
AESBHCSELECTOR	TOGGLE	F	Save Both Half Cells
IRCOMP	TOGGLE	F	IR &Measure
EOC	QUANT	0	Open Circuit (V)
SEQUENCER	TOGGLE	TRUE	Run as Sequence
PSTATMODEL	IQUANT	53	Pstat Model
PSTATSECTION	LABEL	IFC5000-01520	Pstat Section
PSTATSERIALNO	LABEL	01520	Pstat Serial Number
CTRLMODE	IQUANT	0	Control Mode
ELECTROMETER	IQUANT	1	RE=0 or CS=1
IESTAB	IQUANT	0	I/E Stability
CASPEED	IQUANT	4	Control Amp Speed
CONVENTION	IQUANT	1	Current Convention
ICHRANGE	IQUANT	2	Ich Range
ICHRANGEMODE	TOGGLE	T	Ich Auto Range
ICHOFFSETENABLE	TOGGLE	F	Ich Offset Enable
ICHOFFSET	QUANT	0	Ich Offset (V)
ICHFILTER	IQUANT	1	Ich Filter
VCHRANGE	IQUANT	2	Vch Range
VCHRANGEMODE	TOGGLE	T	Vch Auto Range
VCHOFFSETENABLE	TOGGLE	F	Vch Offset Enable
VCHOFFSET	QUANT	0	Vch Offset (V)
VCHFILTER	IQUANT	1	Vch Filter
IERANGELOWERLIMIT	IQUANT	9	I/E Range Lower Limit
IERANGEMODE	TOGGLE	F	I/E AutoRange
IERANGE	IQUANT	9	I/E Range
ACHSELECT	IQUANT	1	Ach Select
ACHRANGE	IQUANT	2	Ach Range
ACHOFFSETENABLE	TOGGLE	F	Ach Offset Enable
ACHOFFSET	QUANT	0	Ach Offset (V)
ACHFILTER	IQUANT	1	Ach Filter
CABLEID	IQUANT	14	Cable ID
DCCALDATE	LABEL	5-7-2017	DC Calibration Date
ACCALDATE	LABEL	12/3/2015	AC Calibration Date
FRAMEWORKVERSION	QUANT	7.01	Framework Version
INSTRUMENTVERSION	LABEL	4.00	Instrument Version
CURVE	TABLE	70
	Pt	T	Vf	Im	Vu	Pwr	Sig	Ach	Temp	IERange	Over
	#	s	V	A	V	W	V	V	deg C	#	bits
	0	0.013333	8.45423E-001	-9.83654E-005	0.00000E+000	-8.31603E-005	-5.99601E-002	8.45698E-001	3.57780E+000	9	...........
	1	0.026667	8.32222E-001	-9.85300E-005	0.00000E+000	-8.19988E-005	-5.99601E-002	8.32473E-001	3.57780E+000	9	...........
	2	0.04	8.19594E-001	-9.95688E-005	0.00000E+000	-8.16060E-005	-5.99601E-002	8.19828E-001	3.57780E+000	9	...........
	3	0.053333	8.07322E-001	-9.85415E-005	0.00000E+000	-7.95547E-005	-5.99601E-002	8.07571E-001	3.57780E+000	9	...........
	4	0.066667	7.95342E-001	-9.99470E-005	0.00000E+000	-7.94920E-005	-5.99601E-002	7.95591E-001	3.57780E+000	9	...........
	5	0.08	7.83518E-001	-9.90093E-005	0.00000E+000	-7.75756E-005	-5.99601E-002	7.83776E-001	3.57780E+000	9	...........
	6	0.093333	7.71859E-001	-9.77101E-005	0.00000E+000	-7.54184E-005	-5.99601E-002	7.72112E-001	3.57780E+000	9	...........
	7	0.106667	7.60329E-001	-9.97907E-005	0.00000E+000	-7.58737E-005	-5.99601E-002	7.60575E-001	3.57780E+000	9	...........
	8	0.12	7.48916E-001	-9.97292E-005	0.00000E+000	-7.46888E-005	-5.99601E-002	7.49136E-001	3.57780E+000	9	...........
	9	0.133333	7.37589E-001	-9.78341E-005	0.00000E+000	-7.21613E-005	-5.99601E-002	7.37820E-001	3.57780E+000	9	...........
	10	0.146667	7.26366E-001	-9.95355E-005	0.00000E+000	-7.22992E-005	-5.99601E-002	7.26606E-001	3.57780E+000	9	...........
	11	0.16	7.15213E-001	-9.86196E-005	0.00000E+000	-7.05341E-005	-5.99601E-002	7.15436E-001	3.57780E+000	9	...........
	12	0.173333	7.04133E-001	-9.97511E-005	0.00000E+000	-7.02380E-005	-5.99601E-002	7.04360E-001	3.57780E+000	9	...........
	13	0.186667	6.93156E-001	-9.98741E-005	0.00000E+000	-6.92284E-005	-5.99601E-002	6.93378E-001	3.57780E+000	9	...........
	14	0.2	6.82250E-001	-9.87176E-005	0.00000E+000	-6.73500E-005	-5.99601E-002	6.82482E-001	3.57780E+000	9	...........
	15	0.213333	6.71433E-001	-9.96876E-005	0.00000E+000	-6.69336E-005	-5.99601E-002	6.71632E-001	3.57780E+000	9	...........
	16	0.226667	6.60607E-001	-9.75569E-005	0.00000E+000	-6.44468E-005	-5.99601E-002	6.60825E-001	3.57780E+000	9	...........
	17	0.24	6.49859E-001	-9.88968E-005	0.00000E+000	-6.42690E-005	-5.99601E-002	6.50062E-001	3.57780E+000	9	...........
	18	0.253333	6.39058E-001	-9.91843E-005	0.00000E+000	-6.33845E-005	-5.99601E-002	6.39283E-001	3.57780E+000	9	...........
	19	0.266667	6.28180E-001	-9.88874E-005	0.00000E+000	-6.21191E-005	-5.99601E-002	6.28409E-001	3.57780E+000	9	...........
	20	0.28	6.17210E-001	-9.78903E-005	0.00000E+000	-6.04188E-005	-5.99601E-002	6.17441E-001	3.57780E+000	9	...........
	21	0.293333	6.06000E-001	-9.80841E-005	0.00000E+000	-5.94390E-005	-5.99601E-002	6.06271E-001	3.57780E+000	9	...........
	22	0.306667	5.94646E-001	-9.82279E-005	0.00000E+000	-5.84108E-005	-5.99601E-002	5.94910E-001	3.57780E+000	9	...........
	23	0.32	5.83064E-001	-9.86822E-005	0.00000E+000	-5.75380E-005	-5.99601E-002	5.83328E-001	3.57780E+000	9	...........
	24	0.333333	5.71313E-001	-9.87353E-005	0.00000E+000	-5.64087E-005	-5.99601E-002	5.71552E-001	3.57780E+000	9	...........
	25	0.346667	5.59318E-001	-9.84602E-005	0.00000E+000	-5.50706E-005	-5.99601E-002	5.59552E-001	3.57780E+000	9	...........
	26	0.36	5.47120E-001	-9.89718E-005	0.00000E+000	-5.41494E-005	-5.99601E-002	5.47345E-001	3.57780E+000	9	...........
	27	0.373333	5.34734E-001	-9.89958E-005	0.00000E+000	-5.29364E-005	-5.99601E-002	5.34945E-001	3.57780E+000	9	...........
	28	0.386667	5.22181E-001	-9.81154E-005	0.00000E+000	-5.12339E-005	-5.99601E-002	5.22382E-001	3.57780E+000	9	...........
	29	0.4	5.09442E-001	-9.83738E-005	0.00000E+000	-5.01157E-005	-5.99601E-002	5.09684E-001	3.57780E+000	9	...........
	30	0.413333	4.96600E-001	-9.98105E-005	0.00000E+000	-4.95659E-005	-5.99601E-002	4.96828E-001	3.57780E+000	9	...........
	31	0.426667	4.83786E-001	-9.81893E-005	0.00000E+000	-4.75026E-005	-5.99601E-002	4.83934E-001	3.57780E+000	9	...........
	32	0.44	4.70846E-001	-9.85603E-005	0.00000E+000	-4.64067E-005	-5.99601E-002	4.70943E-001	3.57780E+000	9	...........
	33	0.453333	4.57669E-001	-9.89103E-005	0.00000E+000	-4.52682E-005	-5.99601E-002	4.57762E-001	3.57780E+000	9	...........
	34	0.466667	4.44406E-001	-9.85759E-005	0.00000E+000	-4.38077E-005	-5.99601E-002	4.44499E-001	3.57780E+000	9	...........
	35	0.48	4.31085E-001	-9.80966E-005	0.00000E+000	-4.22880E-005	-5.99601E-002	4.31174E-001	3.57780E+000	9	...........
	36	0.493333	4.17703E-001	-9.82039E-005	0.00000E+000	-4.10201E-005	-5.99601E-002	4.17795E-001	3.57780E+000	9	...........
	37	0.506667	4.04294E-001	-9.77986E-005	0.00000E+000	-3.95394E-005	-5.99601E-002	4.04376E-001	3.57780E+000	9	...........
	38	0.52	3.90855E-001	-9.82946E-005	0.00000E+000	-3.84189E-005	-5.99601E-002	3.90932E-001	3.57780E+000	9	...........
	39	0.533333	3.77400E-001	-9.91833E-005	0.00000E+000	-3.74317E-005	-5.99601E-002	3.77474E-001	3.57780E+000	9	...........
	40	0.546667	3.63953E-001	-9.83790E-005	0.00000E+000	-3.58053E-005	-5.99601E-002	3.64024E-001	3.57780E+000	9	...........
	41	0.56	3.50492E-001	-1.00505E-004	0.00000E+000	-3.52264E-005	-5.99601E-002	3.50567E-001	3.57780E+000	9	...........
	42	0.573333	3.37070E-001	-9.86051E-005	0.00000E+000	-3.32368E-005	-5.99601E-002	3.37140E-001	3.57780E+000	9	...........
	43	0.586667	3.23672E-001	-9.88530E-005	0.00000E+000	-3.19959E-005	-5.99601E-002	3.23742E-001	3.57666E+000	9	...........
	44	0.6	3.10319E-001	-9.87863E-005	0.00000E+000	-3.06553E-005	-5.99601E-002	3.10379E-001	3.57650E+000	9	...........
	45	0.613333	2.97005E-001	-9.92187E-005	0.00000E+000	-2.94685E-005	-5.99601E-002	2.97065E-001	3.57650E+000	9	...........
	46	0.626667	2.83748E-001	-9.69537E-005	0.00000E+000	-2.75104E-005	-5.99601E-002	2.83810E-001	3.57650E+000	9	...........
	47	0.64	2.70547E-001	-9.78424E-005	0.00000E+000	-2.64710E-005	-5.99601E-002	2.70607E-001	3.57650E+000	9	...........
	48	0.653333	2.57407E-001	-9.87665E-005	0.00000E+000	-2.54232E-005	-5.99601E-002	2.57465E-001	3.57650E+000	9	...........
	49	0.666667	2.44334E-001	-9.94584E-005	0.00000E+000	-2.43010E-005	-5.99601E-002	2.44388E-001	3.57650E+000	9	...........
	50	0.68	2.31334E-001	-9.95907E-005	0.00000E+000	-2.30387E-005	-5.99601E-002	2.31380E-001	3.57650E+000	9	...........
	51	0.693333	2.18405E-001	-9.90312E-005	0.00000E+000	-2.16289E-005	-5.99601E-002	2.18449E-001	3.57650E+000	9	...........
	52	0.706667	2.05562E-001	-9.76413E-005	0.00000E+000	-2.00714E-005	-5.99601E-002	2.05606E-001	3.57650E+000	9	...........
	53	0.72	1.92799E-001	-9.88113E-005	0.00000E+000	-1.90507E-005	-5.99601E-002	1.92837E-001	3.57650E+000	9	...........
	54	0.733333	1.80103E-001	-9.87030E-005	0.00000E+000	-1.77767E-005	-5.99601E-002	1.80141E-001	3.57650E+000	9	...........
	55	0.746667	1.67490E-001	-1.00030E-004	0.00000E+000	-1.67541E-005	-5.99601E-002	1.67527E-001	3.57650E+000	9	...........
	56	0.76	1.54956E-001	-9.85821E-005	0.00000E+000	-1.52759E-005	-5.99601E-002	1.54982E-001	3.57650E+000	9	...........
	57	0.773333	1.42489E-001	-9.93010E-005	0.00000E+000	-1.41493E-005	-5.99601E-002	1.42515E-001	3.57650E+000	9	...........
	58	0.786667	1.30106E-001	-9.87040E-005	0.00000E+000	-1.28420E-005	-5.99601E-002	1.30132E-001	3.57650E+000	9	...........
	59	0.8	1.17800E-001	-9.81810E-005	0.00000E+000	-1.15658E-005	-5.99601E-002	1.17823E-001	3.57650E+000	9	...........
	60	0.813333	1.05584E-001	-9.75215E-005	0.00000E+000	-1.02968E-005	-5.99601E-002	1.05609E-001	3.57650E+000	9	...........
	61	0.826667	9.34671E-002	-9.95480E-005	0.00000E+000	-9.30446E-006	-5.99601E-002	9.34851E-002	3.57650E+000	9	...........
	62	0.84	8.14587E-002	-9.78684E-005	0.00000E+000	-7.97224E-006	-5.99601E-002	8.14723E-002	3.57650E+000	9	...........
	63	0.853333	6.95573E-002	-9.83019E-005	0.00000E+000	-6.83761E-006	-5.99601E-002	6.95679E-002	3.57650E+000	9	...........
	64	0.866667	5.77776E-002	-9.87686E-005	0.00000E+000	-5.70662E-006	-5.99601E-002	5.77873E-002	3.57650E+000	9	...........
	65	0.88	4.61635E-002	-9.89583E-005	0.00000E+000	-4.56826E-006	-5.99601E-002	4.61718E-002	3.57650E+000	9	...........
	66	0.893333	3.46940E-002	-9.99001E-005	0.00000E+000	-3.46593E-006	-5.99601E-002	3.46964E-002	3.57650E+000	9	...........
	67	0.906667	2.33630E-002	-9.83863E-005	0.00000E+000	-2.29859E-006	-5.99601E-002	2.33583E-002	3.57650E+000	9	...........
	68	0.92	1.22002E-002	-9.95375E-005	0.00000E+000	-1.21438E-006	-5.99601E-002	1.21904E-002	3.57650E+000	9	...........
	69	0.93	2.57163E-003	-9.85394E-005	0.00000E+000	-2.53407E-007	-5.99601E-002	2.55414E-003	3.57650E+000	9	...........
STARTTIMEOFFSET	QUANT	1741.78	Start Time Offset (s)
