EXPLAIN
TAG	PWR800_DISCHARGE
TITLE	LABEL	PWR Cyclic Charge Discharge (Cell) - Discharge Step	Test &Identifier
DATE	LABEL	12-7-2017	Date
TIME	LABEL	16:51:30	Time
NOTES	NOTES	2	&Notes...
	supercap test cell
	6M KOH
PSTAT	PSTAT	IFC5000-01520	Potentiostat
CAPACITY	QUANT	1.00000E-003	Capacity (A-hr)
CELLTYPE	SELECTOR	1	&Cell Type
WORKINGCONNECTION	SELECTOR	0	&Working Lead
MAXDISCHARGETIME	VARIABLEANDUNITS	1.00000E+002	s	1.00000E+002	second(s)	Max &Discharge Time
DISCHARGEMODE	MULTIPARAM	0	1.00000E-004	&Discharge Mode	Constant Current	Amp(s)
SAMPLETIME	QUANT	1.00000E-002	Sa&mple Period (s)
DISCHARGESTOPAT1	MULTIPARAM	3	0.00000E+000	Discharge Stop At &1	Voltage < Limit	V
DISCHARGESTOPAT2	MULTIPARAM	0	0.00000E+000	Discharge Stop At &2	None	N/A
AESBHCSELECTOR	TOGGLE	F	Save Both Half Cells
IRCOMP	TOGGLE	F	IR &Measure
EOC	QUANT	0	Open Circuit (V)
SEQUENCER	TOGGLE	TRUE	Run as Sequence
PSTATMODEL	IQUANT	53	Pstat Model
PSTATSECTION	LABEL	IFC5000-01520	Pstat Section
PSTATSERIALNO	LABEL	01520	Pstat Serial Number
CTRLMODE	IQUANT	0	Control Mode
ELECTROMETER	IQUANT	1	RE=0 or CS=1
IESTAB	IQUANT	0	I/E Stability
CASPEED	IQUANT	4	Control Amp Speed
CONVENTION	IQUANT	1	Current Convention
ICHRANGE	IQUANT	2	Ich Range
ICHRANGEMODE	TOGGLE	T	Ich Auto Range
ICHOFFSETENABLE	TOGGLE	F	Ich Offset Enable
ICHOFFSET	QUANT	0	Ich Offset (V)
ICHFILTER	IQUANT	1	Ich Filter
VCHRANGE	IQUANT	2	Vch Range
VCHRANGEMODE	TOGGLE	T	Vch Auto Range
VCHOFFSETENABLE	TOGGLE	F	Vch Offset Enable
VCHOFFSET	QUANT	0	Vch Offset (V)
VCHFILTER	IQUANT	1	Vch Filter
IERANGELOWERLIMIT	IQUANT	9	I/E Range Lower Limit
IERANGEMODE	TOGGLE	F	I/E AutoRange
IERANGE	IQUANT	9	I/E Range
ACHSELECT	IQUANT	1	Ach Select
ACHRANGE	IQUANT	2	Ach Range
ACHOFFSETENABLE	TOGGLE	F	Ach Offset Enable
ACHOFFSET	QUANT	0	Ach Offset (V)
ACHFILTER	IQUANT	1	Ach Filter
CABLEID	IQUANT	14	Cable ID
DCCALDATE	LABEL	5-7-2017	DC Calibration Date
ACCALDATE	LABEL	12/3/2015	AC Calibration Date
FRAMEWORKVERSION	QUANT	7.01	Framework Version
INSTRUMENTVERSION	LABEL	4.00	Instrument Version
CURVE	TABLE	70
	Pt	T	Vf	Im	Vu	Pwr	Sig	Ach	Temp	IERange	Over
	#	s	V	A	V	W	V	V	deg C	#	bits
	0	0.013333	8.44484E-001	-9.85342E-005	0.00000E+000	-8.32105E-005	-5.99601E-002	8.44804E-001	3.57770E+000	9	...........
	1	0.026667	8.31310E-001	-9.82696E-005	0.00000E+000	-8.16925E-005	-5.99601E-002	8.31601E-001	3.57770E+000	9	...........
	2	0.04	8.18709E-001	-9.89145E-005	0.00000E+000	-8.09822E-005	-5.99601E-002	8.18987E-001	3.57770E+000	9	...........
	3	0.053333	8.06472E-001	-9.93729E-005	0.00000E+000	-8.01415E-005	-5.99601E-002	8.06730E-001	3.57770E+000	9	...........
	4	0.066667	7.94520E-001	-9.89906E-005	0.00000E+000	-7.86500E-005	-5.99601E-002	7.94755E-001	3.57770E+000	9	...........
	5	0.08	7.82719E-001	-9.83071E-005	0.00000E+000	-7.69469E-005	-5.99601E-002	7.82949E-001	3.57770E+000	9	...........
	6	0.093333	7.71060E-001	-9.89270E-005	0.00000E+000	-7.62787E-005	-5.99601E-002	7.71324E-001	3.57770E+000	9	...........
	7	0.106667	7.59546E-001	-9.80372E-005	0.00000E+000	-7.44638E-005	-5.99601E-002	7.59789E-001	3.57770E+000	9	...........
	8	0.12	7.48144E-001	-9.91739E-005	0.00000E+000	-7.41964E-005	-5.99601E-002	7.48391E-001	3.57770E+000	9	...........
	9	0.133333	7.36817E-001	-9.96292E-005	0.00000E+000	-7.34086E-005	-5.99601E-002	7.37074E-001	3.57770E+000	9	...........
	10	0.146667	7.25600E-001	-9.87082E-005	0.00000E+000	-7.16226E-005	-5.99601E-002	7.25856E-001	3.57770E+000	9	...........
	11	0.16	7.14454E-001	-9.96188E-005	0.00000E+000	-7.11731E-005	-5.99601E-002	7.14713E-001	3.57770E+000	9	...........
	12	0.173333	7.03415E-001	-9.84331E-005	0.00000E+000	-6.92394E-005	-5.99601E-002	7.03651E-001	3.57770E+000	9	...........
	13	0.186667	6.92419E-001	-9.80914E-005	0.00000E+000	-6.79203E-005	-5.99601E-002	6.92679E-001	3.57770E+000	9	...........
	14	0.2	6.81531E-001	-9.86415E-005	0.00000E+000	-6.72272E-005	-5.99601E-002	6.81763E-001	3.57770E+000	9	...........
	15	0.213333	6.70714E-001	-9.85280E-005	0.00000E+000	-6.60841E-005	-5.99601E-002	6.70954E-001	3.57770E+000	9	...........
	16	0.226667	6.59919E-001	-9.89103E-005	0.00000E+000	-6.52728E-005	-5.99601E-002	6.60150E-001	3.57770E+000	9	...........
	17	0.24	6.49150E-001	-9.78997E-005	0.00000E+000	-6.35516E-005	-5.99601E-002	6.49408E-001	3.57770E+000	9	...........
	18	0.253333	6.38364E-001	-9.94219E-005	0.00000E+000	-6.34673E-005	-5.99601E-002	6.38604E-001	3.57770E+000	9	...........
	19	0.266667	6.27528E-001	-9.87009E-005	0.00000E+000	-6.19376E-005	-5.99601E-002	6.27739E-001	3.57770E+000	9	...........
	20	0.28	6.16526E-001	-1.00104E-004	0.00000E+000	-6.17169E-005	-5.99601E-002	6.16779E-001	3.57770E+000	9	...........
	21	0.293333	6.05349E-001	-9.86655E-005	0.00000E+000	-5.97270E-005	-5.99601E-002	6.05603E-001	3.57770E+000	9	...........
	22	0.306667	5.94030E-001	-9.94573E-005	0.00000E+000	-5.90806E-005	-5.99601E-002	5.94255E-001	3.57770E+000	9	...........
	23	0.32	5.82440E-001	-9.82581E-005	0.00000E+000	-5.72295E-005	-5.99601E-002	5.82678E-001	3.57770E+000	9	...........
	24	0.333333	5.70694E-001	-9.86676E-005	0.00000E+000	-5.63089E-005	-5.99601E-002	5.70908E-001	3.57770E+000	9	...........
	25	0.346667	5.58678E-001	-9.91104E-005	0.00000E+000	-5.53708E-005	-5.99601E-002	5.58892E-001	3.57770E+000	9	...........
	26	0.36	5.46516E-001	-9.87478E-005	0.00000E+000	-5.39672E-005	-5.99601E-002	5.46705E-001	3.57770E+000	9	...........
	27	0.373333	5.34123E-001	-9.68797E-005	0.00000E+000	-5.17456E-005	-5.99601E-002	5.34345E-001	3.57770E+000	9	...........
	28	0.386667	5.21588E-001	-9.93312E-005	0.00000E+000	-5.18100E-005	-5.99601E-002	5.21789E-001	3.57770E+000	9	...........
	29	0.4	5.08862E-001	-1.00327E-004	0.00000E+000	-5.10527E-005	-5.99601E-002	5.09059E-001	3.57770E+000	9	...........
	30	0.413333	4.96022E-001	-9.85061E-005	0.00000E+000	-4.88612E-005	-5.99601E-002	4.96225E-001	3.57725E+000	9	...........
	31	0.426667	4.83232E-001	-9.94584E-005	0.00000E+000	-4.80614E-005	-5.99601E-002	4.83364E-001	3.57650E+000	9	...........
	32	0.44	4.70272E-001	-9.82581E-005	0.00000E+000	-4.62081E-005	-5.99601E-002	4.70371E-001	3.57650E+000	9	...........
	33	0.453333	4.57097E-001	-9.89978E-005	0.00000E+000	-4.52516E-005	-5.99601E-002	4.57193E-001	3.57650E+000	9	...........
	34	0.466667	4.43851E-001	-9.80362E-005	0.00000E+000	-4.35135E-005	-5.99601E-002	4.43948E-001	3.57650E+000	9	...........
	35	0.48	4.30536E-001	-9.85769E-005	0.00000E+000	-4.24410E-005	-5.99601E-002	4.30627E-001	3.57650E+000	9	...........
	36	0.493333	4.17166E-001	-9.82310E-005	0.00000E+000	-4.09786E-005	-5.99601E-002	4.17248E-001	3.57650E+000	9	...........
	37	0.506667	4.03759E-001	-9.88395E-005	0.00000E+000	-3.99073E-005	-5.99601E-002	4.03837E-001	3.57650E+000	9	...........
	38	0.52	3.90324E-001	-9.94052E-005	0.00000E+000	-3.88002E-005	-5.99601E-002	3.90395E-001	3.57650E+000	9	...........
	39	0.533333	3.76869E-001	-9.82862E-005	0.00000E+000	-3.70410E-005	-5.99601E-002	3.76943E-001	3.57650E+000	9	...........
	40	0.546667	3.63412E-001	-9.72808E-005	0.00000E+000	-3.53531E-005	-5.99601E-002	3.63484E-001	3.57650E+000	9	...........
	41	0.56	3.49965E-001	-1.00677E-004	0.00000E+000	-3.52335E-005	-5.99601E-002	3.50033E-001	3.57650E+000	9	...........
	42	0.573333	3.36531E-001	-9.93187E-005	0.00000E+000	-3.34239E-005	-5.99601E-002	3.36604E-001	3.57650E+000	9	...........
	43	0.586667	3.23144E-001	-9.92635E-005	0.00000E+000	-3.20765E-005	-5.99601E-002	3.23204E-001	3.57650E+000	9	...........
	44	0.6	3.09785E-001	-9.90958E-005	0.00000E+000	-3.06984E-005	-5.99601E-002	3.09849E-001	3.57650E+000	9	...........
	45	0.613333	2.96479E-001	-9.94375E-005	0.00000E+000	-2.94811E-005	-5.99601E-002	2.96539E-001	3.57650E+000	9	...........
	46	0.626667	2.83227E-001	-9.79237E-005	0.00000E+000	-2.77346E-005	-5.99601E-002	2.83287E-001	3.57650E+000	9	...........
	47	0.64	2.70040E-001	-9.82675E-005	0.00000E+000	-2.65361E-005	-5.99601E-002	2.70098E-001	3.57650E+000	9	...........
	48	0.653333	2.56914E-001	-9.78809E-005	0.00000E+000	-2.51470E-005	-5.99601E-002	2.56965E-001	3.57650E+000	9	...........
	49	0.666667	2.43854E-001	-9.90958E-005	0.00000E+000	-2.41649E-005	-5.99601E-002	2.43901E-001	3.57650E+000	9	...........
	50	0.68	2.30864E-001	-9.88363E-005	0.00000E+000	-2.28177E-005	-5.99601E-002	2.30912E-001	3.57650E+000	9	...........
	51	0.693333	2.17958E-001	-9.89457E-005	0.00000E+000	-2.15660E-005	-5.99601E-002	2.17999E-001	3.57650E+000	9	...........
	52	0.706667	2.05119E-001	-9.94042E-005	0.00000E+000	-2.03897E-005	-5.99601E-002	2.05163E-001	3.57650E+000	9	...........
	53	0.72	1.92357E-001	-9.75788E-005	0.00000E+000	-1.87700E-005	-5.99601E-002	1.92405E-001	3.57650E+000	9	...........
	54	0.733333	1.79678E-001	-9.84446E-005	0.00000E+000	-1.76884E-005	-5.99601E-002	1.79712E-001	3.57650E+000	9	...........
	55	0.746667	1.67068E-001	-9.73788E-005	0.00000E+000	-1.62689E-005	-5.99601E-002	1.67106E-001	3.57650E+000	9	...........
	56	0.76	1.54528E-001	-9.88853E-005	0.00000E+000	-1.52805E-005	-5.99601E-002	1.54559E-001	3.57650E+000	9	...........
	57	0.773333	1.42075E-001	-9.79497E-005	0.00000E+000	-1.39162E-005	-5.99601E-002	1.42100E-001	3.57650E+000	9	...........
	58	0.786667	1.29703E-001	-9.94334E-005	0.00000E+000	-1.28968E-005	-5.99601E-002	1.29726E-001	3.57650E+000	9	...........
	59	0.8	1.17406E-001	-9.91437E-005	0.00000E+000	-1.16401E-005	-5.99601E-002	1.17429E-001	3.57650E+000	9	...........
	60	0.813333	1.05207E-001	-1.00186E-004	0.00000E+000	-1.05402E-005	-5.99601E-002	1.05223E-001	3.57650E+000	9	...........
	61	0.826667	9.30981E-002	-9.96584E-005	0.00000E+000	-9.27800E-006	-5.99601E-002	9.31144E-002	3.57650E+000	9	...........
	62	0.84	8.10940E-002	-9.91875E-005	0.00000E+000	-8.04351E-006	-5.99601E-002	8.11008E-002	3.57650E+000	9	...........
	63	0.853333	6.92070E-002	-9.77695E-005	0.00000E+000	-6.76633E-006	-5.99601E-002	6.92075E-002	3.57650E+000	9	...........
	64	0.866667	5.74433E-002	-9.97470E-005	0.00000E+000	-5.72979E-006	-5.99601E-002	5.74433E-002	3.57650E+000	9	...........
	65	0.88	4.58398E-002	-9.86874E-005	0.00000E+000	-4.52381E-006	-5.99601E-002	4.58425E-002	3.57650E+000	9	...........
	66	0.893333	3.43802E-002	-9.68609E-005	0.00000E+000	-3.33010E-006	-5.99601E-002	3.43817E-002	3.57650E+000	9	...........
	67	0.906667	2.30672E-002	-9.94313E-005	0.00000E+000	-2.29360E-006	-5.99601E-002	2.30592E-002	3.57650E+000	9	...........
	68	0.92	1.19196E-002	-9.87426E-005	0.00000E+000	-1.17697E-006	-5.99601E-002	1.19037E-002	3.57650E+000	9	...........
	69	0.93	2.30551E-003	-9.84463E-005	0.00000E+000	-2.26969E-007	-5.99601E-002	2.28534E-003	3.57650E+000	9	...........
STARTTIMEOFFSET	QUANT	1766.683	Start Time Offset (s)
