EXPLAIN
TAG	PWR800_DISCHARGE
TITLE	LABEL	PWR Cyclic Charge Discharge (Cell) - Discharge Step	Test &Identifier
DATE	LABEL	12-7-2017	Date
TIME	LABEL	16:44:32	Time
NOTES	NOTES	2	&Notes...
	supercap test cell
	6M KOH
PSTAT	PSTAT	IFC5000-01520	Potentiostat
CAPACITY	QUANT	1.00000E-003	Capacity (A-hr)
CELLTYPE	SELECTOR	1	&Cell Type
WORKINGCONNECTION	SELECTOR	0	&Working Lead
MAXDISCHARGETIME	VARIABLEANDUNITS	1.00000E+002	s	1.00000E+002	second(s)	Max &Discharge Time
DISCHARGEMODE	MULTIPARAM	0	1.00000E-004	&Discharge Mode	Constant Current	Amp(s)
SAMPLETIME	QUANT	1.00000E-002	Sa&mple Period (s)
DISCHARGESTOPAT1	MULTIPARAM	3	0.00000E+000	Discharge Stop At &1	Voltage < Limit	V
DISCHARGESTOPAT2	MULTIPARAM	0	0.00000E+000	Discharge Stop At &2	None	N/A
AESBHCSELECTOR	TOGGLE	F	Save Both Half Cells
IRCOMP	TOGGLE	F	IR &Measure
EOC	QUANT	0	Open Circuit (V)
SEQUENCER	TOGGLE	TRUE	Run as Sequence
PSTATMODEL	IQUANT	53	Pstat Model
PSTATSECTION	LABEL	IFC5000-01520	Pstat Section
PSTATSERIALNO	LABEL	01520	Pstat Serial Number
CTRLMODE	IQUANT	0	Control Mode
ELECTROMETER	IQUANT	1	RE=0 or CS=1
IESTAB	IQUANT	0	I/E Stability
CASPEED	IQUANT	4	Control Amp Speed
CONVENTION	IQUANT	1	Current Convention
ICHRANGE	IQUANT	2	Ich Range
ICHRANGEMODE	TOGGLE	T	Ich Auto Range
ICHOFFSETENABLE	TOGGLE	F	Ich Offset Enable
ICHOFFSET	QUANT	0	Ich Offset (V)
ICHFILTER	IQUANT	1	Ich Filter
VCHRANGE	IQUANT	2	Vch Range
VCHRANGEMODE	TOGGLE	T	Vch Auto Range
VCHOFFSETENABLE	TOGGLE	F	Vch Offset Enable
VCHOFFSET	QUANT	0	Vch Offset (V)
VCHFILTER	IQUANT	1	Vch Filter
IERANGELOWERLIMIT	IQUANT	9	I/E Range Lower Limit
IERANGEMODE	TOGGLE	F	I/E AutoRange
IERANGE	IQUANT	9	I/E Range
ACHSELECT	IQUANT	1	Ach Select
ACHRANGE	IQUANT	2	Ach Range
ACHOFFSETENABLE	TOGGLE	F	Ach Offset Enable
ACHOFFSET	QUANT	0	Ach Offset (V)
ACHFILTER	IQUANT	1	Ach Filter
CABLEID	IQUANT	14	Cable ID
DCCALDATE	LABEL	5-7-2017	DC Calibration Date
ACCALDATE	LABEL	12/3/2015	AC Calibration Date
FRAMEWORKVERSION	QUANT	7.01	Framework Version
INSTRUMENTVERSION	LABEL	4.00	Instrument Version
CURVE	TABLE	71
	Pt	T	Vf	Im	Vu	Pwr	Sig	Ach	Temp	IERange	Over
	#	s	V	A	V	W	V	V	deg C	#	bits
	0	0.013333	8.45333E-001	-9.90135E-005	0.00000E+000	-8.36993E-005	-5.99601E-002	8.45625E-001	3.57640E+000	9	...........
	1	0.026667	8.32179E-001	-9.77997E-005	0.00000E+000	-8.13868E-005	-5.99601E-002	8.32452E-001	3.57640E+000	9	...........
	2	0.04	8.19612E-001	-9.87207E-005	0.00000E+000	-8.09127E-005	-5.99601E-002	8.19887E-001	3.57640E+000	9	...........
	3	0.053333	8.07412E-001	-9.95750E-005	0.00000E+000	-8.03981E-005	-5.99601E-002	8.07690E-001	3.57640E+000	9	...........
	4	0.066667	7.95534E-001	-9.81247E-005	0.00000E+000	-7.80616E-005	-5.99601E-002	7.95762E-001	3.57640E+000	9	...........
	5	0.08	7.83780E-001	-9.86269E-005	0.00000E+000	-7.73018E-005	-5.99601E-002	7.84050E-001	3.57640E+000	9	...........
	6	0.093333	7.72207E-001	-9.83540E-005	0.00000E+000	-7.59496E-005	-5.99601E-002	7.72486E-001	3.57640E+000	9	...........
	7	0.106667	7.60775E-001	-9.80560E-005	0.00000E+000	-7.45986E-005	-5.99601E-002	7.61019E-001	3.57640E+000	9	...........
	8	0.12	7.49443E-001	-9.94156E-005	0.00000E+000	-7.45064E-005	-5.99601E-002	7.49706E-001	3.57640E+000	9	...........
	9	0.133333	7.38208E-001	-9.95698E-005	0.00000E+000	-7.35033E-005	-5.99601E-002	7.38443E-001	3.57640E+000	9	...........
	10	0.146667	7.27086E-001	-9.84915E-005	0.00000E+000	-7.16118E-005	-5.99601E-002	7.27324E-001	3.57640E+000	9	...........
	11	0.16	7.16015E-001	-9.81487E-005	0.00000E+000	-7.02759E-005	-5.99601E-002	7.16240E-001	3.57640E+000	9	...........
	12	0.173333	7.05028E-001	-9.83310E-005	0.00000E+000	-6.93262E-005	-5.99601E-002	7.05268E-001	3.57640E+000	9	...........
	13	0.186667	6.94132E-001	-9.86217E-005	0.00000E+000	-6.84565E-005	-5.99601E-002	6.94374E-001	3.57640E+000	9	...........
	14	0.2	6.83308E-001	-9.80904E-005	0.00000E+000	-6.70259E-005	-5.99601E-002	6.83545E-001	3.57640E+000	9	...........
	15	0.213333	6.72550E-001	-9.94719E-005	0.00000E+000	-6.68998E-005	-5.99601E-002	6.72822E-001	3.57640E+000	9	...........
	16	0.226667	6.61840E-001	-9.77267E-005	0.00000E+000	-6.46795E-005	-5.99601E-002	6.62090E-001	3.57640E+000	9	...........
	17	0.24	6.51153E-001	-9.97980E-005	0.00000E+000	-6.49838E-005	-5.99601E-002	6.51387E-001	3.57640E+000	9	...........
	18	0.253333	6.40407E-001	-9.83342E-005	0.00000E+000	-6.29739E-005	-5.99601E-002	6.40651E-001	3.57640E+000	9	...........
	19	0.266667	6.29555E-001	-9.78476E-005	0.00000E+000	-6.16005E-005	-5.99601E-002	6.29837E-001	3.57640E+000	9	...........
	20	0.28	6.18645E-001	-9.82196E-005	0.00000E+000	-6.07630E-005	-5.99601E-002	6.18853E-001	3.57640E+000	9	...........
	21	0.293333	6.07452E-001	-9.84008E-005	0.00000E+000	-5.97738E-005	-5.99601E-002	6.07735E-001	3.57640E+000	9	...........
	22	0.306667	5.96170E-001	-9.85821E-005	0.00000E+000	-5.87718E-005	-5.99601E-002	5.96415E-001	3.57640E+000	9	...........
	23	0.32	5.84626E-001	-9.87259E-005	0.00000E+000	-5.77178E-005	-5.99601E-002	5.84865E-001	3.57640E+000	9	...........
	24	0.333333	5.72893E-001	-9.79820E-005	0.00000E+000	-5.61332E-005	-5.99601E-002	5.73140E-001	3.57640E+000	9	...........
	25	0.346667	5.60956E-001	-9.92125E-005	0.00000E+000	-5.56539E-005	-5.99601E-002	5.61155E-001	3.57640E+000	9	...........
	26	0.36	5.48817E-001	-9.83290E-005	0.00000E+000	-5.39646E-005	-5.99601E-002	5.49017E-001	3.57640E+000	9	...........
	27	0.373333	5.36487E-001	-9.85457E-005	0.00000E+000	-5.28685E-005	-5.99601E-002	5.36691E-001	3.57640E+000	9	...........
	28	0.386667	5.24010E-001	-9.96949E-005	0.00000E+000	-5.22411E-005	-5.99601E-002	5.24190E-001	3.57640E+000	9	...........
	29	0.4	5.11365E-001	-9.73527E-005	0.00000E+000	-4.97828E-005	-5.99601E-002	5.11544E-001	3.57640E+000	9	...........
	30	0.413333	4.98599E-001	-9.84342E-005	0.00000E+000	-4.90792E-005	-5.99601E-002	4.98808E-001	3.57640E+000	9	...........
	31	0.426667	4.85842E-001	-9.85894E-005	0.00000E+000	-4.78989E-005	-5.99601E-002	4.86004E-001	3.57640E+000	9	...........
	32	0.44	4.73019E-001	-9.86634E-005	0.00000E+000	-4.66697E-005	-5.99601E-002	4.73122E-001	3.57640E+000	9	...........
	33	0.453333	4.59932E-001	-9.90520E-005	0.00000E+000	-4.55572E-005	-5.99601E-002	4.60030E-001	3.57640E+000	9	...........
	34	0.466667	4.46766E-001	-9.77205E-005	0.00000E+000	-4.36582E-005	-5.99601E-002	4.46863E-001	3.57640E+000	9	...........
	35	0.48	4.33526E-001	-1.00018E-004	0.00000E+000	-4.33604E-005	-5.99601E-002	4.33617E-001	3.57640E+000	9	...........
	36	0.493333	4.20231E-001	-1.00238E-004	0.00000E+000	-4.21230E-005	-5.99601E-002	4.20328E-001	3.57640E+000	9	...........
	37	0.506667	4.06912E-001	-9.87238E-005	0.00000E+000	-4.01719E-005	-5.99601E-002	4.07000E-001	3.57640E+000	9	...........
	38	0.52	3.93569E-001	-9.84706E-005	0.00000E+000	-3.87550E-005	-5.99601E-002	3.93646E-001	3.57640E+000	9	...........
	39	0.533333	3.80206E-001	-9.96105E-005	0.00000E+000	-3.78725E-005	-5.99601E-002	3.80285E-001	3.57640E+000	9	...........
	40	0.546667	3.66845E-001	-9.91406E-005	0.00000E+000	-3.63692E-005	-5.99601E-002	3.66926E-001	3.57640E+000	9	...........
	41	0.56	3.53495E-001	-9.90895E-005	0.00000E+000	-3.50277E-005	-5.99601E-002	3.53564E-001	3.57640E+000	9	...........
	42	0.573333	3.40158E-001	-9.93375E-005	0.00000E+000	-3.37904E-005	-5.99601E-002	3.40230E-001	3.57640E+000	9	...........
	43	0.586667	3.26858E-001	-9.76517E-005	0.00000E+000	-3.19182E-005	-5.99601E-002	3.26920E-001	3.57640E+000	9	...........
	44	0.6	3.13591E-001	-9.79091E-005	0.00000E+000	-3.07034E-005	-5.99601E-002	3.13662E-001	3.57640E+000	9	...........
	45	0.613333	3.00374E-001	-9.82425E-005	0.00000E+000	-2.95095E-005	-5.99601E-002	3.00440E-001	3.57640E+000	9	...........
	46	0.626667	2.87214E-001	-9.88311E-005	0.00000E+000	-2.83857E-005	-5.99601E-002	2.87271E-001	3.57640E+000	9	...........
	47	0.64	2.74100E-001	-9.93969E-005	0.00000E+000	-2.72447E-005	-5.99601E-002	2.74155E-001	3.57640E+000	9	...........
	48	0.653333	2.61049E-001	-9.96886E-005	0.00000E+000	-2.60236E-005	-5.99601E-002	2.61101E-001	3.57640E+000	9	...........
	49	0.666667	2.48067E-001	-9.80633E-005	0.00000E+000	-2.43263E-005	-5.99601E-002	2.48112E-001	3.57640E+000	9	...........
	50	0.68	2.35157E-001	-9.92583E-005	0.00000E+000	-2.33413E-005	-5.99601E-002	2.35198E-001	3.57640E+000	9	...........
	51	0.693333	2.22317E-001	-9.84206E-005	0.00000E+000	-2.18806E-005	-5.99601E-002	2.22360E-001	3.57640E+000	9	...........
	52	0.706667	2.09543E-001	-9.80070E-005	0.00000E+000	-2.05367E-005	-5.99601E-002	2.09584E-001	3.57640E+000	9	...........
	53	0.72	1.96843E-001	-9.85894E-005	0.00000E+000	-1.94067E-005	-5.99601E-002	1.96882E-001	3.57640E+000	9	...........
	54	0.733333	1.84213E-001	-9.80841E-005	0.00000E+000	-1.80684E-005	-5.99601E-002	1.84250E-001	3.57640E+000	9	...........
	55	0.746667	1.71653E-001	-9.80237E-005	0.00000E+000	-1.68260E-005	-5.99601E-002	1.71683E-001	3.57640E+000	9	...........
	56	0.76	1.59165E-001	-9.95500E-005	0.00000E+000	-1.58449E-005	-5.99601E-002	1.59191E-001	3.57640E+000	9	...........
	57	0.773333	1.46744E-001	-9.78705E-005	0.00000E+000	-1.43620E-005	-5.99601E-002	1.46773E-001	3.57640E+000	9	...........
	58	0.786667	1.34392E-001	-9.89145E-005	0.00000E+000	-1.32933E-005	-5.99601E-002	1.34413E-001	3.57640E+000	9	...........
	59	0.8	1.22119E-001	-9.85009E-005	0.00000E+000	-1.20288E-005	-5.99601E-002	1.22137E-001	3.57640E+000	9	...........
	60	0.813333	1.09920E-001	-9.81300E-005	0.00000E+000	-1.07865E-005	-5.99601E-002	1.09942E-001	3.57640E+000	9	...........
	61	0.826667	9.78236E-002	-9.76184E-005	0.00000E+000	-9.54939E-006	-5.99601E-002	9.78426E-002	3.57640E+000	9	...........
	62	0.84	8.58229E-002	-9.84311E-005	0.00000E+000	-8.44764E-006	-5.99601E-002	8.58369E-002	3.57640E+000	9	...........
	63	0.853333	7.39355E-002	-9.90833E-005	0.00000E+000	-7.32577E-006	-5.99601E-002	7.39461E-002	3.57640E+000	9	...........
	64	0.866667	6.21708E-002	-9.82404E-005	0.00000E+000	-6.10769E-006	-5.99601E-002	6.21718E-002	3.57659E+000	9	...........
	65	0.88	5.05304E-002	-9.90354E-005	0.00000E+000	-5.00430E-006	-5.99601E-002	5.05337E-002	3.57790E+000	9	...........
	66	0.893333	3.90495E-002	-9.83685E-005	0.00000E+000	-3.84124E-006	-5.99601E-002	3.90556E-002	3.57790E+000	9	...........
	67	0.906667	2.76980E-002	-9.81404E-005	0.00000E+000	-2.71829E-006	-5.99601E-002	2.76926E-002	3.57790E+000	9	...........
	68	0.92	1.64956E-002	-9.88311E-005	0.00000E+000	-1.63028E-006	-5.99601E-002	1.64854E-002	3.57790E+000	9	...........
	69	0.933333	5.45478E-003	-9.87655E-005	0.00000E+000	-5.38744E-007	-5.99601E-002	5.44041E-003	3.57790E+000	9	...........
	70	0.935	-6.71775E-004	-9.87353E-005	0.00000E+000	6.63279E-008	-5.99601E-002	-7.01163E-004	3.57790E+000	9	...........
STARTTIMEOFFSET	QUANT	1470.689	Start Time Offset (s)
