EXPLAIN
TAG	PWR800_DISCHARGE
TITLE	LABEL	PWR Cyclic Charge Discharge (Cell) - Discharge Step	Test &Identifier
DATE	LABEL	12-7-2017	Date
TIME	LABEL	16:14:15	Time
NOTES	NOTES	2	&Notes...
	supercap test cell
	6M KOH
PSTAT	PSTAT	IFC5000-01520	Potentiostat
CAPACITY	QUANT	1.00000E-003	Capacity (A-hr)
CELLTYPE	SELECTOR	1	&Cell Type
WORKINGCONNECTION	SELECTOR	0	&Working Lead
MAXDISCHARGETIME	VARIABLEANDUNITS	1.00000E+002	s	1.00000E+002	second(s)	Max &Discharge Time
DISCHARGEMODE	MULTIPARAM	0	1.00000E-004	&Discharge Mode	Constant Current	Amp(s)
SAMPLETIME	QUANT	1.00000E-002	Sa&mple Period (s)
DISCHARGESTOPAT1	MULTIPARAM	3	0.00000E+000	Discharge Stop At &1	Voltage < Limit	V
DISCHARGESTOPAT2	MULTIPARAM	0	0.00000E+000	Discharge Stop At &2	None	N/A
AESBHCSELECTOR	TOGGLE	F	Save Both Half Cells
IRCOMP	TOGGLE	F	IR &Measure
EOC	QUANT	0	Open Circuit (V)
SEQUENCER	TOGGLE	TRUE	Run as Sequence
PSTATMODEL	IQUANT	53	Pstat Model
PSTATSECTION	LABEL	IFC5000-01520	Pstat Section
PSTATSERIALNO	LABEL	01520	Pstat Serial Number
CTRLMODE	IQUANT	0	Control Mode
ELECTROMETER	IQUANT	1	RE=0 or CS=1
IESTAB	IQUANT	0	I/E Stability
CASPEED	IQUANT	4	Control Amp Speed
CONVENTION	IQUANT	1	Current Convention
ICHRANGE	IQUANT	2	Ich Range
ICHRANGEMODE	TOGGLE	T	Ich Auto Range
ICHOFFSETENABLE	TOGGLE	F	Ich Offset Enable
ICHOFFSET	QUANT	0	Ich Offset (V)
ICHFILTER	IQUANT	1	Ich Filter
VCHRANGE	IQUANT	2	Vch Range
VCHRANGEMODE	TOGGLE	T	Vch Auto Range
VCHOFFSETENABLE	TOGGLE	F	Vch Offset Enable
VCHOFFSET	QUANT	0	Vch Offset (V)
VCHFILTER	IQUANT	1	Vch Filter
IERANGELOWERLIMIT	IQUANT	9	I/E Range Lower Limit
IERANGEMODE	TOGGLE	F	I/E AutoRange
IERANGE	IQUANT	9	I/E Range
ACHSELECT	IQUANT	1	Ach Select
ACHRANGE	IQUANT	2	Ach Range
ACHOFFSETENABLE	TOGGLE	F	Ach Offset Enable
ACHOFFSET	QUANT	0	Ach Offset (V)
ACHFILTER	IQUANT	1	Ach Filter
CABLEID	IQUANT	14	Cable ID
DCCALDATE	LABEL	5-7-2017	DC Calibration Date
ACCALDATE	LABEL	12/3/2015	AC Calibration Date
FRAMEWORKVERSION	QUANT	7.01	Framework Version
INSTRUMENTVERSION	LABEL	4.00	Instrument Version
CURVE	TABLE	72
	Pt	T	Vf	Im	Vu	Pwr	Sig	Ach	Temp	IERange	Over
	#	s	V	A	V	W	V	V	deg C	#	bits
	0	0.013333	8.41245E-001	-9.88186E-005	0.00000E+000	-8.31307E-005	-5.99601E-002	8.41521E-001	3.57720E+000	9	...........
	1	0.026667	8.28235E-001	-9.83352E-005	0.00000E+000	-8.14447E-005	-5.99601E-002	8.28498E-001	3.57720E+000	9	...........
	2	0.04	8.15803E-001	-9.85957E-005	0.00000E+000	-8.04346E-005	-5.99601E-002	8.16083E-001	3.57720E+000	9	...........
	3	0.053333	8.03762E-001	-9.91333E-005	0.00000E+000	-7.96796E-005	-5.99601E-002	8.04040E-001	3.57720E+000	9	...........
	4	0.066667	7.91990E-001	-9.91041E-005	0.00000E+000	-7.84895E-005	-5.99601E-002	7.92242E-001	3.57720E+000	9	...........
	5	0.08	7.80417E-001	-9.86874E-005	0.00000E+000	-7.70173E-005	-5.99601E-002	7.80660E-001	3.57720E+000	9	...........
	6	0.093333	7.68988E-001	-9.87926E-005	0.00000E+000	-7.59703E-005	-5.99601E-002	7.69206E-001	3.57720E+000	9	...........
	7	0.106667	7.57635E-001	-9.76507E-005	0.00000E+000	-7.39836E-005	-5.99601E-002	7.57855E-001	3.57720E+000	9	...........
	8	0.12	7.46337E-001	-9.90937E-005	0.00000E+000	-7.39573E-005	-5.99601E-002	7.46593E-001	3.57720E+000	9	...........
	9	0.133333	7.35047E-001	-9.86478E-005	0.00000E+000	-7.25107E-005	-5.99601E-002	7.35275E-001	3.57720E+000	9	...........
	10	0.146667	7.23773E-001	-9.83248E-005	0.00000E+000	-7.11648E-005	-5.99601E-002	7.23991E-001	3.57720E+000	9	...........
	11	0.16	7.12358E-001	-9.90364E-005	0.00000E+000	-7.05494E-005	-5.99601E-002	7.12620E-001	3.57720E+000	9	...........
	12	0.173333	7.00937E-001	-9.82175E-005	0.00000E+000	-6.88442E-005	-5.99601E-002	7.01172E-001	3.57720E+000	9	...........
	13	0.186667	6.89367E-001	-9.82967E-005	0.00000E+000	-6.77625E-005	-5.99601E-002	6.89624E-001	3.57720E+000	9	...........
	14	0.2	6.77748E-001	-9.88395E-005	0.00000E+000	-6.69883E-005	-5.99601E-002	6.77983E-001	3.57720E+000	9	...........
	15	0.213333	6.66001E-001	-9.94427E-005	0.00000E+000	-6.62290E-005	-5.99601E-002	6.66264E-001	3.57720E+000	9	...........
	16	0.226667	6.54169E-001	-9.91656E-005	0.00000E+000	-6.48711E-005	-5.99601E-002	6.54437E-001	3.57720E+000	9	...........
	17	0.24	6.42280E-001	-9.97991E-005	0.00000E+000	-6.40989E-005	-5.99601E-002	6.42552E-001	3.57720E+000	9	...........
	18	0.253333	6.30306E-001	-9.87988E-005	0.00000E+000	-6.22735E-005	-5.99601E-002	6.30596E-001	3.57720E+000	9	...........
	19	0.266667	6.18345E-001	-9.85530E-005	0.00000E+000	-6.09397E-005	-5.99601E-002	6.18597E-001	3.57720E+000	9	...........
	20	0.28	6.06242E-001	-9.88864E-005	0.00000E+000	-5.99490E-005	-5.99601E-002	6.06536E-001	3.57720E+000	9	...........
	21	0.293333	5.94181E-001	-9.93448E-005	0.00000E+000	-5.90288E-005	-5.99601E-002	5.94448E-001	3.57720E+000	9	...........
	22	0.306667	5.82067E-001	-9.80258E-005	0.00000E+000	-5.70575E-005	-5.99601E-002	5.82333E-001	3.57720E+000	9	...........
	23	0.32	5.69966E-001	-9.84852E-005	0.00000E+000	-5.61332E-005	-5.99601E-002	5.70180E-001	3.57720E+000	9	...........
	24	0.333333	5.57790E-001	-9.93813E-005	0.00000E+000	-5.54339E-005	-5.99601E-002	5.58039E-001	3.57720E+000	9	...........
	25	0.346667	5.45637E-001	-9.89583E-005	0.00000E+000	-5.39953E-005	-5.99601E-002	5.45895E-001	3.57720E+000	9	...........
	26	0.36	5.33497E-001	-9.88791E-005	0.00000E+000	-5.27517E-005	-5.99601E-002	5.33741E-001	3.57720E+000	9	...........
	27	0.373333	5.21387E-001	-9.89176E-005	0.00000E+000	-5.15743E-005	-5.99601E-002	5.21614E-001	3.57720E+000	9	...........
	28	0.386667	5.09256E-001	-9.97136E-005	0.00000E+000	-5.07797E-005	-5.99601E-002	5.09508E-001	3.57720E+000	9	...........
	29	0.4	4.97149E-001	-9.86749E-005	0.00000E+000	-4.90561E-005	-5.99601E-002	4.97420E-001	3.57720E+000	9	...........
	30	0.413333	4.85223E-001	-9.84686E-005	0.00000E+000	-4.77792E-005	-5.99601E-002	4.85403E-001	3.57720E+000	9	...........
	31	0.426667	4.73370E-001	-9.91968E-005	0.00000E+000	-4.69568E-005	-5.99601E-002	4.73476E-001	3.57720E+000	9	...........
	32	0.44	4.61351E-001	-9.88134E-005	0.00000E+000	-4.55877E-005	-5.99601E-002	4.61448E-001	3.57720E+000	9	...........
	33	0.453333	4.49357E-001	-9.91135E-005	0.00000E+000	-4.45374E-005	-5.99601E-002	4.49452E-001	3.57720E+000	9	...........
	34	0.466667	4.37389E-001	-9.86801E-005	0.00000E+000	-4.31615E-005	-5.99601E-002	4.37486E-001	3.57720E+000	9	...........
	35	0.48	4.25442E-001	-9.73975E-005	0.00000E+000	-4.14370E-005	-5.99601E-002	4.25533E-001	3.57720E+000	9	...........
	36	0.493333	4.13530E-001	-9.93865E-005	0.00000E+000	-4.10992E-005	-5.99601E-002	4.13613E-001	3.57720E+000	9	...........
	37	0.506667	4.01639E-001	-9.81998E-005	0.00000E+000	-3.94408E-005	-5.99601E-002	4.01719E-001	3.57720E+000	9	...........
	38	0.52	3.89756E-001	-9.84394E-005	0.00000E+000	-3.83674E-005	-5.99601E-002	3.89834E-001	3.57720E+000	9	...........
	39	0.533333	3.77890E-001	-9.93521E-005	0.00000E+000	-3.75441E-005	-5.99601E-002	3.77968E-001	3.57720E+000	9	...........
	40	0.546667	3.66047E-001	-9.86707E-005	0.00000E+000	-3.61181E-005	-5.99601E-002	3.66124E-001	3.57720E+000	9	...........
	41	0.56	3.54210E-001	-9.92135E-005	0.00000E+000	-3.51424E-005	-5.99601E-002	3.54280E-001	3.57720E+000	9	...........
	42	0.573333	3.42377E-001	-9.80466E-005	0.00000E+000	-3.35689E-005	-5.99601E-002	3.42450E-001	3.57720E+000	9	...........
	43	0.586667	3.30547E-001	-9.96938E-005	0.00000E+000	-3.29535E-005	-5.99601E-002	3.30617E-001	3.57720E+000	9	...........
	44	0.6	3.18706E-001	-9.84821E-005	0.00000E+000	-3.13869E-005	-5.99601E-002	3.18778E-001	3.57720E+000	9	...........
	45	0.613333	3.06861E-001	-9.87697E-005	0.00000E+000	-3.03085E-005	-5.99601E-002	3.06933E-001	3.57720E+000	9	...........
	46	0.626667	2.94999E-001	-9.93396E-005	0.00000E+000	-2.93050E-005	-5.99601E-002	2.95064E-001	3.57720E+000	9	...........
	47	0.64	2.83129E-001	-9.83925E-005	0.00000E+000	-2.78578E-005	-5.99601E-002	2.83193E-001	3.57720E+000	9	...........
	48	0.653333	2.71241E-001	-9.88072E-005	0.00000E+000	-2.68006E-005	-5.99601E-002	2.71304E-001	3.57720E+000	9	...........
	49	0.666667	2.59343E-001	-9.92594E-005	0.00000E+000	-2.57422E-005	-5.99601E-002	2.59401E-001	3.57720E+000	9	...........
	50	0.68	2.47429E-001	-9.90676E-005	0.00000E+000	-2.45123E-005	-5.99601E-002	2.47483E-001	3.57720E+000	9	...........
	51	0.693333	2.35512E-001	-9.92917E-005	0.00000E+000	-2.33843E-005	-5.99601E-002	2.35558E-001	3.57720E+000	9	...........
	52	0.706667	2.23577E-001	-9.93344E-005	0.00000E+000	-2.22088E-005	-5.99601E-002	2.23624E-001	3.57720E+000	9	...........
	53	0.72	2.11640E-001	-9.83977E-005	0.00000E+000	-2.08249E-005	-5.99601E-002	2.11684E-001	3.57720E+000	9	...........
	54	0.733333	1.99711E-001	-9.89853E-005	0.00000E+000	-1.97684E-005	-5.99601E-002	1.99754E-001	3.57720E+000	9	...........
	55	0.746667	1.87787E-001	-9.84696E-005	0.00000E+000	-1.84913E-005	-5.99601E-002	1.87821E-001	3.57720E+000	9	...........
	56	0.76	1.75854E-001	-9.89426E-005	0.00000E+000	-1.73995E-005	-5.99601E-002	1.75891E-001	3.57720E+000	9	...........
	57	0.773333	1.63939E-001	-9.92041E-005	0.00000E+000	-1.62635E-005	-5.99601E-002	1.63974E-001	3.57720E+000	9	...........
	58	0.786667	1.52040E-001	-9.79612E-005	0.00000E+000	-1.48941E-005	-5.99601E-002	1.52071E-001	3.57720E+000	9	...........
	59	0.8	1.40163E-001	-9.91885E-005	0.00000E+000	-1.39026E-005	-5.99601E-002	1.40192E-001	3.57720E+000	9	...........
	60	0.813333	1.28324E-001	-9.88051E-005	0.00000E+000	-1.26790E-005	-5.99601E-002	1.28349E-001	3.57720E+000	9	...........
	61	0.826667	1.16510E-001	-9.90374E-005	0.00000E+000	-1.15388E-005	-5.99601E-002	1.16534E-001	3.57720E+000	9	...........
	62	0.84	1.04746E-001	-9.88343E-005	0.00000E+000	-1.03524E-005	-5.99601E-002	1.04762E-001	3.57861E+000	9	...........
	63	0.853333	9.30273E-002	-9.91583E-005	0.00000E+000	-9.22442E-006	-5.99601E-002	9.30412E-002	3.57870E+000	9	...........
	64	0.866667	8.13918E-002	-9.80018E-005	0.00000E+000	-7.97654E-006	-5.99601E-002	8.14042E-002	3.57870E+000	9	...........
	65	0.88	6.98374E-002	-9.83029E-005	0.00000E+000	-6.86522E-006	-5.99601E-002	6.98410E-002	3.57870E+000	9	...........
	66	0.893333	5.83590E-002	-9.86332E-005	0.00000E+000	-5.75614E-006	-5.99601E-002	5.83683E-002	3.57870E+000	9	...........
	67	0.906667	4.70073E-002	-9.83967E-005	0.00000E+000	-4.62536E-006	-5.99601E-002	4.70086E-002	3.57870E+000	9	...........
	68	0.92	3.57649E-002	-9.92469E-005	0.00000E+000	-3.54955E-006	-5.99601E-002	3.57646E-002	3.57870E+000	9	...........
	69	0.933333	2.46355E-002	-9.86415E-005	0.00000E+000	-2.43008E-006	-5.99601E-002	2.46246E-002	3.57870E+000	9	...........
	70	0.946667	1.36389E-002	-9.91562E-005	0.00000E+000	-1.35239E-006	-5.99601E-002	1.36243E-002	3.57870E+000	9	...........
	71	0.95833	3.46009E-003	-9.86412E-005	0.00000E+000	-3.41308E-007	-5.99601E-002	3.44023E-003	3.57870E+000	9	...........
STARTTIMEOFFSET	QUANT	179.0733	Start Time Offset (s)
