EXPLAIN
TAG	PWR800_DISCHARGE
TITLE	LABEL	PWR Cyclic Charge Discharge (Cell) - Discharge Step	Test &Identifier
DATE	LABEL	12-7-2017	Date
TIME	LABEL	16:24:29	Time
NOTES	NOTES	2	&Notes...
	supercap test cell
	6M KOH
PSTAT	PSTAT	IFC5000-01520	Potentiostat
CAPACITY	QUANT	1.00000E-003	Capacity (A-hr)
CELLTYPE	SELECTOR	1	&Cell Type
WORKINGCONNECTION	SELECTOR	0	&Working Lead
MAXDISCHARGETIME	VARIABLEANDUNITS	1.00000E+002	s	1.00000E+002	second(s)	Max &Discharge Time
DISCHARGEMODE	MULTIPARAM	0	1.00000E-004	&Discharge Mode	Constant Current	Amp(s)
SAMPLETIME	QUANT	1.00000E-002	Sa&mple Period (s)
DISCHARGESTOPAT1	MULTIPARAM	3	0.00000E+000	Discharge Stop At &1	Voltage < Limit	V
DISCHARGESTOPAT2	MULTIPARAM	0	0.00000E+000	Discharge Stop At &2	None	N/A
AESBHCSELECTOR	TOGGLE	F	Save Both Half Cells
IRCOMP	TOGGLE	F	IR &Measure
EOC	QUANT	0	Open Circuit (V)
SEQUENCER	TOGGLE	TRUE	Run as Sequence
PSTATMODEL	IQUANT	53	Pstat Model
PSTATSECTION	LABEL	IFC5000-01520	Pstat Section
PSTATSERIALNO	LABEL	01520	Pstat Serial Number
CTRLMODE	IQUANT	0	Control Mode
ELECTROMETER	IQUANT	1	RE=0 or CS=1
IESTAB	IQUANT	0	I/E Stability
CASPEED	IQUANT	4	Control Amp Speed
CONVENTION	IQUANT	1	Current Convention
ICHRANGE	IQUANT	2	Ich Range
ICHRANGEMODE	TOGGLE	T	Ich Auto Range
ICHOFFSETENABLE	TOGGLE	F	Ich Offset Enable
ICHOFFSET	QUANT	0	Ich Offset (V)
ICHFILTER	IQUANT	1	Ich Filter
VCHRANGE	IQUANT	2	Vch Range
VCHRANGEMODE	TOGGLE	T	Vch Auto Range
VCHOFFSETENABLE	TOGGLE	F	Vch Offset Enable
VCHOFFSET	QUANT	0	Vch Offset (V)
VCHFILTER	IQUANT	1	Vch Filter
IERANGELOWERLIMIT	IQUANT	9	I/E Range Lower Limit
IERANGEMODE	TOGGLE	F	I/E AutoRange
IERANGE	IQUANT	9	I/E Range
ACHSELECT	IQUANT	1	Ach Select
ACHRANGE	IQUANT	2	Ach Range
ACHOFFSETENABLE	TOGGLE	F	Ach Offset Enable
ACHOFFSET	QUANT	0	Ach Offset (V)
ACHFILTER	IQUANT	1	Ach Filter
CABLEID	IQUANT	14	Cable ID
DCCALDATE	LABEL	5-7-2017	DC Calibration Date
ACCALDATE	LABEL	12/3/2015	AC Calibration Date
FRAMEWORKVERSION	QUANT	7.01	Framework Version
INSTRUMENTVERSION	LABEL	4.00	Instrument Version
CURVE	TABLE	71
	Pt	T	Vf	Im	Vu	Pwr	Sig	Ach	Temp	IERange	Over
	#	s	V	A	V	W	V	V	deg C	#	bits
	0	0.013333	8.45747E-001	-9.95709E-005	0.00000E+000	-8.42117E-005	-5.99601E-002	8.46046E-001	3.57760E+000	9	...........
	1	0.026667	8.32810E-001	-9.92781E-005	0.00000E+000	-8.26798E-005	-5.99601E-002	8.33086E-001	3.57760E+000	9	...........
	2	0.04	8.20450E-001	-9.92896E-005	0.00000E+000	-8.14621E-005	-5.99601E-002	8.20738E-001	3.57760E+000	9	...........
	3	0.053333	8.08480E-001	-9.87270E-005	0.00000E+000	-7.98188E-005	-5.99601E-002	8.08740E-001	3.57760E+000	9	...........
	4	0.066667	7.96792E-001	-9.95469E-005	0.00000E+000	-7.93182E-005	-5.99601E-002	7.97046E-001	3.57760E+000	9	...........
	5	0.08	7.85273E-001	-9.90083E-005	0.00000E+000	-7.77485E-005	-5.99601E-002	7.85544E-001	3.57760E+000	9	...........
	6	0.093333	7.73929E-001	-9.80727E-005	0.00000E+000	-7.59012E-005	-5.99601E-002	7.74222E-001	3.57760E+000	9	...........
	7	0.106667	7.62727E-001	-9.93323E-005	0.00000E+000	-7.57634E-005	-5.99601E-002	7.62995E-001	3.57760E+000	9	...........
	8	0.12	7.51633E-001	-9.86165E-005	0.00000E+000	-7.41234E-005	-5.99601E-002	7.51915E-001	3.57760E+000	9	...........
	9	0.133333	7.40663E-001	-9.85488E-005	0.00000E+000	-7.29914E-005	-5.99601E-002	7.40919E-001	3.57760E+000	9	...........
	10	0.146667	7.29776E-001	-9.88061E-005	0.00000E+000	-7.21064E-005	-5.99601E-002	7.30049E-001	3.57760E+000	9	...........
	11	0.16	7.18983E-001	-9.92083E-005	0.00000E+000	-7.13291E-005	-5.99601E-002	7.19251E-001	3.57760E+000	9	...........
	12	0.173333	7.08218E-001	-9.91593E-005	0.00000E+000	-7.02264E-005	-5.99601E-002	7.08514E-001	3.57760E+000	9	...........
	13	0.186667	6.97554E-001	-9.88884E-005	0.00000E+000	-6.89801E-005	-5.99601E-002	6.97809E-001	3.57760E+000	9	...........
	14	0.2	6.86867E-001	-9.83237E-005	0.00000E+000	-6.75353E-005	-5.99601E-002	6.87130E-001	3.57760E+000	9	...........
	15	0.213333	6.76175E-001	-9.84269E-005	0.00000E+000	-6.65538E-005	-5.99601E-002	6.76420E-001	3.57760E+000	9	...........
	16	0.226667	6.65389E-001	-9.85884E-005	0.00000E+000	-6.55996E-005	-5.99601E-002	6.65645E-001	3.57760E+000	9	...........
	17	0.24	6.54483E-001	-9.80779E-005	0.00000E+000	-6.41903E-005	-5.99601E-002	6.54737E-001	3.57760E+000	9	...........
	18	0.253333	6.43438E-001	-9.94875E-005	0.00000E+000	-6.40141E-005	-5.99601E-002	6.43697E-001	3.57760E+000	9	...........
	19	0.266667	6.32238E-001	-9.99032E-005	0.00000E+000	-6.31626E-005	-5.99601E-002	6.32477E-001	3.57760E+000	9	...........
	20	0.28	6.20868E-001	-9.95084E-005	0.00000E+000	-6.17816E-005	-5.99601E-002	6.21083E-001	3.57760E+000	9	...........
	21	0.293333	6.09235E-001	-9.90677E-005	0.00000E+000	-6.03555E-005	-5.99601E-002	6.09510E-001	3.57760E+000	9	...........
	22	0.306667	5.97525E-001	-9.88249E-005	0.00000E+000	-5.90503E-005	-5.99601E-002	5.97776E-001	3.57760E+000	9	...........
	23	0.32	5.85602E-001	-9.92604E-005	0.00000E+000	-5.81270E-005	-5.99601E-002	5.85853E-001	3.57760E+000	9	...........
	24	0.333333	5.73587E-001	-9.95073E-005	0.00000E+000	-5.70761E-005	-5.99601E-002	5.73813E-001	3.57760E+000	9	...........
	25	0.346667	5.61398E-001	-9.80299E-005	0.00000E+000	-5.50338E-005	-5.99601E-002	5.61652E-001	3.57760E+000	9	...........
	26	0.36	5.49094E-001	-9.94136E-005	0.00000E+000	-5.45874E-005	-5.99601E-002	5.49346E-001	3.57760E+000	9	...........
	27	0.373333	5.36691E-001	-9.83467E-005	0.00000E+000	-5.27818E-005	-5.99601E-002	5.36940E-001	3.57760E+000	9	...........
	28	0.386667	5.24181E-001	-9.91416E-005	0.00000E+000	-5.19682E-005	-5.99601E-002	5.24421E-001	3.57760E+000	9	...........
	29	0.4	5.11574E-001	-9.91406E-005	0.00000E+000	-5.07178E-005	-5.99601E-002	5.11826E-001	3.57760E+000	9	...........
	30	0.413333	4.98913E-001	-9.83060E-005	0.00000E+000	-4.90462E-005	-5.99601E-002	4.99169E-001	3.57760E+000	9	...........
	31	0.426667	4.86317E-001	-9.78580E-005	0.00000E+000	-4.75900E-005	-5.99601E-002	4.86487E-001	3.57760E+000	9	...........
	32	0.44	4.73748E-001	-9.82508E-005	0.00000E+000	-4.65461E-005	-5.99601E-002	4.73854E-001	3.57760E+000	9	...........
	33	0.453333	4.60920E-001	-9.83498E-005	0.00000E+000	-4.53314E-005	-5.99601E-002	4.61017E-001	3.57760E+000	9	...........
	34	0.466667	4.48056E-001	-9.94854E-005	0.00000E+000	-4.45750E-005	-5.99601E-002	4.48152E-001	3.57760E+000	9	...........
	35	0.48	4.35172E-001	-9.77653E-005	0.00000E+000	-4.25448E-005	-5.99601E-002	4.35271E-001	3.57760E+000	9	...........
	36	0.493333	4.22276E-001	-9.87738E-005	0.00000E+000	-4.17098E-005	-5.99601E-002	4.22367E-001	3.57760E+000	9	...........
	37	0.506667	4.09371E-001	-9.79185E-005	0.00000E+000	-4.00850E-005	-5.99601E-002	4.09460E-001	3.57760E+000	9	...........
	38	0.52	3.96471E-001	-9.96917E-005	0.00000E+000	-3.95249E-005	-5.99601E-002	3.96549E-001	3.57760E+000	9	...........
	39	0.533333	3.83571E-001	-9.85613E-005	0.00000E+000	-3.78053E-005	-5.99601E-002	3.83652E-001	3.57760E+000	9	...........
	40	0.546667	3.70690E-001	-9.90291E-005	0.00000E+000	-3.67091E-005	-5.99601E-002	3.70771E-001	3.57760E+000	9	...........
	41	0.56	3.57836E-001	-9.94375E-005	0.00000E+000	-3.55824E-005	-5.99601E-002	3.57910E-001	3.57760E+000	9	...........
	42	0.573333	3.45007E-001	-9.87520E-005	0.00000E+000	-3.40701E-005	-5.99601E-002	3.45076E-001	3.57760E+000	9	...........
	43	0.586667	3.32204E-001	-9.92969E-005	0.00000E+000	-3.29868E-005	-5.99601E-002	3.32273E-001	3.57760E+000	9	...........
	44	0.6	3.19451E-001	-9.84331E-005	0.00000E+000	-3.14445E-005	-5.99601E-002	3.19521E-001	3.57760E+000	9	...........
	45	0.613333	3.06728E-001	-9.73725E-005	0.00000E+000	-2.98669E-005	-5.99601E-002	3.06796E-001	3.57760E+000	9	...........
	46	0.626667	2.94047E-001	-9.85175E-005	0.00000E+000	-2.89688E-005	-5.99601E-002	2.94115E-001	3.57760E+000	9	...........
	47	0.64	2.81414E-001	-9.90874E-005	0.00000E+000	-2.78846E-005	-5.99601E-002	2.81479E-001	3.57760E+000	9	...........
	48	0.653333	2.68827E-001	-9.72079E-005	0.00000E+000	-2.61321E-005	-5.99601E-002	2.68889E-001	3.57760E+000	9	...........
	49	0.666667	2.56276E-001	-9.83342E-005	0.00000E+000	-2.52007E-005	-5.99601E-002	2.56338E-001	3.57760E+000	9	...........
	50	0.68	2.43778E-001	-9.88322E-005	0.00000E+000	-2.40931E-005	-5.99601E-002	2.43828E-001	3.57760E+000	9	...........
	51	0.693333	2.31309E-001	-9.97105E-005	0.00000E+000	-2.30639E-005	-5.99601E-002	2.31360E-001	3.57760E+000	9	...........
	52	0.706667	2.18871E-001	-9.77403E-005	0.00000E+000	-2.13925E-005	-5.99601E-002	2.18922E-001	3.57760E+000	9	...........
	53	0.72	2.06467E-001	-9.88832E-005	0.00000E+000	-2.04161E-005	-5.99601E-002	2.06515E-001	3.57760E+000	9	...........
	54	0.733333	1.94098E-001	-9.82956E-005	0.00000E+000	-1.90789E-005	-5.99601E-002	1.94143E-001	3.57760E+000	9	...........
	55	0.746667	1.81762E-001	-9.94459E-005	0.00000E+000	-1.80754E-005	-5.99601E-002	1.81797E-001	3.57760E+000	9	...........
	56	0.76	1.69454E-001	-9.96969E-005	0.00000E+000	-1.68940E-005	-5.99601E-002	1.69488E-001	3.57760E+000	9	...........
	57	0.773333	1.57192E-001	-9.82237E-005	0.00000E+000	-1.54400E-005	-5.99601E-002	1.57225E-001	3.57795E+000	9	...........
	58	0.786667	1.44975E-001	-9.81768E-005	0.00000E+000	-1.42332E-005	-5.99601E-002	1.45000E-001	3.57830E+000	9	...........
	59	0.8	1.32795E-001	-9.94542E-005	0.00000E+000	-1.32071E-005	-5.99601E-002	1.32820E-001	3.57830E+000	9	...........
	60	0.813333	1.20669E-001	-9.85915E-005	0.00000E+000	-1.18970E-005	-5.99601E-002	1.20697E-001	3.57830E+000	9	...........
	61	0.826667	1.08608E-001	-9.85675E-005	0.00000E+000	-1.07052E-005	-5.99601E-002	1.08627E-001	3.57830E+000	9	...........
	62	0.84	9.66113E-002	-9.98272E-005	0.00000E+000	-9.64443E-006	-5.99601E-002	9.66334E-002	3.57830E+000	9	...........
	63	0.853333	8.47032E-002	-9.78528E-005	0.00000E+000	-8.28844E-006	-5.99601E-002	8.47167E-002	3.57830E+000	9	...........
	64	0.866667	7.28847E-002	-9.82362E-005	0.00000E+000	-7.15992E-006	-5.99601E-002	7.28949E-002	3.57830E+000	9	...........
	65	0.88	6.11618E-002	-9.90927E-005	0.00000E+000	-6.06068E-006	-5.99601E-002	6.11676E-002	3.57830E+000	9	...........
	66	0.893333	4.95640E-002	-9.84415E-005	0.00000E+000	-4.87915E-006	-5.99601E-002	4.95618E-002	3.57830E+000	9	...........
	67	0.906667	3.80821E-002	-9.95750E-005	0.00000E+000	-3.79203E-006	-5.99601E-002	3.80899E-002	3.57830E+000	9	...........
	68	0.92	2.67159E-002	-9.93094E-005	0.00000E+000	-2.65314E-006	-5.99601E-002	2.67144E-002	3.57830E+000	9	...........
	69	0.933333	1.54931E-002	-9.81623E-005	0.00000E+000	-1.52084E-006	-5.99601E-002	1.54789E-002	3.57830E+000	9	...........
	70	0.946667	4.41636E-003	-9.81862E-005	0.00000E+000	-4.33625E-007	-5.99601E-002	4.39924E-003	3.57830E+000	9	...........
STARTTIMEOFFSET	QUANT	617.4399	Start Time Offset (s)
