EXPLAIN
TAG	PWR800_DISCHARGE
TITLE	LABEL	PWR Cyclic Charge Discharge (Cell) - Discharge Step	Test &Identifier
DATE	LABEL	12-7-2017	Date
TIME	LABEL	16:46:40	Time
NOTES	NOTES	2	&Notes...
	supercap test cell
	6M KOH
PSTAT	PSTAT	IFC5000-01520	Potentiostat
CAPACITY	QUANT	1.00000E-003	Capacity (A-hr)
CELLTYPE	SELECTOR	1	&Cell Type
WORKINGCONNECTION	SELECTOR	0	&Working Lead
MAXDISCHARGETIME	VARIABLEANDUNITS	1.00000E+002	s	1.00000E+002	second(s)	Max &Discharge Time
DISCHARGEMODE	MULTIPARAM	0	1.00000E-004	&Discharge Mode	Constant Current	Amp(s)
SAMPLETIME	QUANT	1.00000E-002	Sa&mple Period (s)
DISCHARGESTOPAT1	MULTIPARAM	3	0.00000E+000	Discharge Stop At &1	Voltage < Limit	V
DISCHARGESTOPAT2	MULTIPARAM	0	0.00000E+000	Discharge Stop At &2	None	N/A
AESBHCSELECTOR	TOGGLE	F	Save Both Half Cells
IRCOMP	TOGGLE	F	IR &Measure
EOC	QUANT	0	Open Circuit (V)
SEQUENCER	TOGGLE	TRUE	Run as Sequence
PSTATMODEL	IQUANT	53	Pstat Model
PSTATSECTION	LABEL	IFC5000-01520	Pstat Section
PSTATSERIALNO	LABEL	01520	Pstat Serial Number
CTRLMODE	IQUANT	0	Control Mode
ELECTROMETER	IQUANT	1	RE=0 or CS=1
IESTAB	IQUANT	0	I/E Stability
CASPEED	IQUANT	4	Control Amp Speed
CONVENTION	IQUANT	1	Current Convention
ICHRANGE	IQUANT	2	Ich Range
ICHRANGEMODE	TOGGLE	T	Ich Auto Range
ICHOFFSETENABLE	TOGGLE	F	Ich Offset Enable
ICHOFFSET	QUANT	0	Ich Offset (V)
ICHFILTER	IQUANT	1	Ich Filter
VCHRANGE	IQUANT	2	Vch Range
VCHRANGEMODE	TOGGLE	T	Vch Auto Range
VCHOFFSETENABLE	TOGGLE	F	Vch Offset Enable
VCHOFFSET	QUANT	0	Vch Offset (V)
VCHFILTER	IQUANT	1	Vch Filter
IERANGELOWERLIMIT	IQUANT	9	I/E Range Lower Limit
IERANGEMODE	TOGGLE	F	I/E AutoRange
IERANGE	IQUANT	9	I/E Range
ACHSELECT	IQUANT	1	Ach Select
ACHRANGE	IQUANT	2	Ach Range
ACHOFFSETENABLE	TOGGLE	F	Ach Offset Enable
ACHOFFSET	QUANT	0	Ach Offset (V)
ACHFILTER	IQUANT	1	Ach Filter
CABLEID	IQUANT	14	Cable ID
DCCALDATE	LABEL	5-7-2017	DC Calibration Date
ACCALDATE	LABEL	12/3/2015	AC Calibration Date
FRAMEWORKVERSION	QUANT	7.01	Framework Version
INSTRUMENTVERSION	LABEL	4.00	Instrument Version
CURVE	TABLE	70
	Pt	T	Vf	Im	Vu	Pwr	Sig	Ach	Temp	IERange	Over
	#	s	V	A	V	W	V	V	deg C	#	bits
	0	0.013333	8.46264E-001	-9.81925E-005	0.00000E+000	-8.30968E-005	-5.99601E-002	8.46576E-001	3.57790E+000	9	...........
	1	0.026667	8.33106E-001	-9.89009E-005	0.00000E+000	-8.23949E-005	-5.99601E-002	8.33408E-001	3.57790E+000	9	...........
	2	0.04	8.20543E-001	-9.95323E-005	0.00000E+000	-8.16706E-005	-5.99601E-002	8.20846E-001	3.57790E+000	9	...........
	3	0.053333	8.08334E-001	-9.81852E-005	0.00000E+000	-7.93664E-005	-5.99601E-002	8.08608E-001	3.57790E+000	9	...........
	4	0.066667	7.96410E-001	-9.85467E-005	0.00000E+000	-7.84835E-005	-5.99601E-002	7.96683E-001	3.57790E+000	9	...........
	5	0.08	7.84660E-001	-9.81904E-005	0.00000E+000	-7.70461E-005	-5.99601E-002	7.84916E-001	3.57790E+000	9	...........
	6	0.093333	7.73055E-001	-9.90760E-005	0.00000E+000	-7.65912E-005	-5.99601E-002	7.73321E-001	3.57790E+000	9	...........
	7	0.106667	7.61574E-001	-9.93781E-005	0.00000E+000	-7.56838E-005	-5.99601E-002	7.61830E-001	3.57790E+000	9	...........
	8	0.12	7.50212E-001	-9.92864E-005	0.00000E+000	-7.44859E-005	-5.99601E-002	7.50461E-001	3.57790E+000	9	...........
	9	0.133333	7.38936E-001	-9.70693E-005	0.00000E+000	-7.17280E-005	-5.99601E-002	7.39171E-001	3.57790E+000	9	...........
	10	0.146667	7.27768E-001	-9.91573E-005	0.00000E+000	-7.21635E-005	-5.99601E-002	7.28003E-001	3.57790E+000	9	...........
	11	0.16	7.16645E-001	-9.83383E-005	0.00000E+000	-7.04737E-005	-5.99601E-002	7.16910E-001	3.57790E+000	9	...........
	12	0.173333	7.05638E-001	-9.90614E-005	0.00000E+000	-6.99015E-005	-5.99601E-002	7.05865E-001	3.57790E+000	9	...........
	13	0.186667	6.94714E-001	-9.90937E-005	0.00000E+000	-6.88418E-005	-5.99601E-002	6.94948E-001	3.57790E+000	9	...........
	14	0.2	6.83847E-001	-9.90791E-005	0.00000E+000	-6.77549E-005	-5.99601E-002	6.84070E-001	3.57790E+000	9	...........
	15	0.213333	6.73075E-001	-9.90656E-005	0.00000E+000	-6.66786E-005	-5.99601E-002	6.73304E-001	3.57790E+000	9	...........
	16	0.226667	6.62320E-001	-9.82675E-005	0.00000E+000	-6.50845E-005	-5.99601E-002	6.62550E-001	3.57790E+000	9	...........
	17	0.24	6.51588E-001	-9.86769E-005	0.00000E+000	-6.42968E-005	-5.99601E-002	6.51819E-001	3.57790E+000	9	...........
	18	0.253333	6.40823E-001	-9.99689E-005	0.00000E+000	-6.40624E-005	-5.99601E-002	6.41061E-001	3.57790E+000	9	...........
	19	0.266667	6.29989E-001	-9.84123E-005	0.00000E+000	-6.19987E-005	-5.99601E-002	6.30216E-001	3.57790E+000	9	...........
	20	0.28	6.19060E-001	-9.87905E-005	0.00000E+000	-6.11573E-005	-5.99601E-002	6.19277E-001	3.57790E+000	9	...........
	21	0.293333	6.07881E-001	-1.00110E-004	0.00000E+000	-6.08547E-005	-5.99601E-002	6.08141E-001	3.57790E+000	9	...........
	22	0.306667	5.96588E-001	-9.88916E-005	0.00000E+000	-5.89975E-005	-5.99601E-002	5.96818E-001	3.57790E+000	9	...........
	23	0.32	5.85039E-001	-9.90791E-005	0.00000E+000	-5.79651E-005	-5.99601E-002	5.85282E-001	3.57790E+000	9	...........
	24	0.333333	5.73325E-001	-9.94104E-005	0.00000E+000	-5.69944E-005	-5.99601E-002	5.73528E-001	3.57790E+000	9	...........
	25	0.346667	5.61363E-001	-9.96396E-005	0.00000E+000	-5.59340E-005	-5.99601E-002	5.61566E-001	3.57790E+000	9	...........
	26	0.36	5.49223E-001	-9.72902E-005	0.00000E+000	-5.34340E-005	-5.99601E-002	5.49381E-001	3.57640E+000	9	...........
	27	0.373333	5.36877E-001	-9.91520E-005	0.00000E+000	-5.32325E-005	-5.99601E-002	5.37060E-001	3.57640E+000	9	...........
	28	0.386667	5.24359E-001	-9.97115E-005	0.00000E+000	-5.22846E-005	-5.99601E-002	5.24536E-001	3.57640E+000	9	...........
	29	0.4	5.11707E-001	-9.88041E-005	0.00000E+000	-5.05587E-005	-5.99601E-002	5.11878E-001	3.57640E+000	9	...........
	30	0.413333	4.98887E-001	-9.83415E-005	0.00000E+000	-4.90613E-005	-5.99601E-002	4.99084E-001	3.57640E+000	9	...........
	31	0.426667	4.86090E-001	-9.99407E-005	0.00000E+000	-4.85802E-005	-5.99601E-002	4.86210E-001	3.57640E+000	9	...........
	32	0.44	4.73251E-001	-9.82664E-005	0.00000E+000	-4.65047E-005	-5.99601E-002	4.73353E-001	3.57640E+000	9	...........
	33	0.453333	4.60131E-001	-9.76747E-005	0.00000E+000	-4.49431E-005	-5.99601E-002	4.60225E-001	3.57640E+000	9	...........
	34	0.466667	4.46927E-001	-9.95876E-005	0.00000E+000	-4.45083E-005	-5.99601E-002	4.47021E-001	3.57640E+000	9	...........
	35	0.48	4.33674E-001	-9.89176E-005	0.00000E+000	-4.28980E-005	-5.99601E-002	4.33765E-001	3.57640E+000	9	...........
	36	0.493333	4.20349E-001	-9.88384E-005	0.00000E+000	-4.15466E-005	-5.99601E-002	4.20437E-001	3.57640E+000	9	...........
	37	0.506667	4.06991E-001	-9.94511E-005	0.00000E+000	-4.04757E-005	-5.99601E-002	4.07076E-001	3.57640E+000	9	...........
	38	0.52	3.93610E-001	-9.80643E-005	0.00000E+000	-3.85991E-005	-5.99601E-002	3.93692E-001	3.57640E+000	9	...........
	39	0.533333	3.80209E-001	-9.94594E-005	0.00000E+000	-3.78153E-005	-5.99601E-002	3.80286E-001	3.57640E+000	9	...........
	40	0.546667	3.66801E-001	-9.84488E-005	0.00000E+000	-3.61111E-005	-5.99601E-002	3.66884E-001	3.57640E+000	9	...........
	41	0.56	3.53407E-001	-9.88374E-005	0.00000E+000	-3.49298E-005	-5.99601E-002	3.53481E-001	3.57640E+000	9	...........
	42	0.573333	3.40029E-001	-9.86582E-005	0.00000E+000	-3.35466E-005	-5.99601E-002	3.40099E-001	3.57640E+000	9	...........
	43	0.586667	3.26679E-001	-9.91656E-005	0.00000E+000	-3.23953E-005	-5.99601E-002	3.26743E-001	3.57640E+000	9	...........
	44	0.6	3.13368E-001	-9.80070E-005	0.00000E+000	-3.07122E-005	-5.99601E-002	3.13433E-001	3.57640E+000	9	...........
	45	0.613333	3.00100E-001	-9.85665E-005	0.00000E+000	-2.95798E-005	-5.99601E-002	3.00157E-001	3.57640E+000	9	...........
	46	0.626667	2.86887E-001	-9.88051E-005	0.00000E+000	-2.83459E-005	-5.99601E-002	2.86944E-001	3.57640E+000	9	...........
	47	0.64	2.73735E-001	-9.82133E-005	0.00000E+000	-2.68845E-005	-5.99601E-002	2.73793E-001	3.57640E+000	9	...........
	48	0.653333	2.60648E-001	-9.88582E-005	0.00000E+000	-2.57672E-005	-5.99601E-002	2.60703E-001	3.57640E+000	9	...........
	49	0.666667	2.47631E-001	-9.89218E-005	0.00000E+000	-2.44961E-005	-5.99601E-002	2.47677E-001	3.57640E+000	9	...........
	50	0.68	2.34672E-001	-9.77028E-005	0.00000E+000	-2.29281E-005	-5.99601E-002	2.34726E-001	3.57640E+000	9	...........
	51	0.693333	2.21788E-001	-9.81581E-005	0.00000E+000	-2.17703E-005	-5.99601E-002	2.21835E-001	3.57640E+000	9	...........
	52	0.706667	2.08983E-001	-9.88280E-005	0.00000E+000	-2.06534E-005	-5.99601E-002	2.09020E-001	3.57640E+000	9	...........
	53	0.72	1.96244E-001	-9.78830E-005	0.00000E+000	-1.92090E-005	-5.99601E-002	1.96285E-001	3.57640E+000	9	...........
	54	0.733333	1.83580E-001	-9.84779E-005	0.00000E+000	-1.80786E-005	-5.99601E-002	1.83621E-001	3.57640E+000	9	...........
	55	0.746667	1.70999E-001	-9.73860E-005	0.00000E+000	-1.66529E-005	-5.99601E-002	1.71036E-001	3.57640E+000	9	...........
	56	0.76	1.58491E-001	-9.88218E-005	0.00000E+000	-1.56624E-005	-5.99601E-002	1.58525E-001	3.57640E+000	9	...........
	57	0.773333	1.46050E-001	-9.82602E-005	0.00000E+000	-1.43509E-005	-5.99601E-002	1.46079E-001	3.57640E+000	9	...........
	58	0.786667	1.33680E-001	-9.82550E-005	0.00000E+000	-1.31348E-005	-5.99601E-002	1.33705E-001	3.57640E+000	9	...........
	59	0.8	1.21382E-001	-9.74684E-005	0.00000E+000	-1.18309E-005	-5.99601E-002	1.21409E-001	3.57640E+000	9	...........
	60	0.813333	1.09170E-001	-9.78309E-005	0.00000E+000	-1.06802E-005	-5.99601E-002	1.09194E-001	3.57640E+000	9	...........
	61	0.826667	9.70514E-002	-9.80601E-005	0.00000E+000	-9.51687E-006	-5.99601E-002	9.70701E-002	3.57640E+000	9	...........
	62	0.84	8.50400E-002	-9.86499E-005	0.00000E+000	-8.38918E-006	-5.99601E-002	8.50493E-002	3.57640E+000	9	...........
	63	0.853333	7.31342E-002	-9.92416E-005	0.00000E+000	-7.25796E-006	-5.99601E-002	7.31419E-002	3.57640E+000	9	...........
	64	0.866667	6.13509E-002	-9.80872E-005	0.00000E+000	-6.01774E-006	-5.99601E-002	6.13565E-002	3.57640E+000	9	...........
	65	0.88	4.97083E-002	-9.87144E-005	0.00000E+000	-4.90693E-006	-5.99601E-002	4.97122E-002	3.57640E+000	9	...........
	66	0.893333	3.82208E-002	-9.85759E-005	0.00000E+000	-3.76764E-006	-5.99601E-002	3.82229E-002	3.57640E+000	9	...........
	67	0.906667	2.68614E-002	-9.93094E-005	0.00000E+000	-2.66759E-006	-5.99601E-002	2.68628E-002	3.57640E+000	9	...........
	68	0.92	1.56635E-002	-9.95813E-005	0.00000E+000	-1.55979E-006	-5.99601E-002	1.56526E-002	3.57640E+000	9	...........
	69	0.933333	4.63268E-003	-1.00144E-004	0.00000E+000	-4.63935E-007	-5.99601E-002	4.61393E-003	3.57640E+000	9	...........
STARTTIMEOFFSET	QUANT	1561.281	Start Time Offset (s)
