EXPLAIN
TAG	PWR800_DISCHARGE
TITLE	LABEL	PWR Cyclic Charge Discharge (Cell) - Discharge Step	Test &Identifier
DATE	LABEL	12-7-2017	Date
TIME	LABEL	16:16:05	Time
NOTES	NOTES	2	&Notes...
	supercap test cell
	6M KOH
PSTAT	PSTAT	IFC5000-01520	Potentiostat
CAPACITY	QUANT	1.00000E-003	Capacity (A-hr)
CELLTYPE	SELECTOR	1	&Cell Type
WORKINGCONNECTION	SELECTOR	0	&Working Lead
MAXDISCHARGETIME	VARIABLEANDUNITS	1.00000E+002	s	1.00000E+002	second(s)	Max &Discharge Time
DISCHARGEMODE	MULTIPARAM	0	1.00000E-004	&Discharge Mode	Constant Current	Amp(s)
SAMPLETIME	QUANT	1.00000E-002	Sa&mple Period (s)
DISCHARGESTOPAT1	MULTIPARAM	3	0.00000E+000	Discharge Stop At &1	Voltage < Limit	V
DISCHARGESTOPAT2	MULTIPARAM	0	0.00000E+000	Discharge Stop At &2	None	N/A
AESBHCSELECTOR	TOGGLE	F	Save Both Half Cells
IRCOMP	TOGGLE	F	IR &Measure
EOC	QUANT	0	Open Circuit (V)
SEQUENCER	TOGGLE	TRUE	Run as Sequence
PSTATMODEL	IQUANT	53	Pstat Model
PSTATSECTION	LABEL	IFC5000-01520	Pstat Section
PSTATSERIALNO	LABEL	01520	Pstat Serial Number
CTRLMODE	IQUANT	0	Control Mode
ELECTROMETER	IQUANT	1	RE=0 or CS=1
IESTAB	IQUANT	0	I/E Stability
CASPEED	IQUANT	4	Control Amp Speed
CONVENTION	IQUANT	1	Current Convention
ICHRANGE	IQUANT	2	Ich Range
ICHRANGEMODE	TOGGLE	T	Ich Auto Range
ICHOFFSETENABLE	TOGGLE	F	Ich Offset Enable
ICHOFFSET	QUANT	0	Ich Offset (V)
ICHFILTER	IQUANT	1	Ich Filter
VCHRANGE	IQUANT	2	Vch Range
VCHRANGEMODE	TOGGLE	T	Vch Auto Range
VCHOFFSETENABLE	TOGGLE	F	Vch Offset Enable
VCHOFFSET	QUANT	0	Vch Offset (V)
VCHFILTER	IQUANT	1	Vch Filter
IERANGELOWERLIMIT	IQUANT	9	I/E Range Lower Limit
IERANGEMODE	TOGGLE	F	I/E AutoRange
IERANGE	IQUANT	9	I/E Range
ACHSELECT	IQUANT	1	Ach Select
ACHRANGE	IQUANT	2	Ach Range
ACHOFFSETENABLE	TOGGLE	F	Ach Offset Enable
ACHOFFSET	QUANT	0	Ach Offset (V)
ACHFILTER	IQUANT	1	Ach Filter
CABLEID	IQUANT	14	Cable ID
DCCALDATE	LABEL	5-7-2017	DC Calibration Date
ACCALDATE	LABEL	12/3/2015	AC Calibration Date
FRAMEWORKVERSION	QUANT	7.01	Framework Version
INSTRUMENTVERSION	LABEL	4.00	Instrument Version
CURVE	TABLE	72
	Pt	T	Vf	Im	Vu	Pwr	Sig	Ach	Temp	IERange	Over
	#	s	V	A	V	W	V	V	deg C	#	bits
	0	0.013333	8.43655E-001	-9.82477E-005	0.00000E+000	-8.28871E-005	-5.99601E-002	8.43968E-001	3.57770E+000	9	...........
	1	0.026667	8.30721E-001	-9.94552E-005	0.00000E+000	-8.26195E-005	-5.99601E-002	8.31010E-001	3.57770E+000	9	...........
	2	0.04	8.18336E-001	-9.93062E-005	0.00000E+000	-8.12659E-005	-5.99601E-002	8.18638E-001	3.57770E+000	9	...........
	3	0.053333	8.06364E-001	-9.87384E-005	0.00000E+000	-7.96191E-005	-5.99601E-002	8.06630E-001	3.57770E+000	9	...........
	4	0.066667	7.94659E-001	-9.90885E-005	0.00000E+000	-7.87415E-005	-5.99601E-002	7.94940E-001	3.57770E+000	9	...........
	5	0.08	7.83160E-001	-9.83342E-005	0.00000E+000	-7.70113E-005	-5.99601E-002	7.83414E-001	3.57770E+000	9	...........
	6	0.093333	7.71829E-001	-9.92271E-005	0.00000E+000	-7.65863E-005	-5.99601E-002	7.72089E-001	3.57770E+000	9	...........
	7	0.106667	7.60618E-001	-9.93729E-005	0.00000E+000	-7.55848E-005	-5.99601E-002	7.60846E-001	3.57770E+000	9	...........
	8	0.12	7.49506E-001	-9.85696E-005	0.00000E+000	-7.38785E-005	-5.99601E-002	7.49749E-001	3.57770E+000	9	...........
	9	0.133333	7.38467E-001	-9.94844E-005	0.00000E+000	-7.34659E-005	-5.99601E-002	7.38703E-001	3.57770E+000	9	...........
	10	0.146667	7.27439E-001	-9.84363E-005	0.00000E+000	-7.16064E-005	-5.99601E-002	7.27681E-001	3.57770E+000	9	...........
	11	0.16	7.16402E-001	-9.90635E-005	0.00000E+000	-7.09693E-005	-5.99601E-002	7.16634E-001	3.57770E+000	9	...........
	12	0.173333	7.05301E-001	-9.90145E-005	0.00000E+000	-6.98350E-005	-5.99601E-002	7.05539E-001	3.57770E+000	9	...........
	13	0.186667	6.94103E-001	-9.85300E-005	0.00000E+000	-6.83900E-005	-5.99601E-002	6.94343E-001	3.57770E+000	9	...........
	14	0.2	6.82804E-001	-9.94677E-005	0.00000E+000	-6.79169E-005	-5.99601E-002	6.83060E-001	3.57770E+000	9	...........
	15	0.213333	6.71408E-001	-9.85894E-005	0.00000E+000	-6.61938E-005	-5.99601E-002	6.71648E-001	3.57770E+000	9	...........
	16	0.226667	6.59825E-001	-9.83748E-005	0.00000E+000	-6.49102E-005	-5.99601E-002	6.60075E-001	3.57770E+000	9	...........
	17	0.24	6.48156E-001	-9.89457E-005	0.00000E+000	-6.41323E-005	-5.99601E-002	6.48407E-001	3.57770E+000	9	...........
	18	0.253333	6.36359E-001	-9.85853E-005	0.00000E+000	-6.27356E-005	-5.99601E-002	6.36609E-001	3.57770E+000	9	...........
	19	0.266667	6.24478E-001	-9.87290E-005	0.00000E+000	-6.16542E-005	-5.99601E-002	6.24741E-001	3.57770E+000	9	...........
	20	0.28	6.12475E-001	-9.88468E-005	0.00000E+000	-6.05412E-005	-5.99601E-002	6.12773E-001	3.57770E+000	9	...........
	21	0.293333	6.00431E-001	-9.87217E-005	0.00000E+000	-5.92756E-005	-5.99601E-002	6.00718E-001	3.57770E+000	9	...........
	22	0.306667	5.88315E-001	-9.94031E-005	0.00000E+000	-5.84804E-005	-5.99601E-002	5.88603E-001	3.57770E+000	9	...........
	23	0.32	5.76132E-001	-9.81560E-005	0.00000E+000	-5.65508E-005	-5.99601E-002	5.76412E-001	3.57770E+000	9	...........
	24	0.333333	5.63937E-001	-9.90666E-005	0.00000E+000	-5.58674E-005	-5.99601E-002	5.64196E-001	3.57770E+000	9	...........
	25	0.346667	5.51652E-001	-9.92875E-005	0.00000E+000	-5.47721E-005	-5.99601E-002	5.51944E-001	3.57770E+000	9	...........
	26	0.36	5.39415E-001	-9.88145E-005	0.00000E+000	-5.33020E-005	-5.99601E-002	5.39660E-001	3.57770E+000	9	...........
	27	0.373333	5.27097E-001	-9.91979E-005	0.00000E+000	-5.22870E-005	-5.99601E-002	5.27352E-001	3.57770E+000	9	...........
	28	0.386667	5.14782E-001	-9.93781E-005	0.00000E+000	-5.11580E-005	-5.99601E-002	5.15047E-001	3.57770E+000	9	...........
	29	0.4	5.02446E-001	-9.87343E-005	0.00000E+000	-4.96086E-005	-5.99601E-002	5.02696E-001	3.57770E+000	9	...........
	30	0.413333	4.90138E-001	-9.83123E-005	0.00000E+000	-4.81865E-005	-5.99601E-002	4.90386E-001	3.57770E+000	9	...........
	31	0.426667	4.78148E-001	-9.84019E-005	0.00000E+000	-4.70507E-005	-5.99601E-002	4.78253E-001	3.57770E+000	9	...........
	32	0.44	4.65827E-001	-9.94594E-005	0.00000E+000	-4.63308E-005	-5.99601E-002	4.65931E-001	3.57770E+000	9	...........
	33	0.453333	4.53525E-001	-9.87103E-005	0.00000E+000	-4.47676E-005	-5.99601E-002	4.53626E-001	3.57770E+000	9	...........
	34	0.466667	4.41248E-001	-9.84248E-005	0.00000E+000	-4.34298E-005	-5.99601E-002	4.41347E-001	3.57770E+000	9	...........
	35	0.48	4.28985E-001	-9.93833E-005	0.00000E+000	-4.26340E-005	-5.99601E-002	4.29080E-001	3.57770E+000	9	...........
	36	0.493333	4.16741E-001	-9.85488E-005	0.00000E+000	-4.10694E-005	-5.99601E-002	4.16830E-001	3.57770E+000	9	...........
	37	0.506667	4.04523E-001	-9.94969E-005	0.00000E+000	-4.02488E-005	-5.99601E-002	4.04609E-001	3.57770E+000	9	...........
	38	0.52	3.92321E-001	-9.86353E-005	0.00000E+000	-3.86967E-005	-5.99601E-002	3.92401E-001	3.57770E+000	9	...........
	39	0.533333	3.80137E-001	-9.90479E-005	0.00000E+000	-3.76517E-005	-5.99601E-002	3.80215E-001	3.57770E+000	9	...........
	40	0.546667	3.67980E-001	-9.97699E-005	0.00000E+000	-3.67133E-005	-5.99601E-002	3.68048E-001	3.57770E+000	9	...........
	41	0.56	3.55840E-001	-9.87301E-005	0.00000E+000	-3.51321E-005	-5.99601E-002	3.55908E-001	3.57770E+000	9	...........
	42	0.573333	3.43722E-001	-9.87186E-005	0.00000E+000	-3.39317E-005	-5.99601E-002	3.43787E-001	3.57770E+000	9	...........
	43	0.586667	3.31620E-001	-9.94771E-005	0.00000E+000	-3.29886E-005	-5.99601E-002	3.31684E-001	3.57770E+000	9	...........
	44	0.6	3.19525E-001	-9.85853E-005	0.00000E+000	-3.15005E-005	-5.99601E-002	3.19596E-001	3.57770E+000	9	...........
	45	0.613333	3.07443E-001	-9.87603E-005	0.00000E+000	-3.03631E-005	-5.99601E-002	3.07506E-001	3.57770E+000	9	...........
	46	0.626667	2.95365E-001	-9.91760E-005	0.00000E+000	-2.92931E-005	-5.99601E-002	2.95429E-001	3.57770E+000	9	...........
	47	0.64	2.83298E-001	-9.93271E-005	0.00000E+000	-2.81391E-005	-5.99601E-002	2.83362E-001	3.57770E+000	9	...........
	48	0.653333	2.71220E-001	-9.83123E-005	0.00000E+000	-2.66643E-005	-5.99601E-002	2.71283E-001	3.57770E+000	9	...........
	49	0.666667	2.59143E-001	-9.81695E-005	0.00000E+000	-2.54399E-005	-5.99601E-002	2.59192E-001	3.57770E+000	9	...........
	50	0.68	2.47059E-001	-9.89343E-005	0.00000E+000	-2.44426E-005	-5.99601E-002	2.47106E-001	3.57770E+000	9	...........
	51	0.693333	2.34967E-001	-9.83540E-005	0.00000E+000	-2.31100E-005	-5.99601E-002	2.35014E-001	3.57781E+000	9	...........
	52	0.706667	2.22877E-001	-9.89906E-005	0.00000E+000	-2.20628E-005	-5.99601E-002	2.22920E-001	3.57860E+000	9	...........
	53	0.72	2.10798E-001	-9.88957E-005	0.00000E+000	-2.08470E-005	-5.99601E-002	2.10836E-001	3.57860E+000	9	...........
	54	0.733333	1.98718E-001	-9.81862E-005	0.00000E+000	-1.95114E-005	-5.99601E-002	1.98755E-001	3.57860E+000	9	...........
	55	0.746667	1.86643E-001	-9.87134E-005	0.00000E+000	-1.84242E-005	-5.99601E-002	1.86682E-001	3.57860E+000	9	...........
	56	0.76	1.74583E-001	-9.82248E-005	0.00000E+000	-1.71483E-005	-5.99601E-002	1.74616E-001	3.57860E+000	9	...........
	57	0.773333	1.62540E-001	-9.80601E-005	0.00000E+000	-1.59387E-005	-5.99601E-002	1.62572E-001	3.57860E+000	9	...........
	58	0.786667	1.50517E-001	-9.96303E-005	0.00000E+000	-1.49960E-005	-5.99601E-002	1.50542E-001	3.57860E+000	9	...........
	59	0.8	1.38521E-001	-9.91333E-005	0.00000E+000	-1.37320E-005	-5.99601E-002	1.38546E-001	3.57860E+000	9	...........
	60	0.813333	1.26558E-001	-9.92239E-005	0.00000E+000	-1.25576E-005	-5.99601E-002	1.26579E-001	3.57860E+000	9	...........
	61	0.826667	1.14637E-001	-9.98334E-005	0.00000E+000	-1.14446E-005	-5.99601E-002	1.14659E-001	3.57860E+000	9	...........
	62	0.84	1.02770E-001	-9.81935E-005	0.00000E+000	-1.00913E-005	-5.99601E-002	1.02788E-001	3.57860E+000	9	...........
	63	0.853333	9.09527E-002	-9.84842E-005	0.00000E+000	-8.95741E-006	-5.99601E-002	9.09741E-002	3.57860E+000	9	...........
	64	0.866667	7.92053E-002	-9.85467E-005	0.00000E+000	-7.80542E-006	-5.99601E-002	7.92199E-002	3.57860E+000	9	...........
	65	0.88	6.75353E-002	-9.92104E-005	0.00000E+000	-6.70021E-006	-5.99601E-002	6.75403E-002	3.57860E+000	9	...........
	66	0.893333	5.59559E-002	-9.86696E-005	0.00000E+000	-5.52115E-006	-5.99601E-002	5.59604E-002	3.57860E+000	9	...........
	67	0.906667	4.45073E-002	-1.00391E-004	0.00000E+000	-4.46813E-006	-5.99601E-002	4.45113E-002	3.57860E+000	9	...........
	68	0.92	3.31603E-002	-9.90010E-005	0.00000E+000	-3.28290E-006	-5.99601E-002	3.31560E-002	3.57860E+000	9	...........
	69	0.933333	2.19413E-002	-9.85759E-005	0.00000E+000	-2.16288E-006	-5.99601E-002	2.19267E-002	3.57860E+000	9	...........
	70	0.946667	1.08544E-002	-9.89062E-005	0.00000E+000	-1.07357E-006	-5.99601E-002	1.08395E-002	3.57860E+000	9	...........
	71	0.955	1.95220E-003	-9.92887E-005	0.00000E+000	-1.93831E-007	-5.99601E-002	1.93222E-003	3.57860E+000	9	...........
STARTTIMEOFFSET	QUANT	257.7833	Start Time Offset (s)
