EXPLAIN
TAG	PWR800_DISCHARGE
TITLE	LABEL	PWR Cyclic Charge Discharge (Cell) - Discharge Step	Test &Identifier
DATE	LABEL	12-7-2017	Date
TIME	LABEL	16:51:13	Time
NOTES	NOTES	2	&Notes...
	supercap test cell
	6M KOH
PSTAT	PSTAT	IFC5000-01520	Potentiostat
CAPACITY	QUANT	1.00000E-003	Capacity (A-hr)
CELLTYPE	SELECTOR	1	&Cell Type
WORKINGCONNECTION	SELECTOR	0	&Working Lead
MAXDISCHARGETIME	VARIABLEANDUNITS	1.00000E+002	s	1.00000E+002	second(s)	Max &Discharge Time
DISCHARGEMODE	MULTIPARAM	0	1.00000E-004	&Discharge Mode	Constant Current	Amp(s)
SAMPLETIME	QUANT	1.00000E-002	Sa&mple Period (s)
DISCHARGESTOPAT1	MULTIPARAM	3	0.00000E+000	Discharge Stop At &1	Voltage < Limit	V
DISCHARGESTOPAT2	MULTIPARAM	0	0.00000E+000	Discharge Stop At &2	None	N/A
AESBHCSELECTOR	TOGGLE	F	Save Both Half Cells
IRCOMP	TOGGLE	F	IR &Measure
EOC	QUANT	0	Open Circuit (V)
SEQUENCER	TOGGLE	TRUE	Run as Sequence
PSTATMODEL	IQUANT	53	Pstat Model
PSTATSECTION	LABEL	IFC5000-01520	Pstat Section
PSTATSERIALNO	LABEL	01520	Pstat Serial Number
CTRLMODE	IQUANT	0	Control Mode
ELECTROMETER	IQUANT	1	RE=0 or CS=1
IESTAB	IQUANT	0	I/E Stability
CASPEED	IQUANT	4	Control Amp Speed
CONVENTION	IQUANT	1	Current Convention
ICHRANGE	IQUANT	2	Ich Range
ICHRANGEMODE	TOGGLE	T	Ich Auto Range
ICHOFFSETENABLE	TOGGLE	F	Ich Offset Enable
ICHOFFSET	QUANT	0	Ich Offset (V)
ICHFILTER	IQUANT	1	Ich Filter
VCHRANGE	IQUANT	2	Vch Range
VCHRANGEMODE	TOGGLE	T	Vch Auto Range
VCHOFFSETENABLE	TOGGLE	F	Vch Offset Enable
VCHOFFSET	QUANT	0	Vch Offset (V)
VCHFILTER	IQUANT	1	Vch Filter
IERANGELOWERLIMIT	IQUANT	9	I/E Range Lower Limit
IERANGEMODE	TOGGLE	F	I/E AutoRange
IERANGE	IQUANT	9	I/E Range
ACHSELECT	IQUANT	1	Ach Select
ACHRANGE	IQUANT	2	Ach Range
ACHOFFSETENABLE	TOGGLE	F	Ach Offset Enable
ACHOFFSET	QUANT	0	Ach Offset (V)
ACHFILTER	IQUANT	1	Ach Filter
CABLEID	IQUANT	14	Cable ID
DCCALDATE	LABEL	5-7-2017	DC Calibration Date
ACCALDATE	LABEL	12/3/2015	AC Calibration Date
FRAMEWORKVERSION	QUANT	7.01	Framework Version
INSTRUMENTVERSION	LABEL	4.00	Instrument Version
CURVE	TABLE	70
	Pt	T	Vf	Im	Vu	Pwr	Sig	Ach	Temp	IERange	Over
	#	s	V	A	V	W	V	V	deg C	#	bits
	0	0.013333	8.46429E-001	-9.73319E-005	0.00000E+000	-8.23845E-005	-5.99601E-002	8.46746E-001	3.57650E+000	9	...........
	1	0.026667	8.33184E-001	-9.92708E-005	0.00000E+000	-8.27109E-005	-5.99601E-002	8.33520E-001	3.57650E+000	9	...........
	2	0.04	8.20572E-001	-9.84446E-005	0.00000E+000	-8.07809E-005	-5.99601E-002	8.20900E-001	3.57650E+000	9	...........
	3	0.053333	8.08315E-001	-9.71641E-005	0.00000E+000	-7.85392E-005	-5.99601E-002	8.08618E-001	3.57650E+000	9	...........
	4	0.066667	7.96331E-001	-1.00008E-004	0.00000E+000	-7.96398E-005	-5.99601E-002	7.96611E-001	3.57650E+000	9	...........
	5	0.08	7.84516E-001	-9.97178E-005	0.00000E+000	-7.82302E-005	-5.99601E-002	7.84812E-001	3.57650E+000	9	...........
	6	0.093333	7.72875E-001	-9.71152E-005	0.00000E+000	-7.50578E-005	-5.99601E-002	7.73165E-001	3.57650E+000	9	...........
	7	0.106667	7.61359E-001	-9.81779E-005	0.00000E+000	-7.47486E-005	-5.99601E-002	7.61635E-001	3.57650E+000	9	...........
	8	0.12	7.49962E-001	-9.87561E-005	0.00000E+000	-7.40634E-005	-5.99601E-002	7.50215E-001	3.57650E+000	9	...........
	9	0.133333	7.38623E-001	-9.88916E-005	0.00000E+000	-7.30436E-005	-5.99601E-002	7.38879E-001	3.57650E+000	9	...........
	10	0.146667	7.27414E-001	-9.86030E-005	0.00000E+000	-7.17252E-005	-5.99601E-002	7.27660E-001	3.57650E+000	9	...........
	11	0.16	7.16241E-001	-9.80070E-005	0.00000E+000	-7.01966E-005	-5.99601E-002	7.16489E-001	3.57650E+000	9	...........
	12	0.173333	7.05178E-001	-9.89009E-005	0.00000E+000	-6.97428E-005	-5.99601E-002	7.05420E-001	3.57650E+000	9	...........
	13	0.186667	6.94188E-001	-9.80924E-005	0.00000E+000	-6.80946E-005	-5.99601E-002	6.94427E-001	3.57650E+000	9	...........
	14	0.2	6.83286E-001	-9.79174E-005	0.00000E+000	-6.69056E-005	-5.99601E-002	6.83535E-001	3.57650E+000	9	...........
	15	0.213333	6.72440E-001	-9.80977E-005	0.00000E+000	-6.59648E-005	-5.99601E-002	6.72665E-001	3.57650E+000	9	...........
	16	0.226667	6.61638E-001	-9.76569E-005	0.00000E+000	-6.46136E-005	-5.99601E-002	6.61859E-001	3.57650E+000	9	...........
	17	0.24	6.50858E-001	-9.87884E-005	0.00000E+000	-6.42973E-005	-5.99601E-002	6.51083E-001	3.57650E+000	9	...........
	18	0.253333	6.40053E-001	-9.82977E-005	0.00000E+000	-6.29157E-005	-5.99601E-002	6.40293E-001	3.57650E+000	9	...........
	19	0.266667	6.29219E-001	-1.00125E-004	0.00000E+000	-6.30007E-005	-5.99601E-002	6.29442E-001	3.57650E+000	9	...........
	20	0.28	6.18251E-001	-9.85998E-005	0.00000E+000	-6.09595E-005	-5.99601E-002	6.18469E-001	3.57650E+000	9	...........
	21	0.293333	6.07053E-001	-1.00313E-004	0.00000E+000	-6.08952E-005	-5.99601E-002	6.07317E-001	3.57650E+000	9	...........
	22	0.306667	5.95750E-001	-9.95688E-005	0.00000E+000	-5.93181E-005	-5.99601E-002	5.95996E-001	3.57650E+000	9	...........
	23	0.32	5.84195E-001	-9.94875E-005	0.00000E+000	-5.81201E-005	-5.99601E-002	5.84426E-001	3.57650E+000	9	...........
	24	0.333333	5.72437E-001	-1.00503E-004	0.00000E+000	-5.75318E-005	-5.99601E-002	5.72660E-001	3.57650E+000	9	...........
	25	0.346667	5.60476E-001	-9.89134E-005	0.00000E+000	-5.54386E-005	-5.99601E-002	5.60676E-001	3.57650E+000	9	...........
	26	0.36	5.48307E-001	-9.85384E-005	0.00000E+000	-5.40292E-005	-5.99601E-002	5.48492E-001	3.57650E+000	9	...........
	27	0.373333	5.35932E-001	-1.00061E-004	0.00000E+000	-5.36257E-005	-5.99601E-002	5.36135E-001	3.57650E+000	9	...........
	28	0.386667	5.23414E-001	-9.86842E-005	0.00000E+000	-5.16527E-005	-5.99601E-002	5.23592E-001	3.57650E+000	9	...........
	29	0.4	5.10725E-001	-9.89103E-005	0.00000E+000	-5.05160E-005	-5.99601E-002	5.10919E-001	3.57650E+000	9	...........
	30	0.413333	4.97879E-001	-9.93000E-005	0.00000E+000	-4.94394E-005	-5.99601E-002	4.98069E-001	3.57650E+000	9	...........
	31	0.426667	4.85051E-001	-1.00045E-004	0.00000E+000	-4.85269E-005	-5.99601E-002	4.85205E-001	3.57650E+000	9	...........
	32	0.44	4.72167E-001	-9.84863E-005	0.00000E+000	-4.65020E-005	-5.99601E-002	4.72266E-001	3.57650E+000	9	...........
	33	0.453333	4.58996E-001	-9.88978E-005	0.00000E+000	-4.53937E-005	-5.99601E-002	4.59090E-001	3.57650E+000	9	...........
	34	0.466667	4.45746E-001	-9.78924E-005	0.00000E+000	-4.36352E-005	-5.99601E-002	4.45842E-001	3.57650E+000	9	...........
	35	0.48	4.32429E-001	-9.94709E-005	0.00000E+000	-4.30141E-005	-5.99601E-002	4.32516E-001	3.57650E+000	9	...........
	36	0.493333	4.19053E-001	-9.96303E-005	0.00000E+000	-4.17504E-005	-5.99601E-002	4.19144E-001	3.57650E+000	9	...........
	37	0.506667	4.05643E-001	-9.90083E-005	0.00000E+000	-4.01620E-005	-5.99601E-002	4.05727E-001	3.57650E+000	9	...........
	38	0.52	3.92206E-001	-9.93729E-005	0.00000E+000	-3.89747E-005	-5.99601E-002	3.92283E-001	3.57650E+000	9	...........
	39	0.533333	3.78753E-001	-1.00169E-004	0.00000E+000	-3.79393E-005	-5.99601E-002	3.78828E-001	3.57650E+000	9	...........
	40	0.546667	3.65293E-001	-9.88301E-005	0.00000E+000	-3.61019E-005	-5.99601E-002	3.65367E-001	3.57650E+000	9	...........
	41	0.56	3.51841E-001	-9.95011E-005	0.00000E+000	-3.50086E-005	-5.99601E-002	3.51907E-001	3.57650E+000	9	...........
	42	0.573333	3.38407E-001	-9.82362E-005	0.00000E+000	-3.32439E-005	-5.99601E-002	3.38477E-001	3.57650E+000	9	...........
	43	0.586667	3.25005E-001	-9.82810E-005	0.00000E+000	-3.19418E-005	-5.99601E-002	3.25070E-001	3.57650E+000	9	...........
	44	0.6	3.11632E-001	-9.85071E-005	0.00000E+000	-3.06980E-005	-5.99601E-002	3.11693E-001	3.57650E+000	9	...........
	45	0.613333	2.98311E-001	-9.87447E-005	0.00000E+000	-2.94567E-005	-5.99601E-002	2.98370E-001	3.57650E+000	9	...........
	46	0.626667	2.85045E-001	-9.91416E-005	0.00000E+000	-2.82598E-005	-5.99601E-002	2.85100E-001	3.57695E+000	9	...........
	47	0.64	2.71838E-001	-9.83123E-005	0.00000E+000	-2.67250E-005	-5.99601E-002	2.71895E-001	3.57770E+000	9	...........
	48	0.653333	2.58698E-001	-9.91145E-005	0.00000E+000	-2.56407E-005	-5.99601E-002	2.58756E-001	3.57770E+000	9	...........
	49	0.666667	2.45625E-001	-9.91489E-005	0.00000E+000	-2.43534E-005	-5.99601E-002	2.45678E-001	3.57770E+000	9	...........
	50	0.68	2.32624E-001	-9.86592E-005	0.00000E+000	-2.29505E-005	-5.99601E-002	2.32669E-001	3.57770E+000	9	...........
	51	0.693333	2.19693E-001	-9.85342E-005	0.00000E+000	-2.16473E-005	-5.99601E-002	2.19740E-001	3.57770E+000	9	...........
	52	0.706667	2.06836E-001	-9.89728E-005	0.00000E+000	-2.04712E-005	-5.99601E-002	2.06875E-001	3.57770E+000	9	...........
	53	0.72	1.94056E-001	-9.84790E-005	0.00000E+000	-1.91105E-005	-5.99601E-002	1.94094E-001	3.57770E+000	9	...........
	54	0.733333	1.81355E-001	-9.86832E-005	0.00000E+000	-1.78967E-005	-5.99601E-002	1.81393E-001	3.57770E+000	9	...........
	55	0.746667	1.68730E-001	-9.83269E-005	0.00000E+000	-1.65907E-005	-5.99601E-002	1.68766E-001	3.57770E+000	9	...........
	56	0.76	1.56185E-001	-9.97720E-005	0.00000E+000	-1.55829E-005	-5.99601E-002	1.56210E-001	3.57770E+000	9	...........
	57	0.773333	1.43714E-001	-9.76663E-005	0.00000E+000	-1.40361E-005	-5.99601E-002	1.43739E-001	3.57770E+000	9	...........
	58	0.786667	1.31324E-001	-9.78757E-005	0.00000E+000	-1.28535E-005	-5.99601E-002	1.31348E-001	3.57770E+000	9	...........
	59	0.8	1.19022E-001	-9.92281E-005	0.00000E+000	-1.18103E-005	-5.99601E-002	1.19044E-001	3.57770E+000	9	...........
	60	0.813333	1.06800E-001	-9.85300E-005	0.00000E+000	-1.05230E-005	-5.99601E-002	1.06819E-001	3.57770E+000	9	...........
	61	0.826667	9.46748E-002	-9.77340E-005	0.00000E+000	-9.25295E-006	-5.99601E-002	9.46906E-002	3.57770E+000	9	...........
	62	0.84	8.26469E-002	-9.98709E-005	0.00000E+000	-8.25402E-006	-5.99601E-002	8.26625E-002	3.57770E+000	9	...........
	63	0.853333	7.07416E-002	-9.84957E-005	0.00000E+000	-6.96774E-006	-5.99601E-002	7.07552E-002	3.57770E+000	9	...........
	64	0.866667	5.89608E-002	-9.91406E-005	0.00000E+000	-5.84541E-006	-5.99601E-002	5.89692E-002	3.57770E+000	9	...........
	65	0.88	4.73299E-002	-9.97751E-005	0.00000E+000	-4.72235E-006	-5.99601E-002	4.73369E-002	3.57770E+000	9	...........
	66	0.893333	3.58465E-002	-9.88197E-005	0.00000E+000	-3.54234E-006	-5.99601E-002	3.58538E-002	3.57770E+000	9	...........
	67	0.906667	2.45101E-002	-9.88395E-005	0.00000E+000	-2.42257E-006	-5.99601E-002	2.45050E-002	3.57770E+000	9	...........
	68	0.92	1.33322E-002	-9.97022E-005	0.00000E+000	-1.32925E-006	-5.99601E-002	1.33175E-002	3.57770E+000	9	...........
	69	0.931667	3.01311E-003	-9.88782E-005	0.00000E+000	-2.97931E-007	-5.99601E-002	2.99681E-003	3.57770E+000	9	...........
STARTTIMEOFFSET	QUANT	1755.183	Start Time Offset (s)
