EXPLAIN
TAG	PWR800_DISCHARGE
TITLE	LABEL	PWR Cyclic Charge Discharge (Cell) - Discharge Step	Test &Identifier
DATE	LABEL	12-7-2017	Date
TIME	LABEL	16:15:29	Time
NOTES	NOTES	2	&Notes...
	supercap test cell
	6M KOH
PSTAT	PSTAT	IFC5000-01520	Potentiostat
CAPACITY	QUANT	1.00000E-003	Capacity (A-hr)
CELLTYPE	SELECTOR	1	&Cell Type
WORKINGCONNECTION	SELECTOR	0	&Working Lead
MAXDISCHARGETIME	VARIABLEANDUNITS	1.00000E+002	s	1.00000E+002	second(s)	Max &Discharge Time
DISCHARGEMODE	MULTIPARAM	0	1.00000E-004	&Discharge Mode	Constant Current	Amp(s)
SAMPLETIME	QUANT	1.00000E-002	Sa&mple Period (s)
DISCHARGESTOPAT1	MULTIPARAM	3	0.00000E+000	Discharge Stop At &1	Voltage < Limit	V
DISCHARGESTOPAT2	MULTIPARAM	0	0.00000E+000	Discharge Stop At &2	None	N/A
AESBHCSELECTOR	TOGGLE	F	Save Both Half Cells
IRCOMP	TOGGLE	F	IR &Measure
EOC	QUANT	0	Open Circuit (V)
SEQUENCER	TOGGLE	TRUE	Run as Sequence
PSTATMODEL	IQUANT	53	Pstat Model
PSTATSECTION	LABEL	IFC5000-01520	Pstat Section
PSTATSERIALNO	LABEL	01520	Pstat Serial Number
CTRLMODE	IQUANT	0	Control Mode
ELECTROMETER	IQUANT	1	RE=0 or CS=1
IESTAB	IQUANT	0	I/E Stability
CASPEED	IQUANT	4	Control Amp Speed
CONVENTION	IQUANT	1	Current Convention
ICHRANGE	IQUANT	2	Ich Range
ICHRANGEMODE	TOGGLE	T	Ich Auto Range
ICHOFFSETENABLE	TOGGLE	F	Ich Offset Enable
ICHOFFSET	QUANT	0	Ich Offset (V)
ICHFILTER	IQUANT	1	Ich Filter
VCHRANGE	IQUANT	2	Vch Range
VCHRANGEMODE	TOGGLE	T	Vch Auto Range
VCHOFFSETENABLE	TOGGLE	F	Vch Offset Enable
VCHOFFSET	QUANT	0	Vch Offset (V)
VCHFILTER	IQUANT	1	Vch Filter
IERANGELOWERLIMIT	IQUANT	9	I/E Range Lower Limit
IERANGEMODE	TOGGLE	F	I/E AutoRange
IERANGE	IQUANT	9	I/E Range
ACHSELECT	IQUANT	1	Ach Select
ACHRANGE	IQUANT	2	Ach Range
ACHOFFSETENABLE	TOGGLE	F	Ach Offset Enable
ACHOFFSET	QUANT	0	Ach Offset (V)
ACHFILTER	IQUANT	1	Ach Filter
CABLEID	IQUANT	14	Cable ID
DCCALDATE	LABEL	5-7-2017	DC Calibration Date
ACCALDATE	LABEL	12/3/2015	AC Calibration Date
FRAMEWORKVERSION	QUANT	7.01	Framework Version
INSTRUMENTVERSION	LABEL	4.00	Instrument Version
CURVE	TABLE	72
	Pt	T	Vf	Im	Vu	Pwr	Sig	Ach	Temp	IERange	Over
	#	s	V	A	V	W	V	V	deg C	#	bits
	0	0.013333	8.41996E-001	-9.86499E-005	0.00000E+000	-8.30628E-005	-5.99601E-002	8.42291E-001	3.57870E+000	9	...........
	1	0.026667	8.29033E-001	-9.89906E-005	0.00000E+000	-8.20664E-005	-5.99601E-002	8.29333E-001	3.57870E+000	9	...........
	2	0.04	8.16672E-001	-9.88624E-005	0.00000E+000	-8.07382E-005	-5.99601E-002	8.16968E-001	3.57870E+000	9	...........
	3	0.053333	8.04698E-001	-9.95000E-005	0.00000E+000	-8.00674E-005	-5.99601E-002	8.04977E-001	3.57870E+000	9	...........
	4	0.066667	7.92983E-001	-9.87040E-005	0.00000E+000	-7.82706E-005	-5.99601E-002	7.93271E-001	3.57870E+000	9	...........
	5	0.08	7.81464E-001	-9.91104E-005	0.00000E+000	-7.74512E-005	-5.99601E-002	7.81749E-001	3.57870E+000	9	...........
	6	0.093333	7.70124E-001	-9.85905E-005	0.00000E+000	-7.59268E-005	-5.99601E-002	7.70374E-001	3.57870E+000	9	...........
	7	0.106667	7.58888E-001	-9.92562E-005	0.00000E+000	-7.53244E-005	-5.99601E-002	7.59145E-001	3.57870E+000	9	...........
	8	0.12	7.47750E-001	-9.91312E-005	0.00000E+000	-7.41254E-005	-5.99601E-002	7.48013E-001	3.57870E+000	9	...........
	9	0.133333	7.36644E-001	-9.90739E-005	0.00000E+000	-7.29822E-005	-5.99601E-002	7.36905E-001	3.57870E+000	9	...........
	10	0.146667	7.25595E-001	-9.84592E-005	0.00000E+000	-7.14415E-005	-5.99601E-002	7.25844E-001	3.57870E+000	9	...........
	11	0.16	7.14459E-001	-9.92781E-005	0.00000E+000	-7.09302E-005	-5.99601E-002	7.14718E-001	3.57870E+000	9	...........
	12	0.173333	7.03270E-001	-9.83404E-005	0.00000E+000	-6.91599E-005	-5.99601E-002	7.03529E-001	3.57870E+000	9	...........
	13	0.186667	6.91986E-001	-9.85332E-005	0.00000E+000	-6.81836E-005	-5.99601E-002	6.92235E-001	3.57870E+000	9	...........
	14	0.2	6.80580E-001	-9.93427E-005	0.00000E+000	-6.76107E-005	-5.99601E-002	6.80832E-001	3.57870E+000	9	...........
	15	0.213333	6.69061E-001	-9.84957E-005	0.00000E+000	-6.58996E-005	-5.99601E-002	6.69312E-001	3.57870E+000	9	...........
	16	0.226667	6.57404E-001	-9.90958E-005	0.00000E+000	-6.51460E-005	-5.99601E-002	6.57652E-001	3.57870E+000	9	...........
	17	0.24	6.45668E-001	-9.90364E-005	0.00000E+000	-6.39446E-005	-5.99601E-002	6.45903E-001	3.57870E+000	9	...........
	18	0.253333	6.33804E-001	-9.84623E-005	0.00000E+000	-6.24059E-005	-5.99601E-002	6.34054E-001	3.57870E+000	9	...........
	19	0.266667	6.21905E-001	-9.89499E-005	0.00000E+000	-6.15375E-005	-5.99601E-002	6.22158E-001	3.57870E+000	9	...........
	20	0.28	6.09859E-001	-9.87145E-005	0.00000E+000	-6.02019E-005	-5.99601E-002	6.10144E-001	3.57870E+000	9	...........
	21	0.293333	5.97786E-001	-9.90291E-005	0.00000E+000	-5.91982E-005	-5.99601E-002	5.98077E-001	3.57870E+000	9	...........
	22	0.306667	5.85682E-001	-9.78122E-005	0.00000E+000	-5.72868E-005	-5.99601E-002	5.85953E-001	3.57870E+000	9	...........
	23	0.32	5.73518E-001	-9.87092E-005	0.00000E+000	-5.66116E-005	-5.99601E-002	5.73786E-001	3.57870E+000	9	...........
	24	0.333333	5.61326E-001	-9.87811E-005	0.00000E+000	-5.54485E-005	-5.99601E-002	5.61606E-001	3.57870E+000	9	...........
	25	0.346667	5.49112E-001	-9.89468E-005	0.00000E+000	-5.43329E-005	-5.99601E-002	5.49375E-001	3.57870E+000	9	...........
	26	0.36	5.36890E-001	-9.81143E-005	0.00000E+000	-5.26766E-005	-5.99601E-002	5.37160E-001	3.57801E+000	9	...........
	27	0.373333	5.24613E-001	-9.89593E-005	0.00000E+000	-5.19153E-005	-5.99601E-002	5.24891E-001	3.57760E+000	9	...........
	28	0.386667	5.12375E-001	-9.82539E-005	0.00000E+000	-5.03428E-005	-5.99601E-002	5.12618E-001	3.57760E+000	9	...........
	29	0.4	5.00114E-001	-9.77820E-005	0.00000E+000	-4.89021E-005	-5.99601E-002	5.00370E-001	3.57760E+000	9	...........
	30	0.413333	4.87919E-001	-9.85801E-005	0.00000E+000	-4.80991E-005	-5.99601E-002	4.88153E-001	3.57760E+000	9	...........
	31	0.426667	4.75970E-001	-9.88041E-005	0.00000E+000	-4.70278E-005	-5.99601E-002	4.76076E-001	3.57760E+000	9	...........
	32	0.44	4.63755E-001	-9.81904E-005	0.00000E+000	-4.55363E-005	-5.99601E-002	4.63860E-001	3.57760E+000	9	...........
	33	0.453333	4.51550E-001	-9.96094E-005	0.00000E+000	-4.49786E-005	-5.99601E-002	4.51648E-001	3.57760E+000	9	...........
	34	0.466667	4.39370E-001	-9.92604E-005	0.00000E+000	-4.36120E-005	-5.99601E-002	4.39464E-001	3.57760E+000	9	...........
	35	0.48	4.27207E-001	-9.91479E-005	0.00000E+000	-4.23566E-005	-5.99601E-002	4.27301E-001	3.57760E+000	9	...........
	36	0.493333	4.15063E-001	-9.83998E-005	0.00000E+000	-4.08421E-005	-5.99601E-002	4.15158E-001	3.57760E+000	9	...........
	37	0.506667	4.02952E-001	-9.84300E-005	0.00000E+000	-3.96626E-005	-5.99601E-002	4.03039E-001	3.57760E+000	9	...........
	38	0.52	3.90864E-001	-9.95563E-005	0.00000E+000	-3.89130E-005	-5.99601E-002	3.90945E-001	3.57760E+000	9	...........
	39	0.533333	3.78792E-001	-9.89520E-005	0.00000E+000	-3.74823E-005	-5.99601E-002	3.78873E-001	3.57760E+000	9	...........
	40	0.546667	3.66742E-001	-9.90854E-005	0.00000E+000	-3.63388E-005	-5.99601E-002	3.66824E-001	3.57760E+000	9	...........
	41	0.56	3.54710E-001	-9.79612E-005	0.00000E+000	-3.47478E-005	-5.99601E-002	3.54783E-001	3.57760E+000	9	...........
	42	0.573333	3.42688E-001	-9.91395E-005	0.00000E+000	-3.39739E-005	-5.99601E-002	3.42758E-001	3.57760E+000	9	...........
	43	0.586667	3.30684E-001	-9.85207E-005	0.00000E+000	-3.25792E-005	-5.99601E-002	3.30749E-001	3.57760E+000	9	...........
	44	0.6	3.18682E-001	-9.90031E-005	0.00000E+000	-3.15505E-005	-5.99601E-002	3.18751E-001	3.57760E+000	9	...........
	45	0.613333	3.06680E-001	-1.00036E-004	0.00000E+000	-3.06789E-005	-5.99601E-002	3.06743E-001	3.57760E+000	9	...........
	46	0.626667	2.94678E-001	-9.94188E-005	0.00000E+000	-2.92965E-005	-5.99601E-002	2.94738E-001	3.57760E+000	9	...........
	47	0.64	2.82672E-001	-9.88968E-005	0.00000E+000	-2.79553E-005	-5.99601E-002	2.82728E-001	3.57760E+000	9	...........
	48	0.653333	2.70659E-001	-9.84738E-005	0.00000E+000	-2.66528E-005	-5.99601E-002	2.70715E-001	3.57760E+000	9	...........
	49	0.666667	2.58644E-001	-9.81310E-005	0.00000E+000	-2.53810E-005	-5.99601E-002	2.58702E-001	3.57760E+000	9	...........
	50	0.68	2.46626E-001	-9.84665E-005	0.00000E+000	-2.42844E-005	-5.99601E-002	2.46671E-001	3.57760E+000	9	...........
	51	0.693333	2.34597E-001	-9.91937E-005	0.00000E+000	-2.32706E-005	-5.99601E-002	2.34640E-001	3.57760E+000	9	...........
	52	0.706667	2.22563E-001	-9.85571E-005	0.00000E+000	-2.19352E-005	-5.99601E-002	2.22607E-001	3.57760E+000	9	...........
	53	0.72	2.10532E-001	-9.88853E-005	0.00000E+000	-2.08185E-005	-5.99601E-002	2.10570E-001	3.57760E+000	9	...........
	54	0.733333	1.98502E-001	-9.93385E-005	0.00000E+000	-1.97189E-005	-5.99601E-002	1.98540E-001	3.57760E+000	9	...........
	55	0.746667	1.86485E-001	-9.85394E-005	0.00000E+000	-1.83761E-005	-5.99601E-002	1.86521E-001	3.57760E+000	9	...........
	56	0.76	1.74476E-001	-9.89885E-005	0.00000E+000	-1.72711E-005	-5.99601E-002	1.74510E-001	3.57760E+000	9	...........
	57	0.773333	1.62489E-001	-9.89760E-005	0.00000E+000	-1.60825E-005	-5.99601E-002	1.62520E-001	3.57760E+000	9	...........
	58	0.786667	1.50524E-001	-9.85915E-005	0.00000E+000	-1.48404E-005	-5.99601E-002	1.50546E-001	3.57760E+000	9	...........
	59	0.8	1.38570E-001	-9.86967E-005	0.00000E+000	-1.36764E-005	-5.99601E-002	1.38596E-001	3.57760E+000	9	...........
	60	0.813333	1.26651E-001	-9.90739E-005	0.00000E+000	-1.25478E-005	-5.99601E-002	1.26671E-001	3.57760E+000	9	...........
	61	0.826667	1.14771E-001	-9.77111E-005	0.00000E+000	-1.12144E-005	-5.99601E-002	1.14795E-001	3.57760E+000	9	...........
	62	0.84	1.02944E-001	-9.83967E-005	0.00000E+000	-1.01293E-005	-5.99601E-002	1.02967E-001	3.57760E+000	9	...........
	63	0.853333	9.11784E-002	-9.83581E-005	0.00000E+000	-8.96814E-006	-5.99601E-002	9.11973E-002	3.57760E+000	9	...........
	64	0.866667	7.94790E-002	-9.86488E-005	0.00000E+000	-7.84051E-006	-5.99601E-002	7.94953E-002	3.57760E+000	9	...........
	65	0.88	6.78552E-002	-9.76444E-005	0.00000E+000	-6.62568E-006	-5.99601E-002	6.78646E-002	3.57760E+000	9	...........
	66	0.893333	5.63215E-002	-9.78330E-005	0.00000E+000	-5.51011E-006	-5.99601E-002	5.63308E-002	3.57760E+000	9	...........
	67	0.906667	4.49166E-002	-9.92552E-005	0.00000E+000	-4.45821E-006	-5.99601E-002	4.49184E-002	3.57760E+000	9	...........
	68	0.92	3.36068E-002	-9.83467E-005	0.00000E+000	-3.30512E-006	-5.99601E-002	3.36036E-002	3.57760E+000	9	...........
	69	0.933333	2.24150E-002	-9.83863E-005	0.00000E+000	-2.20533E-006	-5.99601E-002	2.24070E-002	3.57760E+000	9	...........
	70	0.946667	1.13617E-002	-9.91593E-005	0.00000E+000	-1.12661E-006	-5.99601E-002	1.13465E-002	3.57760E+000	9	...........
	71	0.955	2.48464E-003	-9.83185E-005	0.00000E+000	-2.44287E-007	-5.99601E-002	2.45996E-003	3.57760E+000	9	...........
STARTTIMEOFFSET	QUANT	231.62	Start Time Offset (s)
