EXPLAIN
TAG	PWR800_DISCHARGE
TITLE	LABEL	PWR Cyclic Charge Discharge (Cell) - Discharge Step	Test &Identifier
DATE	LABEL	12-7-2017	Date
TIME	LABEL	16:28:15	Time
NOTES	NOTES	2	&Notes...
	supercap test cell
	6M KOH
PSTAT	PSTAT	IFC5000-01520	Potentiostat
CAPACITY	QUANT	1.00000E-003	Capacity (A-hr)
CELLTYPE	SELECTOR	1	&Cell Type
WORKINGCONNECTION	SELECTOR	0	&Working Lead
MAXDISCHARGETIME	VARIABLEANDUNITS	1.00000E+002	s	1.00000E+002	second(s)	Max &Discharge Time
DISCHARGEMODE	MULTIPARAM	0	1.00000E-004	&Discharge Mode	Constant Current	Amp(s)
SAMPLETIME	QUANT	1.00000E-002	Sa&mple Period (s)
DISCHARGESTOPAT1	MULTIPARAM	3	0.00000E+000	Discharge Stop At &1	Voltage < Limit	V
DISCHARGESTOPAT2	MULTIPARAM	0	0.00000E+000	Discharge Stop At &2	None	N/A
AESBHCSELECTOR	TOGGLE	F	Save Both Half Cells
IRCOMP	TOGGLE	F	IR &Measure
EOC	QUANT	0	Open Circuit (V)
SEQUENCER	TOGGLE	TRUE	Run as Sequence
PSTATMODEL	IQUANT	53	Pstat Model
PSTATSECTION	LABEL	IFC5000-01520	Pstat Section
PSTATSERIALNO	LABEL	01520	Pstat Serial Number
CTRLMODE	IQUANT	0	Control Mode
ELECTROMETER	IQUANT	1	RE=0 or CS=1
IESTAB	IQUANT	0	I/E Stability
CASPEED	IQUANT	4	Control Amp Speed
CONVENTION	IQUANT	1	Current Convention
ICHRANGE	IQUANT	2	Ich Range
ICHRANGEMODE	TOGGLE	T	Ich Auto Range
ICHOFFSETENABLE	TOGGLE	F	Ich Offset Enable
ICHOFFSET	QUANT	0	Ich Offset (V)
ICHFILTER	IQUANT	1	Ich Filter
VCHRANGE	IQUANT	2	Vch Range
VCHRANGEMODE	TOGGLE	T	Vch Auto Range
VCHOFFSETENABLE	TOGGLE	F	Vch Offset Enable
VCHOFFSET	QUANT	0	Vch Offset (V)
VCHFILTER	IQUANT	1	Vch Filter
IERANGELOWERLIMIT	IQUANT	9	I/E Range Lower Limit
IERANGEMODE	TOGGLE	F	I/E AutoRange
IERANGE	IQUANT	9	I/E Range
ACHSELECT	IQUANT	1	Ach Select
ACHRANGE	IQUANT	2	Ach Range
ACHOFFSETENABLE	TOGGLE	F	Ach Offset Enable
ACHOFFSET	QUANT	0	Ach Offset (V)
ACHFILTER	IQUANT	1	Ach Filter
CABLEID	IQUANT	14	Cable ID
DCCALDATE	LABEL	5-7-2017	DC Calibration Date
ACCALDATE	LABEL	12/3/2015	AC Calibration Date
FRAMEWORKVERSION	QUANT	7.01	Framework Version
INSTRUMENTVERSION	LABEL	4.00	Instrument Version
CURVE	TABLE	71
	Pt	T	Vf	Im	Vu	Pwr	Sig	Ach	Temp	IERange	Over
	#	s	V	A	V	W	V	V	deg C	#	bits
	0	0.013333	8.45286E-001	-9.80987E-005	0.00000E+000	-8.29215E-005	-5.99601E-002	8.45603E-001	3.57734E+000	9	...........
	1	0.026667	8.32303E-001	-9.77215E-005	0.00000E+000	-8.13339E-005	-5.99601E-002	8.32622E-001	3.57760E+000	9	...........
	2	0.04	8.19917E-001	-9.87145E-005	0.00000E+000	-8.09377E-005	-5.99601E-002	8.20243E-001	3.57760E+000	9	...........
	3	0.053333	8.07919E-001	-9.88280E-005	0.00000E+000	-7.98450E-005	-5.99601E-002	8.08211E-001	3.57760E+000	9	...........
	4	0.066667	7.96176E-001	-9.88343E-005	0.00000E+000	-7.86894E-005	-5.99601E-002	7.96493E-001	3.57760E+000	9	...........
	5	0.08	7.84649E-001	-9.87790E-005	0.00000E+000	-7.75069E-005	-5.99601E-002	7.84931E-001	3.57760E+000	9	...........
	6	0.093333	7.73266E-001	-9.85165E-005	0.00000E+000	-7.61795E-005	-5.99601E-002	7.73571E-001	3.57760E+000	9	...........
	7	0.106667	7.62033E-001	-9.82529E-005	0.00000E+000	-7.48720E-005	-5.99601E-002	7.62310E-001	3.57760E+000	9	...........
	8	0.12	7.50924E-001	-9.86978E-005	0.00000E+000	-7.41145E-005	-5.99601E-002	7.51194E-001	3.57760E+000	9	...........
	9	0.133333	7.39907E-001	-9.92479E-005	0.00000E+000	-7.34343E-005	-5.99601E-002	7.40174E-001	3.57760E+000	9	...........
	10	0.146667	7.28997E-001	-9.96428E-005	0.00000E+000	-7.26393E-005	-5.99601E-002	7.29248E-001	3.57760E+000	9	...........
	11	0.16	7.18166E-001	-9.88238E-005	0.00000E+000	-7.09719E-005	-5.99601E-002	7.18404E-001	3.57760E+000	9	...........
	12	0.173333	7.07392E-001	-9.81154E-005	0.00000E+000	-6.94060E-005	-5.99601E-002	7.07644E-001	3.57760E+000	9	...........
	13	0.186667	6.96716E-001	-9.85040E-005	0.00000E+000	-6.86293E-005	-5.99601E-002	6.96943E-001	3.57760E+000	9	...........
	14	0.2	6.86041E-001	-9.81737E-005	0.00000E+000	-6.73512E-005	-5.99601E-002	6.86272E-001	3.57760E+000	9	...........
	15	0.213333	6.75416E-001	-9.89249E-005	0.00000E+000	-6.68155E-005	-5.99601E-002	6.75640E-001	3.57760E+000	9	...........
	16	0.226667	6.64732E-001	-9.94052E-005	0.00000E+000	-6.60778E-005	-5.99601E-002	6.64952E-001	3.57760E+000	9	...........
	17	0.24	6.53958E-001	-9.84946E-005	0.00000E+000	-6.44114E-005	-5.99601E-002	6.54179E-001	3.57760E+000	9	...........
	18	0.253333	6.43077E-001	-9.94625E-005	0.00000E+000	-6.39620E-005	-5.99601E-002	6.43308E-001	3.57760E+000	9	...........
	19	0.266667	6.32019E-001	-9.83988E-005	0.00000E+000	-6.21899E-005	-5.99601E-002	6.32263E-001	3.57760E+000	9	...........
	20	0.28	6.20813E-001	-9.91229E-005	0.00000E+000	-6.15368E-005	-5.99601E-002	6.21058E-001	3.57760E+000	9	...........
	21	0.293333	6.09382E-001	-9.90395E-005	0.00000E+000	-6.03529E-005	-5.99601E-002	6.09642E-001	3.57760E+000	9	...........
	22	0.306667	5.97790E-001	-9.89978E-005	0.00000E+000	-5.91799E-005	-5.99601E-002	5.98058E-001	3.57760E+000	9	...........
	23	0.32	5.86033E-001	-9.83404E-005	0.00000E+000	-5.76307E-005	-5.99601E-002	5.86283E-001	3.57760E+000	9	...........
	24	0.333333	5.74102E-001	-9.90093E-005	0.00000E+000	-5.68415E-005	-5.99601E-002	5.74335E-001	3.57760E+000	9	...........
	25	0.346667	5.61999E-001	-9.80081E-005	0.00000E+000	-5.50804E-005	-5.99601E-002	5.62246E-001	3.57760E+000	9	...........
	26	0.36	5.49761E-001	-9.86676E-005	0.00000E+000	-5.42436E-005	-5.99601E-002	5.50005E-001	3.57760E+000	9	...........
	27	0.373333	5.37368E-001	-9.77788E-005	0.00000E+000	-5.25432E-005	-5.99601E-002	5.37611E-001	3.57760E+000	9	...........
	28	0.386667	5.24878E-001	-9.72037E-005	0.00000E+000	-5.10201E-005	-5.99601E-002	5.25130E-001	3.57760E+000	9	...........
	29	0.4	5.12290E-001	-9.82300E-005	0.00000E+000	-5.03222E-005	-5.99601E-002	5.12531E-001	3.57760E+000	9	...........
	30	0.413333	4.99581E-001	-9.80320E-005	0.00000E+000	-4.89749E-005	-5.99601E-002	4.99821E-001	3.57760E+000	9	...........
	31	0.426667	4.86893E-001	-9.85571E-005	0.00000E+000	-4.79868E-005	-5.99601E-002	4.87100E-001	3.57760E+000	9	...........
	32	0.44	4.74298E-001	-9.87582E-005	0.00000E+000	-4.68408E-005	-5.99601E-002	4.74406E-001	3.57760E+000	9	...........
	33	0.453333	4.61394E-001	-9.93479E-005	0.00000E+000	-4.58385E-005	-5.99601E-002	4.61494E-001	3.57760E+000	9	...........
	34	0.466667	4.48438E-001	-9.71100E-005	0.00000E+000	-4.35478E-005	-5.99601E-002	4.48539E-001	3.57760E+000	9	...........
	35	0.48	4.35442E-001	-9.93625E-005	0.00000E+000	-4.32666E-005	-5.99601E-002	4.35540E-001	3.57760E+000	9	...........
	36	0.493333	4.22426E-001	-9.91687E-005	0.00000E+000	-4.18914E-005	-5.99601E-002	4.22519E-001	3.57760E+000	9	...........
	37	0.506667	4.09395E-001	-9.75621E-005	0.00000E+000	-3.99415E-005	-5.99601E-002	4.09480E-001	3.57760E+000	9	...........
	38	0.52	3.96350E-001	-9.86905E-005	0.00000E+000	-3.91160E-005	-5.99601E-002	3.96436E-001	3.57760E+000	9	...........
	39	0.533333	3.83306E-001	-9.84373E-005	0.00000E+000	-3.77316E-005	-5.99601E-002	3.83390E-001	3.57760E+000	9	...........
	40	0.546667	3.70281E-001	-9.99668E-005	0.00000E+000	-3.70158E-005	-5.99601E-002	3.70358E-001	3.57760E+000	9	...........
	41	0.56	3.57272E-001	-9.83967E-005	0.00000E+000	-3.51544E-005	-5.99601E-002	3.57351E-001	3.57760E+000	9	...........
	42	0.573333	3.44297E-001	-9.96178E-005	0.00000E+000	-3.42981E-005	-5.99601E-002	3.44373E-001	3.57760E+000	9	...........
	43	0.586667	3.31348E-001	-9.88374E-005	0.00000E+000	-3.27496E-005	-5.99601E-002	3.31417E-001	3.57760E+000	9	...........
	44	0.6	3.18447E-001	-9.71152E-005	0.00000E+000	-3.09261E-005	-5.99601E-002	3.18512E-001	3.57760E+000	9	...........
	45	0.613333	3.05573E-001	-9.79101E-005	0.00000E+000	-2.99186E-005	-5.99601E-002	3.05644E-001	3.57760E+000	9	...........
	46	0.626667	2.92762E-001	-9.77976E-005	0.00000E+000	-2.86314E-005	-5.99601E-002	2.92820E-001	3.57760E+000	9	...........
	47	0.64	2.79980E-001	-9.94823E-005	0.00000E+000	-2.78531E-005	-5.99601E-002	2.80046E-001	3.57760E+000	9	...........
	48	0.653333	2.67264E-001	-9.84279E-005	0.00000E+000	-2.63063E-005	-5.99601E-002	2.67321E-001	3.57760E+000	9	...........
	49	0.666667	2.54595E-001	-9.65598E-005	0.00000E+000	-2.45837E-005	-5.99601E-002	2.54653E-001	3.57760E+000	9	...........
	50	0.68	2.41979E-001	-9.80622E-005	0.00000E+000	-2.37290E-005	-5.99601E-002	2.42025E-001	3.57760E+000	9	...........
	51	0.693333	2.29407E-001	-9.96094E-005	0.00000E+000	-2.28511E-005	-5.99601E-002	2.29450E-001	3.57760E+000	9	...........
	52	0.706667	2.16881E-001	-1.00566E-004	0.00000E+000	-2.18108E-005	-5.99601E-002	2.16921E-001	3.57760E+000	9	...........
	53	0.72	2.04407E-001	-9.86405E-005	0.00000E+000	-2.01628E-005	-5.99601E-002	2.04449E-001	3.57760E+000	9	...........
	54	0.733333	1.91969E-001	-9.98324E-005	0.00000E+000	-1.91647E-005	-5.99601E-002	1.92006E-001	3.57760E+000	9	...........
	55	0.746667	1.79576E-001	-9.86144E-005	0.00000E+000	-1.77088E-005	-5.99601E-002	1.79612E-001	3.57760E+000	9	...........
	56	0.76	1.67227E-001	-9.79435E-005	0.00000E+000	-1.63788E-005	-5.99601E-002	1.67264E-001	3.57760E+000	9	...........
	57	0.773333	1.54919E-001	-9.75017E-005	0.00000E+000	-1.51049E-005	-5.99601E-002	1.54951E-001	3.57760E+000	9	...........
	58	0.786667	1.42661E-001	-9.80424E-005	0.00000E+000	-1.39868E-005	-5.99601E-002	1.42693E-001	3.57760E+000	9	...........
	59	0.8	1.30458E-001	-9.84925E-005	0.00000E+000	-1.28492E-005	-5.99601E-002	1.30484E-001	3.57760E+000	9	...........
	60	0.813333	1.18314E-001	-9.89062E-005	0.00000E+000	-1.17020E-005	-5.99601E-002	1.18338E-001	3.57760E+000	9	...........
	61	0.826667	1.06243E-001	-9.89405E-005	0.00000E+000	-1.05118E-005	-5.99601E-002	1.06264E-001	3.57760E+000	9	...........
	62	0.84	9.42467E-002	-9.87790E-005	0.00000E+000	-9.30960E-006	-5.99601E-002	9.42651E-002	3.57760E+000	9	...........
	63	0.853333	8.23454E-002	-9.83654E-005	0.00000E+000	-8.09994E-006	-5.99601E-002	8.23577E-002	3.57760E+000	9	...........
	64	0.866667	7.05351E-002	-9.79841E-005	0.00000E+000	-6.91132E-006	-5.99601E-002	7.05450E-002	3.57760E+000	9	...........
	65	0.88	5.88310E-002	-9.96844E-005	0.00000E+000	-5.86453E-006	-5.99601E-002	5.88391E-002	3.57760E+000	9	...........
	66	0.893333	4.72576E-002	-9.87249E-005	0.00000E+000	-4.66550E-006	-5.99601E-002	4.72685E-002	3.57760E+000	9	...........
	67	0.906667	3.58124E-002	-9.91531E-005	0.00000E+000	-3.55091E-006	-5.99601E-002	3.58172E-002	3.57760E+000	9	...........
	68	0.92	2.44938E-002	-9.86676E-005	0.00000E+000	-2.41674E-006	-5.99601E-002	2.44866E-002	3.57760E+000	9	...........
	69	0.933333	1.33153E-002	-9.86134E-005	0.00000E+000	-1.31307E-006	-5.99601E-002	1.32999E-002	3.57760E+000	9	...........
	70	0.945	2.97074E-003	-9.80732E-005	0.00000E+000	-2.91350E-007	-5.99601E-002	2.95083E-003	3.57760E+000	9	...........
STARTTIMEOFFSET	QUANT	778.6799	Start Time Offset (s)
