EXPLAIN
TAG	PWR800_DISCHARGE
TITLE	LABEL	PWR Cyclic Charge Discharge (Cell) - Discharge Step	Test &Identifier
DATE	LABEL	12-7-2017	Date
TIME	LABEL	16:42:24	Time
NOTES	NOTES	2	&Notes...
	supercap test cell
	6M KOH
PSTAT	PSTAT	IFC5000-01520	Potentiostat
CAPACITY	QUANT	1.00000E-003	Capacity (A-hr)
CELLTYPE	SELECTOR	1	&Cell Type
WORKINGCONNECTION	SELECTOR	0	&Working Lead
MAXDISCHARGETIME	VARIABLEANDUNITS	1.00000E+002	s	1.00000E+002	second(s)	Max &Discharge Time
DISCHARGEMODE	MULTIPARAM	0	1.00000E-004	&Discharge Mode	Constant Current	Amp(s)
SAMPLETIME	QUANT	1.00000E-002	Sa&mple Period (s)
DISCHARGESTOPAT1	MULTIPARAM	3	0.00000E+000	Discharge Stop At &1	Voltage < Limit	V
DISCHARGESTOPAT2	MULTIPARAM	0	0.00000E+000	Discharge Stop At &2	None	N/A
AESBHCSELECTOR	TOGGLE	F	Save Both Half Cells
IRCOMP	TOGGLE	F	IR &Measure
EOC	QUANT	0	Open Circuit (V)
SEQUENCER	TOGGLE	TRUE	Run as Sequence
PSTATMODEL	IQUANT	53	Pstat Model
PSTATSECTION	LABEL	IFC5000-01520	Pstat Section
PSTATSERIALNO	LABEL	01520	Pstat Serial Number
CTRLMODE	IQUANT	0	Control Mode
ELECTROMETER	IQUANT	1	RE=0 or CS=1
IESTAB	IQUANT	0	I/E Stability
CASPEED	IQUANT	4	Control Amp Speed
CONVENTION	IQUANT	1	Current Convention
ICHRANGE	IQUANT	2	Ich Range
ICHRANGEMODE	TOGGLE	T	Ich Auto Range
ICHOFFSETENABLE	TOGGLE	F	Ich Offset Enable
ICHOFFSET	QUANT	0	Ich Offset (V)
ICHFILTER	IQUANT	1	Ich Filter
VCHRANGE	IQUANT	2	Vch Range
VCHRANGEMODE	TOGGLE	T	Vch Auto Range
VCHOFFSETENABLE	TOGGLE	F	Vch Offset Enable
VCHOFFSET	QUANT	0	Vch Offset (V)
VCHFILTER	IQUANT	1	Vch Filter
IERANGELOWERLIMIT	IQUANT	9	I/E Range Lower Limit
IERANGEMODE	TOGGLE	F	I/E AutoRange
IERANGE	IQUANT	9	I/E Range
ACHSELECT	IQUANT	1	Ach Select
ACHRANGE	IQUANT	2	Ach Range
ACHOFFSETENABLE	TOGGLE	F	Ach Offset Enable
ACHOFFSET	QUANT	0	Ach Offset (V)
ACHFILTER	IQUANT	1	Ach Filter
CABLEID	IQUANT	14	Cable ID
DCCALDATE	LABEL	5-7-2017	DC Calibration Date
ACCALDATE	LABEL	12/3/2015	AC Calibration Date
FRAMEWORKVERSION	QUANT	7.01	Framework Version
INSTRUMENTVERSION	LABEL	4.00	Instrument Version
CURVE	TABLE	70
	Pt	T	Vf	Im	Vu	Pwr	Sig	Ach	Temp	IERange	Over
	#	s	V	A	V	W	V	V	deg C	#	bits
	0	0.013333	8.43082E-001	-9.82050E-005	0.00000E+000	-8.27948E-005	-5.99601E-002	8.43404E-001	3.57810E+000	9	...........
	1	0.026667	8.29866E-001	-9.95084E-005	0.00000E+000	-8.25786E-005	-5.99601E-002	8.30168E-001	3.57810E+000	9	...........
	2	0.04	8.17230E-001	-9.73767E-005	0.00000E+000	-7.95791E-005	-5.99601E-002	8.17533E-001	3.57810E+000	9	...........
	3	0.053333	8.04993E-001	-9.91468E-005	0.00000E+000	-7.98125E-005	-5.99601E-002	8.05262E-001	3.57810E+000	9	...........
	4	0.066667	7.92992E-001	-9.83456E-005	0.00000E+000	-7.79873E-005	-5.99601E-002	7.93269E-001	3.57810E+000	9	...........
	5	0.08	7.81203E-001	-9.89134E-005	0.00000E+000	-7.72714E-005	-5.99601E-002	7.81455E-001	3.57810E+000	9	...........
	6	0.093333	7.69578E-001	-9.83331E-005	0.00000E+000	-7.56750E-005	-5.99601E-002	7.69836E-001	3.57810E+000	9	...........
	7	0.106667	7.58063E-001	-9.88614E-005	0.00000E+000	-7.49431E-005	-5.99601E-002	7.58324E-001	3.57810E+000	9	...........
	8	0.12	7.46681E-001	-9.86759E-005	0.00000E+000	-7.36794E-005	-5.99601E-002	7.46960E-001	3.57810E+000	9	...........
	9	0.133333	7.35388E-001	-9.84425E-005	0.00000E+000	-7.23935E-005	-5.99601E-002	7.35648E-001	3.57810E+000	9	...........
	10	0.146667	7.24214E-001	-9.91010E-005	0.00000E+000	-7.17703E-005	-5.99601E-002	7.24475E-001	3.57810E+000	9	...........
	11	0.16	7.13065E-001	-9.95417E-005	0.00000E+000	-7.09797E-005	-5.99601E-002	7.13350E-001	3.57810E+000	9	...........
	12	0.173333	7.02077E-001	-9.89260E-005	0.00000E+000	-6.94537E-005	-5.99601E-002	7.02362E-001	3.57810E+000	9	...........
	13	0.186667	6.91153E-001	-9.88051E-005	0.00000E+000	-6.82894E-005	-5.99601E-002	6.91403E-001	3.57810E+000	9	...........
	14	0.2	6.80279E-001	-9.68589E-005	0.00000E+000	-6.58911E-005	-5.99601E-002	6.80542E-001	3.57810E+000	9	...........
	15	0.213333	6.69468E-001	-9.90406E-005	0.00000E+000	-6.63044E-005	-5.99601E-002	6.69720E-001	3.57810E+000	9	...........
	16	0.226667	6.58682E-001	-9.87863E-005	0.00000E+000	-6.50688E-005	-5.99601E-002	6.58902E-001	3.57810E+000	9	...........
	17	0.24	6.47881E-001	-9.89749E-005	0.00000E+000	-6.41240E-005	-5.99601E-002	6.48103E-001	3.57810E+000	9	...........
	18	0.253333	6.36986E-001	-9.90489E-005	0.00000E+000	-6.30927E-005	-5.99601E-002	6.37251E-001	3.57810E+000	9	...........
	19	0.266667	6.26003E-001	-9.76257E-005	0.00000E+000	-6.11139E-005	-5.99601E-002	6.26263E-001	3.57810E+000	9	...........
	20	0.28	6.14847E-001	-9.97167E-005	0.00000E+000	-6.13106E-005	-5.99601E-002	6.15117E-001	3.57810E+000	9	...........
	21	0.293333	6.03489E-001	-9.74256E-005	0.00000E+000	-5.87953E-005	-5.99601E-002	6.03768E-001	3.57750E+000	9	...........
	22	0.306667	5.91964E-001	-9.88270E-005	0.00000E+000	-5.85020E-005	-5.99601E-002	5.92220E-001	3.57650E+000	9	...........
	23	0.32	5.80186E-001	-9.84321E-005	0.00000E+000	-5.71089E-005	-5.99601E-002	5.80441E-001	3.57650E+000	9	...........
	24	0.333333	5.68248E-001	-9.81570E-005	0.00000E+000	-5.57775E-005	-5.99601E-002	5.68493E-001	3.57650E+000	9	...........
	25	0.346667	5.56068E-001	-1.00192E-004	0.00000E+000	-5.57135E-005	-5.99601E-002	5.56325E-001	3.57650E+000	9	...........
	26	0.36	5.43732E-001	-9.72558E-005	0.00000E+000	-5.28811E-005	-5.99601E-002	5.43997E-001	3.57650E+000	9	...........
	27	0.373333	5.31214E-001	-9.90739E-005	0.00000E+000	-5.26294E-005	-5.99601E-002	5.31489E-001	3.57650E+000	9	...........
	28	0.386667	5.18569E-001	-9.92416E-005	0.00000E+000	-5.14637E-005	-5.99601E-002	5.18799E-001	3.57650E+000	9	...........
	29	0.4	5.05742E-001	-9.82268E-005	0.00000E+000	-4.96774E-005	-5.99601E-002	5.06000E-001	3.57650E+000	9	...........
	30	0.413333	4.92845E-001	-9.85592E-005	0.00000E+000	-4.85744E-005	-5.99601E-002	4.93070E-001	3.57650E+000	9	...........
	31	0.426667	4.80066E-001	-9.93198E-005	0.00000E+000	-4.76800E-005	-5.99601E-002	4.80166E-001	3.57650E+000	9	...........
	32	0.44	4.66974E-001	-9.92500E-005	0.00000E+000	-4.63472E-005	-5.99601E-002	4.67067E-001	3.57650E+000	9	...........
	33	0.453333	4.53762E-001	-9.75007E-005	0.00000E+000	-4.42421E-005	-5.99601E-002	4.53860E-001	3.57650E+000	9	...........
	34	0.466667	4.40483E-001	-9.84540E-005	0.00000E+000	-4.33673E-005	-5.99601E-002	4.40576E-001	3.57650E+000	9	...........
	35	0.48	4.27143E-001	-9.87447E-005	0.00000E+000	-4.21780E-005	-5.99601E-002	4.27237E-001	3.57650E+000	9	...........
	36	0.493333	4.13765E-001	-9.94386E-005	0.00000E+000	-4.11442E-005	-5.99601E-002	4.13854E-001	3.57650E+000	9	...........
	37	0.506667	4.00357E-001	-9.84779E-005	0.00000E+000	-3.94263E-005	-5.99601E-002	4.00439E-001	3.57650E+000	9	...........
	38	0.52	3.86937E-001	-9.75517E-005	0.00000E+000	-3.77464E-005	-5.99601E-002	3.87006E-001	3.57650E+000	9	...........
	39	0.533333	3.73499E-001	-9.80174E-005	0.00000E+000	-3.66094E-005	-5.99601E-002	3.73577E-001	3.57650E+000	9	...........
	40	0.546667	3.60081E-001	-9.84123E-005	0.00000E+000	-3.54364E-005	-5.99601E-002	3.60157E-001	3.57650E+000	9	...........
	41	0.56	3.46670E-001	-9.86061E-005	0.00000E+000	-3.41838E-005	-5.99601E-002	3.46741E-001	3.57650E+000	9	...........
	42	0.573333	3.33283E-001	-9.87645E-005	0.00000E+000	-3.29166E-005	-5.99601E-002	3.33349E-001	3.57650E+000	9	...........
	43	0.586667	3.19938E-001	-9.91375E-005	0.00000E+000	-3.17178E-005	-5.99601E-002	3.20005E-001	3.57650E+000	9	...........
	44	0.6	3.06636E-001	-9.98751E-005	0.00000E+000	-3.06253E-005	-5.99601E-002	3.06696E-001	3.57650E+000	9	...........
	45	0.613333	2.93370E-001	-9.94146E-005	0.00000E+000	-2.91653E-005	-5.99601E-002	2.93432E-001	3.57650E+000	9	...........
	46	0.626667	2.80169E-001	-9.90468E-005	0.00000E+000	-2.77498E-005	-5.99601E-002	2.80229E-001	3.57650E+000	9	...........
	47	0.64	2.67031E-001	-9.83144E-005	0.00000E+000	-2.62530E-005	-5.99601E-002	2.67088E-001	3.57650E+000	9	...........
	48	0.653333	2.53950E-001	-9.71975E-005	0.00000E+000	-2.46833E-005	-5.99601E-002	2.54006E-001	3.57650E+000	9	...........
	49	0.666667	2.40939E-001	-9.94792E-005	0.00000E+000	-2.39684E-005	-5.99601E-002	2.40987E-001	3.57650E+000	9	...........
	50	0.68	2.27997E-001	-9.81466E-005	0.00000E+000	-2.23771E-005	-5.99601E-002	2.28042E-001	3.57650E+000	9	...........
	51	0.693333	2.15121E-001	-9.89312E-005	0.00000E+000	-2.12821E-005	-5.99601E-002	2.15157E-001	3.57650E+000	9	...........
	52	0.706667	2.02304E-001	-9.85269E-005	0.00000E+000	-1.99324E-005	-5.99601E-002	2.02351E-001	3.57650E+000	9	...........
	53	0.72	1.89567E-001	-9.98136E-005	0.00000E+000	-1.89214E-005	-5.99601E-002	1.89606E-001	3.57650E+000	9	...........
	54	0.733333	1.76896E-001	-9.92239E-005	0.00000E+000	-1.75523E-005	-5.99601E-002	1.76934E-001	3.57650E+000	9	...........
	55	0.746667	1.64294E-001	-9.84029E-005	0.00000E+000	-1.61670E-005	-5.99601E-002	1.64327E-001	3.57650E+000	9	...........
	56	0.76	1.51745E-001	-1.00682E-004	0.00000E+000	-1.52779E-005	-5.99601E-002	1.51771E-001	3.57650E+000	9	...........
	57	0.773333	1.39281E-001	-9.91197E-005	0.00000E+000	-1.38055E-005	-5.99601E-002	1.39309E-001	3.57650E+000	9	...........
	58	0.786667	1.26881E-001	-9.99605E-005	0.00000E+000	-1.26831E-005	-5.99601E-002	1.26905E-001	3.57650E+000	9	...........
	59	0.8	1.14562E-001	-9.88176E-005	0.00000E+000	-1.13207E-005	-5.99601E-002	1.14587E-001	3.57650E+000	9	...........
	60	0.813333	1.02333E-001	-9.92969E-005	0.00000E+000	-1.01614E-005	-5.99601E-002	1.02353E-001	3.57650E+000	9	...........
	61	0.826667	9.02054E-002	-9.85123E-005	0.00000E+000	-8.88634E-006	-5.99601E-002	9.02207E-002	3.57650E+000	9	...........
	62	0.84	7.81818E-002	-9.94594E-005	0.00000E+000	-7.77591E-006	-5.99601E-002	7.81952E-002	3.57650E+000	9	...........
	63	0.853333	6.62722E-002	-9.76830E-005	0.00000E+000	-6.47367E-006	-5.99601E-002	6.62782E-002	3.57650E+000	9	...........
	64	0.866667	5.44798E-002	-9.90166E-005	0.00000E+000	-5.39440E-006	-5.99601E-002	5.44911E-002	3.57650E+000	9	...........
	65	0.88	4.28718E-002	-9.94657E-005	0.00000E+000	-4.26427E-006	-5.99601E-002	4.28776E-002	3.57650E+000	9	...........
	66	0.893333	3.13811E-002	-9.81477E-005	0.00000E+000	-3.07998E-006	-5.99601E-002	3.13789E-002	3.57650E+000	9	...........
	67	0.906667	2.00384E-002	-9.86009E-005	0.00000E+000	-1.97581E-006	-5.99601E-002	2.00299E-002	3.57650E+000	9	...........
	68	0.92	8.85854E-003	-9.89926E-005	0.00000E+000	-8.76930E-007	-5.99601E-002	8.84633E-003	3.57650E+000	9	...........
	69	0.925	1.27187E-003	-9.87909E-005	0.00000E+000	-1.25649E-007	-5.99601E-002	1.26005E-003	3.57650E+000	9	...........
STARTTIMEOFFSET	QUANT	1380.012	Start Time Offset (s)
