EXPLAIN
TAG	PWR800_DISCHARGE
TITLE	LABEL	PWR Cyclic Charge Discharge (Cell) - Discharge Step	Test &Identifier
DATE	LABEL	12-7-2017	Date
TIME	LABEL	16:16:56	Time
NOTES	NOTES	2	&Notes...
	supercap test cell
	6M KOH
PSTAT	PSTAT	IFC5000-01520	Potentiostat
CAPACITY	QUANT	1.00000E-003	Capacity (A-hr)
CELLTYPE	SELECTOR	1	&Cell Type
WORKINGCONNECTION	SELECTOR	0	&Working Lead
MAXDISCHARGETIME	VARIABLEANDUNITS	1.00000E+002	s	1.00000E+002	second(s)	Max &Discharge Time
DISCHARGEMODE	MULTIPARAM	0	1.00000E-004	&Discharge Mode	Constant Current	Amp(s)
SAMPLETIME	QUANT	1.00000E-002	Sa&mple Period (s)
DISCHARGESTOPAT1	MULTIPARAM	3	0.00000E+000	Discharge Stop At &1	Voltage < Limit	V
DISCHARGESTOPAT2	MULTIPARAM	0	0.00000E+000	Discharge Stop At &2	None	N/A
AESBHCSELECTOR	TOGGLE	F	Save Both Half Cells
IRCOMP	TOGGLE	F	IR &Measure
EOC	QUANT	0	Open Circuit (V)
SEQUENCER	TOGGLE	TRUE	Run as Sequence
PSTATMODEL	IQUANT	53	Pstat Model
PSTATSECTION	LABEL	IFC5000-01520	Pstat Section
PSTATSERIALNO	LABEL	01520	Pstat Serial Number
CTRLMODE	IQUANT	0	Control Mode
ELECTROMETER	IQUANT	1	RE=0 or CS=1
IESTAB	IQUANT	0	I/E Stability
CASPEED	IQUANT	4	Control Amp Speed
CONVENTION	IQUANT	1	Current Convention
ICHRANGE	IQUANT	2	Ich Range
ICHRANGEMODE	TOGGLE	T	Ich Auto Range
ICHOFFSETENABLE	TOGGLE	F	Ich Offset Enable
ICHOFFSET	QUANT	0	Ich Offset (V)
ICHFILTER	IQUANT	1	Ich Filter
VCHRANGE	IQUANT	2	Vch Range
VCHRANGEMODE	TOGGLE	T	Vch Auto Range
VCHOFFSETENABLE	TOGGLE	F	Vch Offset Enable
VCHOFFSET	QUANT	0	Vch Offset (V)
VCHFILTER	IQUANT	1	Vch Filter
IERANGELOWERLIMIT	IQUANT	9	I/E Range Lower Limit
IERANGEMODE	TOGGLE	F	I/E AutoRange
IERANGE	IQUANT	9	I/E Range
ACHSELECT	IQUANT	1	Ach Select
ACHRANGE	IQUANT	2	Ach Range
ACHOFFSETENABLE	TOGGLE	F	Ach Offset Enable
ACHOFFSET	QUANT	0	Ach Offset (V)
ACHFILTER	IQUANT	1	Ach Filter
CABLEID	IQUANT	14	Cable ID
DCCALDATE	LABEL	5-7-2017	DC Calibration Date
ACCALDATE	LABEL	12/3/2015	AC Calibration Date
FRAMEWORKVERSION	QUANT	7.01	Framework Version
INSTRUMENTVERSION	LABEL	4.00	Instrument Version
CURVE	TABLE	72
	Pt	T	Vf	Im	Vu	Pwr	Sig	Ach	Temp	IERange	Over
	#	s	V	A	V	W	V	V	deg C	#	bits
	0	0.013333	8.43153E-001	-9.93729E-005	0.00000E+000	-8.37866E-005	-5.99601E-002	8.43458E-001	3.57750E+000	9	...........
	1	0.026667	8.30232E-001	-9.88978E-005	0.00000E+000	-8.21081E-005	-5.99601E-002	8.30510E-001	3.57750E+000	9	...........
	2	0.04	8.17872E-001	-9.92312E-005	0.00000E+000	-8.11585E-005	-5.99601E-002	8.18146E-001	3.57750E+000	9	...........
	3	0.053333	8.05894E-001	-9.92479E-005	0.00000E+000	-7.99833E-005	-5.99601E-002	8.06175E-001	3.57750E+000	9	...........
	4	0.066667	7.94217E-001	-9.94292E-005	0.00000E+000	-7.89684E-005	-5.99601E-002	7.94499E-001	3.57750E+000	9	...........
	5	0.08	7.82701E-001	-9.86582E-005	0.00000E+000	-7.72198E-005	-5.99601E-002	7.83001E-001	3.57750E+000	9	...........
	6	0.093333	7.71378E-001	-9.86874E-005	0.00000E+000	-7.61252E-005	-5.99601E-002	7.71692E-001	3.57710E+000	9	...........
	7	0.106667	7.60209E-001	-9.92510E-005	0.00000E+000	-7.54515E-005	-5.99601E-002	7.60485E-001	3.57710E+000	9	...........
	8	0.12	7.49111E-001	-9.87405E-005	0.00000E+000	-7.39676E-005	-5.99601E-002	7.49400E-001	3.57710E+000	9	...........
	9	0.133333	7.38107E-001	-9.89145E-005	0.00000E+000	-7.30094E-005	-5.99601E-002	7.38396E-001	3.57710E+000	9	...........
	10	0.146667	7.27149E-001	-9.96219E-005	0.00000E+000	-7.24400E-005	-5.99601E-002	7.27441E-001	3.57710E+000	9	...........
	11	0.16	7.16180E-001	-9.85821E-005	0.00000E+000	-7.06025E-005	-5.99601E-002	7.16480E-001	3.57710E+000	9	...........
	12	0.173333	7.05197E-001	-9.83550E-005	0.00000E+000	-6.93597E-005	-5.99601E-002	7.05478E-001	3.57710E+000	9	...........
	13	0.186667	6.94102E-001	-9.90822E-005	0.00000E+000	-6.87732E-005	-5.99601E-002	6.94392E-001	3.57710E+000	9	...........
	14	0.2	6.82914E-001	-9.89374E-005	0.00000E+000	-6.75657E-005	-5.99601E-002	6.83209E-001	3.57710E+000	9	...........
	15	0.213333	6.71608E-001	-9.84800E-005	0.00000E+000	-6.61400E-005	-5.99601E-002	6.71874E-001	3.57710E+000	9	...........
	16	0.226667	6.60133E-001	-9.95771E-005	0.00000E+000	-6.57341E-005	-5.99601E-002	6.60422E-001	3.57710E+000	9	...........
	17	0.24	6.48549E-001	-9.86384E-005	0.00000E+000	-6.39718E-005	-5.99601E-002	6.48849E-001	3.57710E+000	9	...........
	18	0.253333	6.36844E-001	-9.85686E-005	0.00000E+000	-6.27728E-005	-5.99601E-002	6.37137E-001	3.57710E+000	9	...........
	19	0.266667	6.25020E-001	-9.86707E-005	0.00000E+000	-6.16711E-005	-5.99601E-002	6.25289E-001	3.57710E+000	9	...........
	20	0.28	6.13073E-001	-9.86332E-005	0.00000E+000	-6.04693E-005	-5.99601E-002	6.13356E-001	3.57710E+000	9	...........
	21	0.293333	6.01060E-001	-9.98678E-005	0.00000E+000	-6.00265E-005	-5.99601E-002	6.01343E-001	3.57710E+000	9	...........
	22	0.306667	5.88973E-001	-9.86884E-005	0.00000E+000	-5.81248E-005	-5.99601E-002	5.89263E-001	3.57710E+000	9	...........
	23	0.32	5.76823E-001	-9.83258E-005	0.00000E+000	-5.67166E-005	-5.99601E-002	5.77093E-001	3.57710E+000	9	...........
	24	0.333333	5.64610E-001	-9.87051E-005	0.00000E+000	-5.57299E-005	-5.99601E-002	5.64867E-001	3.57710E+000	9	...........
	25	0.346667	5.52334E-001	-9.87603E-005	0.00000E+000	-5.45487E-005	-5.99601E-002	5.52559E-001	3.57710E+000	9	...........
	26	0.36	5.40007E-001	-9.87530E-005	0.00000E+000	-5.33273E-005	-5.99601E-002	5.40250E-001	3.57710E+000	9	...........
	27	0.373333	5.27645E-001	-9.91406E-005	0.00000E+000	-5.23111E-005	-5.99601E-002	5.27890E-001	3.57710E+000	9	...........
	28	0.386667	5.15284E-001	-9.91052E-005	0.00000E+000	-5.10673E-005	-5.99601E-002	5.15530E-001	3.57710E+000	9	...........
	29	0.4	5.02871E-001	-9.93917E-005	0.00000E+000	-4.99812E-005	-5.99601E-002	5.03128E-001	3.57710E+000	9	...........
	30	0.413333	4.90490E-001	-9.83748E-005	0.00000E+000	-4.82519E-005	-5.99601E-002	4.90734E-001	3.57710E+000	9	...........
	31	0.426667	4.78412E-001	-9.85717E-005	0.00000E+000	-4.71579E-005	-5.99601E-002	4.78488E-001	3.57710E+000	9	...........
	32	0.44	4.66002E-001	-9.84529E-005	0.00000E+000	-4.58792E-005	-5.99601E-002	4.66112E-001	3.57710E+000	9	...........
	33	0.453333	4.53613E-001	-9.87801E-005	0.00000E+000	-4.48079E-005	-5.99601E-002	4.53712E-001	3.57710E+000	9	...........
	34	0.466667	4.41225E-001	-9.89801E-005	0.00000E+000	-4.36725E-005	-5.99601E-002	4.41326E-001	3.57710E+000	9	...........
	35	0.48	4.28855E-001	-9.87540E-005	0.00000E+000	-4.23512E-005	-5.99601E-002	4.28952E-001	3.57710E+000	9	...........
	36	0.493333	4.16505E-001	-9.78539E-005	0.00000E+000	-4.07566E-005	-5.99601E-002	4.16592E-001	3.57710E+000	9	...........
	37	0.506667	4.04165E-001	-9.81737E-005	0.00000E+000	-3.96784E-005	-5.99601E-002	4.04253E-001	3.57710E+000	9	...........
	38	0.52	3.91849E-001	-9.84092E-005	0.00000E+000	-3.85616E-005	-5.99601E-002	3.91936E-001	3.57710E+000	9	...........
	39	0.533333	3.79559E-001	-9.87728E-005	0.00000E+000	-3.74901E-005	-5.99601E-002	3.79643E-001	3.57710E+000	9	...........
	40	0.546667	3.67286E-001	-9.86540E-005	0.00000E+000	-3.62342E-005	-5.99601E-002	3.67360E-001	3.57710E+000	9	...........
	41	0.56	3.55035E-001	-9.88562E-005	0.00000E+000	-3.50974E-005	-5.99601E-002	3.55113E-001	3.57710E+000	9	...........
	42	0.573333	3.42807E-001	-9.90666E-005	0.00000E+000	-3.39607E-005	-5.99601E-002	3.42885E-001	3.57710E+000	9	...........
	43	0.586667	3.30597E-001	-9.89676E-005	0.00000E+000	-3.27184E-005	-5.99601E-002	3.30668E-001	3.57710E+000	9	...........
	44	0.6	3.18407E-001	-9.87363E-005	0.00000E+000	-3.14384E-005	-5.99601E-002	3.18479E-001	3.57710E+000	9	...........
	45	0.613333	3.06237E-001	-9.90687E-005	0.00000E+000	-3.03385E-005	-5.99601E-002	3.06305E-001	3.57710E+000	9	...........
	46	0.626667	2.94083E-001	-9.89405E-005	0.00000E+000	-2.90967E-005	-5.99601E-002	2.94142E-001	3.57710E+000	9	...........
	47	0.64	2.81924E-001	-9.86644E-005	0.00000E+000	-2.78159E-005	-5.99601E-002	2.81986E-001	3.57710E+000	9	...........
	48	0.653333	2.69768E-001	-9.88718E-005	0.00000E+000	-2.66725E-005	-5.99601E-002	2.69834E-001	3.57710E+000	9	...........
	49	0.666667	2.57622E-001	-9.85467E-005	0.00000E+000	-2.53878E-005	-5.99601E-002	2.57680E-001	3.57710E+000	9	...........
	50	0.68	2.45471E-001	-9.90301E-005	0.00000E+000	-2.43090E-005	-5.99601E-002	2.45529E-001	3.57710E+000	9	...........
	51	0.693333	2.33327E-001	-9.84561E-005	0.00000E+000	-2.29725E-005	-5.99601E-002	2.33380E-001	3.57710E+000	9	...........
	52	0.706667	2.21186E-001	-9.90572E-005	0.00000E+000	-2.19100E-005	-5.99601E-002	2.21233E-001	3.57710E+000	9	...........
	53	0.72	2.09042E-001	-9.95855E-005	0.00000E+000	-2.08175E-005	-5.99601E-002	2.09086E-001	3.57710E+000	9	...........
	54	0.733333	1.96904E-001	-9.94031E-005	0.00000E+000	-1.95729E-005	-5.99601E-002	1.96941E-001	3.57710E+000	9	...........
	55	0.746667	1.84787E-001	-9.89978E-005	0.00000E+000	-1.82936E-005	-5.99601E-002	1.84822E-001	3.57710E+000	9	...........
	56	0.76	1.72681E-001	-9.92343E-005	0.00000E+000	-1.71358E-005	-5.99601E-002	1.72714E-001	3.57710E+000	9	...........
	57	0.773333	1.60598E-001	-9.90520E-005	0.00000E+000	-1.59076E-005	-5.99601E-002	1.60624E-001	3.57710E+000	9	...........
	58	0.786667	1.48535E-001	-9.85717E-005	0.00000E+000	-1.46414E-005	-5.99601E-002	1.48564E-001	3.57710E+000	9	...........
	59	0.8	1.36508E-001	-9.82727E-005	0.00000E+000	-1.34150E-005	-5.99601E-002	1.36533E-001	3.57710E+000	9	...........
	60	0.813333	1.24509E-001	-9.88614E-005	0.00000E+000	-1.23092E-005	-5.99601E-002	1.24539E-001	3.57710E+000	9	...........
	61	0.826667	1.12566E-001	-9.89416E-005	0.00000E+000	-1.11375E-005	-5.99601E-002	1.12591E-001	3.57710E+000	9	...........
	62	0.84	1.00672E-001	-9.86363E-005	0.00000E+000	-9.92987E-006	-5.99601E-002	1.00689E-001	3.57710E+000	9	...........
	63	0.853333	8.88308E-002	-9.85373E-005	0.00000E+000	-8.75315E-006	-5.99601E-002	8.88486E-002	3.57710E+000	9	...........
	64	0.866667	7.70710E-002	-9.88739E-005	0.00000E+000	-7.62031E-006	-5.99601E-002	7.70819E-002	3.57710E+000	9	...........
	65	0.88	6.53931E-002	-9.84654E-005	0.00000E+000	-6.43896E-006	-5.99601E-002	6.54086E-002	3.57710E+000	9	...........
	66	0.893333	5.38146E-002	-9.85821E-005	0.00000E+000	-5.30516E-006	-5.99601E-002	5.38204E-002	3.57710E+000	9	...........
	67	0.906667	4.23756E-002	-9.83831E-005	0.00000E+000	-4.16905E-006	-5.99601E-002	4.23794E-002	3.57710E+000	9	...........
	68	0.92	3.10255E-002	-9.90739E-005	0.00000E+000	-3.07382E-006	-5.99601E-002	3.10158E-002	3.57710E+000	9	...........
	69	0.933333	1.97956E-002	-9.89833E-005	0.00000E+000	-1.95944E-006	-5.99601E-002	1.97897E-002	3.57710E+000	9	...........
	70	0.946667	8.70355E-003	-9.79831E-005	0.00000E+000	-8.52800E-007	-5.99601E-002	8.69042E-003	3.57710E+000	9	...........
	71	0.95167	1.15854E-003	-9.79351E-005	0.00000E+000	-1.13462E-007	-5.99601E-002	1.13512E-003	3.57710E+000	9	...........
STARTTIMEOFFSET	QUANT	293.9017	Start Time Offset (s)
