EXPLAIN
TAG	PWR800_DISCHARGE
TITLE	LABEL	PWR Cyclic Charge Discharge (Cell) - Discharge Step	Test &Identifier
DATE	LABEL	12-7-2017	Date
TIME	LABEL	16:54:17	Time
NOTES	NOTES	2	&Notes...
	supercap test cell
	6M KOH
PSTAT	PSTAT	IFC5000-01520	Potentiostat
CAPACITY	QUANT	1.00000E-003	Capacity (A-hr)
CELLTYPE	SELECTOR	1	&Cell Type
WORKINGCONNECTION	SELECTOR	0	&Working Lead
MAXDISCHARGETIME	VARIABLEANDUNITS	1.00000E+002	s	1.00000E+002	second(s)	Max &Discharge Time
DISCHARGEMODE	MULTIPARAM	0	1.00000E-004	&Discharge Mode	Constant Current	Amp(s)
SAMPLETIME	QUANT	1.00000E-002	Sa&mple Period (s)
DISCHARGESTOPAT1	MULTIPARAM	3	0.00000E+000	Discharge Stop At &1	Voltage < Limit	V
DISCHARGESTOPAT2	MULTIPARAM	0	0.00000E+000	Discharge Stop At &2	None	N/A
AESBHCSELECTOR	TOGGLE	F	Save Both Half Cells
IRCOMP	TOGGLE	F	IR &Measure
EOC	QUANT	0	Open Circuit (V)
SEQUENCER	TOGGLE	TRUE	Run as Sequence
PSTATMODEL	IQUANT	53	Pstat Model
PSTATSECTION	LABEL	IFC5000-01520	Pstat Section
PSTATSERIALNO	LABEL	01520	Pstat Serial Number
CTRLMODE	IQUANT	0	Control Mode
ELECTROMETER	IQUANT	1	RE=0 or CS=1
IESTAB	IQUANT	0	I/E Stability
CASPEED	IQUANT	4	Control Amp Speed
CONVENTION	IQUANT	1	Current Convention
ICHRANGE	IQUANT	2	Ich Range
ICHRANGEMODE	TOGGLE	T	Ich Auto Range
ICHOFFSETENABLE	TOGGLE	F	Ich Offset Enable
ICHOFFSET	QUANT	0	Ich Offset (V)
ICHFILTER	IQUANT	1	Ich Filter
VCHRANGE	IQUANT	2	Vch Range
VCHRANGEMODE	TOGGLE	T	Vch Auto Range
VCHOFFSETENABLE	TOGGLE	F	Vch Offset Enable
VCHOFFSET	QUANT	0	Vch Offset (V)
VCHFILTER	IQUANT	1	Vch Filter
IERANGELOWERLIMIT	IQUANT	9	I/E Range Lower Limit
IERANGEMODE	TOGGLE	F	I/E AutoRange
IERANGE	IQUANT	9	I/E Range
ACHSELECT	IQUANT	1	Ach Select
ACHRANGE	IQUANT	2	Ach Range
ACHOFFSETENABLE	TOGGLE	F	Ach Offset Enable
ACHOFFSET	QUANT	0	Ach Offset (V)
ACHFILTER	IQUANT	1	Ach Filter
CABLEID	IQUANT	14	Cable ID
DCCALDATE	LABEL	5-7-2017	DC Calibration Date
ACCALDATE	LABEL	12/3/2015	AC Calibration Date
FRAMEWORKVERSION	QUANT	7.01	Framework Version
INSTRUMENTVERSION	LABEL	4.00	Instrument Version
CURVE	TABLE	70
	Pt	T	Vf	Im	Vu	Pwr	Sig	Ach	Temp	IERange	Over
	#	s	V	A	V	W	V	V	deg C	#	bits
	0	0.013333	8.45095E-001	-9.91708E-005	0.00000E+000	-8.38087E-005	-5.99601E-002	8.45434E-001	3.57680E+000	9	...........
	1	0.026667	8.31875E-001	-9.85113E-005	0.00000E+000	-8.19491E-005	-5.99601E-002	8.32210E-001	3.57680E+000	9	...........
	2	0.04	8.19235E-001	-9.93042E-005	0.00000E+000	-8.13535E-005	-5.99601E-002	8.19565E-001	3.57680E+000	9	...........
	3	0.053333	8.06942E-001	-9.84081E-005	0.00000E+000	-7.94097E-005	-5.99601E-002	8.07260E-001	3.57680E+000	9	...........
	4	0.066667	7.94934E-001	-9.90895E-005	0.00000E+000	-7.87696E-005	-5.99601E-002	7.95227E-001	3.57680E+000	9	...........
	5	0.08	7.83087E-001	-9.91552E-005	0.00000E+000	-7.76471E-005	-5.99601E-002	7.83377E-001	3.57680E+000	9	...........
	6	0.093333	7.71429E-001	-9.96011E-005	0.00000E+000	-7.68352E-005	-5.99601E-002	7.71716E-001	3.57680E+000	9	...........
	7	0.106667	7.59891E-001	-9.88957E-005	0.00000E+000	-7.51500E-005	-5.99601E-002	7.60142E-001	3.57680E+000	9	...........
	8	0.12	7.48437E-001	-9.92031E-005	0.00000E+000	-7.42472E-005	-5.99601E-002	7.48699E-001	3.57680E+000	9	...........
	9	0.133333	7.37066E-001	-9.90739E-005	0.00000E+000	-7.30240E-005	-5.99601E-002	7.37330E-001	3.57680E+000	9	...........
	10	0.146667	7.25836E-001	-9.89322E-005	0.00000E+000	-7.18086E-005	-5.99601E-002	7.26069E-001	3.57680E+000	9	...........
	11	0.16	7.14646E-001	-9.97417E-005	0.00000E+000	-7.12800E-005	-5.99601E-002	7.14883E-001	3.57680E+000	9	...........
	12	0.173333	7.03526E-001	-9.83404E-005	0.00000E+000	-6.91851E-005	-5.99601E-002	7.03771E-001	3.57680E+000	9	...........
	13	0.186667	6.92537E-001	-9.84363E-005	0.00000E+000	-6.81708E-005	-5.99601E-002	6.92752E-001	3.57680E+000	9	...........
	14	0.2	6.81601E-001	-9.98116E-005	0.00000E+000	-6.80316E-005	-5.99601E-002	6.81824E-001	3.57680E+000	9	...........
	15	0.213333	6.70728E-001	-1.00324E-004	0.00000E+000	-6.72902E-005	-5.99601E-002	6.70962E-001	3.57680E+000	9	...........
	16	0.226667	6.59889E-001	-9.96199E-005	0.00000E+000	-6.57381E-005	-5.99601E-002	6.60127E-001	3.57680E+000	9	...........
	17	0.24	6.49103E-001	-9.79601E-005	0.00000E+000	-6.35862E-005	-5.99601E-002	6.49314E-001	3.57680E+000	9	...........
	18	0.253333	6.38310E-001	-9.80237E-005	0.00000E+000	-6.25695E-005	-5.99601E-002	6.38516E-001	3.57680E+000	9	...........
	19	0.266667	6.27432E-001	-9.81008E-005	0.00000E+000	-6.15516E-005	-5.99601E-002	6.27628E-001	3.57680E+000	9	...........
	20	0.28	6.16419E-001	-9.99210E-005	0.00000E+000	-6.15932E-005	-5.99601E-002	6.16628E-001	3.57680E+000	9	...........
	21	0.293333	6.05216E-001	-9.96521E-005	0.00000E+000	-6.03111E-005	-5.99601E-002	6.05427E-001	3.57680E+000	9	...........
	22	0.306667	5.93881E-001	-9.79997E-005	0.00000E+000	-5.82002E-005	-5.99601E-002	5.94062E-001	3.57680E+000	9	...........
	23	0.32	5.82273E-001	-9.77455E-005	0.00000E+000	-5.69146E-005	-5.99601E-002	5.82482E-001	3.57680E+000	9	...........
	24	0.333333	5.70491E-001	-9.80695E-005	0.00000E+000	-5.59478E-005	-5.99601E-002	5.70697E-001	3.57680E+000	9	...........
	25	0.346667	5.58440E-001	-9.79508E-005	0.00000E+000	-5.46996E-005	-5.99601E-002	5.58649E-001	3.57680E+000	9	...........
	26	0.36	5.46263E-001	-9.99918E-005	0.00000E+000	-5.46218E-005	-5.99601E-002	5.46434E-001	3.57680E+000	9	...........
	27	0.373333	5.33825E-001	-9.98272E-005	0.00000E+000	-5.32902E-005	-5.99601E-002	5.34036E-001	3.57680E+000	9	...........
	28	0.386667	5.21257E-001	-9.79257E-005	0.00000E+000	-5.10444E-005	-5.99601E-002	5.21470E-001	3.57680E+000	9	...........
	29	0.4	5.08489E-001	-9.93406E-005	0.00000E+000	-5.05136E-005	-5.99601E-002	5.08729E-001	3.57680E+000	9	...........
	30	0.413333	4.95632E-001	-9.72787E-005	0.00000E+000	-4.82145E-005	-5.99601E-002	4.95856E-001	3.57680E+000	9	...........
	31	0.426667	4.82834E-001	-9.84748E-005	0.00000E+000	-4.75470E-005	-5.99601E-002	4.82955E-001	3.57680E+000	9	...........
	32	0.44	4.69833E-001	-9.97167E-005	0.00000E+000	-4.68502E-005	-5.99601E-002	4.69931E-001	3.57680E+000	9	...........
	33	0.453333	4.56623E-001	-9.86134E-005	0.00000E+000	-4.50292E-005	-5.99601E-002	4.56722E-001	3.57680E+000	9	...........
	34	0.466667	4.43325E-001	-9.81716E-005	0.00000E+000	-4.35220E-005	-5.99601E-002	4.43422E-001	3.57680E+000	9	...........
	35	0.48	4.29965E-001	-9.84977E-005	0.00000E+000	-4.23506E-005	-5.99601E-002	4.30052E-001	3.57680E+000	9	...........
	36	0.493333	4.16547E-001	-9.78372E-005	0.00000E+000	-4.07538E-005	-5.99601E-002	4.16638E-001	3.57680E+000	9	...........
	37	0.506667	4.03104E-001	-9.88541E-005	0.00000E+000	-3.98485E-005	-5.99601E-002	4.03187E-001	3.57680E+000	9	...........
	38	0.52	3.89628E-001	-9.92896E-005	0.00000E+000	-3.86860E-005	-5.99601E-002	3.89702E-001	3.57680E+000	9	...........
	39	0.533333	3.76135E-001	-9.84446E-005	0.00000E+000	-3.70285E-005	-5.99601E-002	3.76211E-001	3.57680E+000	9	...........
	40	0.546667	3.62642E-001	-9.86874E-005	0.00000E+000	-3.57881E-005	-5.99601E-002	3.62714E-001	3.57680E+000	9	...........
	41	0.56	3.49158E-001	-9.75757E-005	0.00000E+000	-3.40693E-005	-5.99601E-002	3.49227E-001	3.57680E+000	9	...........
	42	0.573333	3.35690E-001	-9.89676E-005	0.00000E+000	-3.32224E-005	-5.99601E-002	3.35755E-001	3.57680E+000	9	...........
	43	0.586667	3.22261E-001	-9.71787E-005	0.00000E+000	-3.13169E-005	-5.99601E-002	3.22322E-001	3.57680E+000	9	...........
	44	0.6	3.08854E-001	-9.94604E-005	0.00000E+000	-3.07188E-005	-5.99601E-002	3.08917E-001	3.57680E+000	9	...........
	45	0.613333	2.95502E-001	-9.90801E-005	0.00000E+000	-2.92784E-005	-5.99601E-002	2.95554E-001	3.57680E+000	9	...........
	46	0.626667	2.82200E-001	-9.90291E-005	0.00000E+000	-2.79460E-005	-5.99601E-002	2.82258E-001	3.57680E+000	9	...........
	47	0.64	2.68960E-001	-9.76674E-005	0.00000E+000	-2.62686E-005	-5.99601E-002	2.69020E-001	3.57680E+000	9	...........
	48	0.653333	2.55786E-001	-9.96657E-005	0.00000E+000	-2.54931E-005	-5.99601E-002	2.55838E-001	3.57680E+000	9	...........
	49	0.666667	2.42688E-001	-9.91010E-005	0.00000E+000	-2.40506E-005	-5.99601E-002	2.42735E-001	3.57680E+000	9	...........
	50	0.68	2.29658E-001	-9.96282E-005	0.00000E+000	-2.28804E-005	-5.99601E-002	2.29700E-001	3.57680E+000	9	...........
	51	0.693333	2.16700E-001	-9.85040E-005	0.00000E+000	-2.13458E-005	-5.99601E-002	2.16749E-001	3.57680E+000	9	...........
	52	0.706667	2.03824E-001	-9.89259E-005	0.00000E+000	-2.01635E-005	-5.99601E-002	2.03867E-001	3.57759E+000	9	...........
	53	0.72	1.91039E-001	-9.94688E-005	0.00000E+000	-1.90024E-005	-5.99601E-002	1.91075E-001	3.57770E+000	9	...........
	54	0.733333	1.78319E-001	-9.95521E-005	0.00000E+000	-1.77520E-005	-5.99601E-002	1.78357E-001	3.57770E+000	9	...........
	55	0.746667	1.65688E-001	-9.95313E-005	0.00000E+000	-1.64911E-005	-5.99601E-002	1.65717E-001	3.57770E+000	9	...........
	56	0.76	1.53137E-001	-9.83748E-005	0.00000E+000	-1.50648E-005	-5.99601E-002	1.53159E-001	3.57770E+000	9	...........
	57	0.773333	1.40656E-001	-9.90947E-005	0.00000E+000	-1.39383E-005	-5.99601E-002	1.40679E-001	3.57770E+000	9	...........
	58	0.786667	1.28249E-001	-9.91333E-005	0.00000E+000	-1.27138E-005	-5.99601E-002	1.28274E-001	3.57770E+000	9	...........
	59	0.8	1.15936E-001	-9.74246E-005	0.00000E+000	-1.12950E-005	-5.99601E-002	1.15956E-001	3.57770E+000	9	...........
	60	0.813333	1.03709E-001	-9.68297E-005	0.00000E+000	-1.00421E-005	-5.99601E-002	1.03732E-001	3.57770E+000	9	...........
	61	0.826667	9.15881E-002	-9.90051E-005	0.00000E+000	-9.06769E-006	-5.99601E-002	9.16011E-002	3.57770E+000	9	...........
	62	0.84	7.95766E-002	-9.84279E-005	0.00000E+000	-7.83256E-006	-5.99601E-002	7.95853E-002	3.57770E+000	9	...........
	63	0.853333	6.76813E-002	-9.88780E-005	0.00000E+000	-6.69219E-006	-5.99601E-002	6.76920E-002	3.57770E+000	9	...........
	64	0.866667	5.59165E-002	-9.92573E-005	0.00000E+000	-5.55012E-006	-5.99601E-002	5.59256E-002	3.57770E+000	9	...........
	65	0.88	4.43212E-002	-1.00682E-004	0.00000E+000	-4.46233E-006	-5.99601E-002	4.43263E-002	3.57770E+000	9	...........
	66	0.893333	3.28578E-002	-9.89572E-005	0.00000E+000	-3.25152E-006	-5.99601E-002	3.28551E-002	3.57770E+000	9	...........
	67	0.906667	2.15521E-002	-9.79799E-005	0.00000E+000	-2.11168E-006	-5.99601E-002	2.15429E-002	3.57770E+000	9	...........
	68	0.92	1.04018E-002	-9.88051E-005	0.00000E+000	-1.02775E-006	-5.99601E-002	1.03850E-002	3.57770E+000	9	...........
	69	0.928333	1.48182E-003	-9.78551E-005	0.00000E+000	-1.45004E-007	-5.99601E-002	1.46269E-003	3.57770E+000	9	...........
STARTTIMEOFFSET	QUANT	1885.258	Start Time Offset (s)
