EXPLAIN
TAG	PWR800_DISCHARGE
TITLE	LABEL	PWR Cyclic Charge Discharge (Cell) - Discharge Step	Test &Identifier
DATE	LABEL	12-7-2017	Date
TIME	LABEL	16:51:24	Time
NOTES	NOTES	2	&Notes...
	supercap test cell
	6M KOH
PSTAT	PSTAT	IFC5000-01520	Potentiostat
CAPACITY	QUANT	1.00000E-003	Capacity (A-hr)
CELLTYPE	SELECTOR	1	&Cell Type
WORKINGCONNECTION	SELECTOR	0	&Working Lead
MAXDISCHARGETIME	VARIABLEANDUNITS	1.00000E+002	s	1.00000E+002	second(s)	Max &Discharge Time
DISCHARGEMODE	MULTIPARAM	0	1.00000E-004	&Discharge Mode	Constant Current	Amp(s)
SAMPLETIME	QUANT	1.00000E-002	Sa&mple Period (s)
DISCHARGESTOPAT1	MULTIPARAM	3	0.00000E+000	Discharge Stop At &1	Voltage < Limit	V
DISCHARGESTOPAT2	MULTIPARAM	0	0.00000E+000	Discharge Stop At &2	None	N/A
AESBHCSELECTOR	TOGGLE	F	Save Both Half Cells
IRCOMP	TOGGLE	F	IR &Measure
EOC	QUANT	0	Open Circuit (V)
SEQUENCER	TOGGLE	TRUE	Run as Sequence
PSTATMODEL	IQUANT	53	Pstat Model
PSTATSECTION	LABEL	IFC5000-01520	Pstat Section
PSTATSERIALNO	LABEL	01520	Pstat Serial Number
CTRLMODE	IQUANT	0	Control Mode
ELECTROMETER	IQUANT	1	RE=0 or CS=1
IESTAB	IQUANT	0	I/E Stability
CASPEED	IQUANT	4	Control Amp Speed
CONVENTION	IQUANT	1	Current Convention
ICHRANGE	IQUANT	2	Ich Range
ICHRANGEMODE	TOGGLE	T	Ich Auto Range
ICHOFFSETENABLE	TOGGLE	F	Ich Offset Enable
ICHOFFSET	QUANT	0	Ich Offset (V)
ICHFILTER	IQUANT	1	Ich Filter
VCHRANGE	IQUANT	2	Vch Range
VCHRANGEMODE	TOGGLE	T	Vch Auto Range
VCHOFFSETENABLE	TOGGLE	F	Vch Offset Enable
VCHOFFSET	QUANT	0	Vch Offset (V)
VCHFILTER	IQUANT	1	Vch Filter
IERANGELOWERLIMIT	IQUANT	9	I/E Range Lower Limit
IERANGEMODE	TOGGLE	F	I/E AutoRange
IERANGE	IQUANT	9	I/E Range
ACHSELECT	IQUANT	1	Ach Select
ACHRANGE	IQUANT	2	Ach Range
ACHOFFSETENABLE	TOGGLE	F	Ach Offset Enable
ACHOFFSET	QUANT	0	Ach Offset (V)
ACHFILTER	IQUANT	1	Ach Filter
CABLEID	IQUANT	14	Cable ID
DCCALDATE	LABEL	5-7-2017	DC Calibration Date
ACCALDATE	LABEL	12/3/2015	AC Calibration Date
FRAMEWORKVERSION	QUANT	7.01	Framework Version
INSTRUMENTVERSION	LABEL	4.00	Instrument Version
CURVE	TABLE	70
	Pt	T	Vf	Im	Vu	Pwr	Sig	Ach	Temp	IERange	Over
	#	s	V	A	V	W	V	V	deg C	#	bits
	0	0.013333	8.45425E-001	-9.82268E-005	0.00000E+000	-8.30434E-005	-5.99601E-002	8.45709E-001	3.57680E+000	9	...........
	1	0.026667	8.32206E-001	-9.87436E-005	0.00000E+000	-8.21751E-005	-5.99601E-002	8.32485E-001	3.57680E+000	9	...........
	2	0.04	8.19556E-001	-9.95011E-005	0.00000E+000	-8.15467E-005	-5.99601E-002	8.19841E-001	3.57680E+000	9	...........
	3	0.053333	8.07321E-001	-9.97230E-005	0.00000E+000	-8.05085E-005	-5.99601E-002	8.07585E-001	3.57680E+000	9	...........
	4	0.066667	7.95337E-001	-9.84873E-005	0.00000E+000	-7.83306E-005	-5.99601E-002	7.95597E-001	3.57680E+000	9	...........
	5	0.08	7.83523E-001	-9.83810E-005	0.00000E+000	-7.70839E-005	-5.99601E-002	7.83764E-001	3.57680E+000	9	...........
	6	0.093333	7.71878E-001	-9.93240E-005	0.00000E+000	-7.66660E-005	-5.99601E-002	7.72097E-001	3.57680E+000	9	...........
	7	0.106667	7.60374E-001	-9.83060E-005	0.00000E+000	-7.47493E-005	-5.99601E-002	7.60575E-001	3.57680E+000	9	...........
	8	0.12	7.48942E-001	-9.94636E-005	0.00000E+000	-7.44924E-005	-5.99601E-002	7.49169E-001	3.57680E+000	9	...........
	9	0.133333	7.37597E-001	-9.87030E-005	0.00000E+000	-7.28030E-005	-5.99601E-002	7.37849E-001	3.57680E+000	9	...........
	10	0.146667	7.26376E-001	-9.84498E-005	0.00000E+000	-7.15116E-005	-5.99601E-002	7.26608E-001	3.57680E+000	9	...........
	11	0.16	7.15207E-001	-9.93302E-005	0.00000E+000	-7.10417E-005	-5.99601E-002	7.15456E-001	3.57680E+000	9	...........
	12	0.173333	7.04130E-001	-9.90010E-005	0.00000E+000	-6.97096E-005	-5.99601E-002	7.04390E-001	3.57680E+000	9	...........
	13	0.186667	6.93171E-001	-9.83644E-005	0.00000E+000	-6.81834E-005	-5.99601E-002	6.93415E-001	3.57680E+000	9	...........
	14	0.2	6.82262E-001	-9.83571E-005	0.00000E+000	-6.71053E-005	-5.99601E-002	6.82503E-001	3.57680E+000	9	...........
	15	0.213333	6.71431E-001	-9.81654E-005	0.00000E+000	-6.59113E-005	-5.99601E-002	6.71668E-001	3.57680E+000	9	...........
	16	0.226667	6.60607E-001	-9.84988E-005	0.00000E+000	-6.50690E-005	-5.99601E-002	6.60868E-001	3.57680E+000	9	...........
	17	0.24	6.49872E-001	-9.92062E-005	0.00000E+000	-6.44713E-005	-5.99601E-002	6.50117E-001	3.57680E+000	9	...........
	18	0.253333	6.39095E-001	-9.86290E-005	0.00000E+000	-6.30333E-005	-5.99601E-002	6.39342E-001	3.57680E+000	9	...........
	19	0.266667	6.28226E-001	-9.77215E-005	0.00000E+000	-6.13912E-005	-5.99601E-002	6.28476E-001	3.57680E+000	9	...........
	20	0.28	6.17263E-001	-9.88416E-005	0.00000E+000	-6.10113E-005	-5.99601E-002	6.17476E-001	3.57680E+000	9	...........
	21	0.293333	6.06050E-001	-9.68859E-005	0.00000E+000	-5.87178E-005	-5.99601E-002	6.06325E-001	3.57680E+000	9	...........
	22	0.306667	5.94742E-001	-9.85029E-005	0.00000E+000	-5.85839E-005	-5.99601E-002	5.94976E-001	3.57680E+000	9	...........
	23	0.32	5.83162E-001	-9.86509E-005	0.00000E+000	-5.75295E-005	-5.99601E-002	5.83421E-001	3.57680E+000	9	...........
	24	0.333333	5.71406E-001	-9.90906E-005	0.00000E+000	-5.66210E-005	-5.99601E-002	5.71630E-001	3.57680E+000	9	...........
	25	0.346667	5.59398E-001	-9.77101E-005	0.00000E+000	-5.46588E-005	-5.99601E-002	5.59639E-001	3.57680E+000	9	...........
	26	0.36	5.47236E-001	-9.84790E-005	0.00000E+000	-5.38913E-005	-5.99601E-002	5.47436E-001	3.57680E+000	9	...........
	27	0.373333	5.34859E-001	-9.94334E-005	0.00000E+000	-5.31828E-005	-5.99601E-002	5.35036E-001	3.57680E+000	9	...........
	28	0.386667	5.22307E-001	-9.89166E-005	0.00000E+000	-5.16648E-005	-5.99601E-002	5.22504E-001	3.57680E+000	9	...........
	29	0.4	5.09576E-001	-9.83279E-005	0.00000E+000	-5.01055E-005	-5.99601E-002	5.09818E-001	3.57680E+000	9	...........
	30	0.413333	4.96748E-001	-9.97615E-005	0.00000E+000	-4.95563E-005	-5.99601E-002	4.96969E-001	3.57680E+000	9	...........
	31	0.426667	4.83933E-001	-9.82727E-005	0.00000E+000	-4.75574E-005	-5.99601E-002	4.84091E-001	3.57680E+000	9	...........
	32	0.44	4.71002E-001	-9.88249E-005	0.00000E+000	-4.65467E-005	-5.99601E-002	4.71104E-001	3.57680E+000	9	...........
	33	0.453333	4.57833E-001	-9.89134E-005	0.00000E+000	-4.52858E-005	-5.99601E-002	4.57932E-001	3.57680E+000	9	...........
	34	0.466667	4.44580E-001	-9.78268E-005	0.00000E+000	-4.34919E-005	-5.99601E-002	4.44682E-001	3.57680E+000	9	...........
	35	0.48	4.31270E-001	-9.82018E-005	0.00000E+000	-4.23516E-005	-5.99601E-002	4.31359E-001	3.57680E+000	9	...........
	36	0.493333	4.17893E-001	-9.83852E-005	0.00000E+000	-4.11145E-005	-5.99601E-002	4.17984E-001	3.57680E+000	9	...........
	37	0.506667	4.04491E-001	-9.83310E-005	0.00000E+000	-3.97740E-005	-5.99601E-002	4.04571E-001	3.57680E+000	9	...........
	38	0.52	3.91048E-001	-9.86019E-005	0.00000E+000	-3.85581E-005	-5.99601E-002	3.91123E-001	3.57680E+000	9	...........
	39	0.533333	3.77593E-001	-9.87468E-005	0.00000E+000	-3.72861E-005	-5.99601E-002	3.77664E-001	3.57680E+000	9	...........
	40	0.546667	3.64137E-001	-9.79341E-005	0.00000E+000	-3.56614E-005	-5.99601E-002	3.64209E-001	3.57680E+000	9	...........
	41	0.56	3.50688E-001	-9.85707E-005	0.00000E+000	-3.45676E-005	-5.99601E-002	3.50757E-001	3.57680E+000	9	...........
	42	0.573333	3.37263E-001	-9.75798E-005	0.00000E+000	-3.29101E-005	-5.99601E-002	3.37335E-001	3.57680E+000	9	...........
	43	0.586667	3.23870E-001	-9.91479E-005	0.00000E+000	-3.21111E-005	-5.99601E-002	3.23937E-001	3.57680E+000	9	...........
	44	0.6	3.10510E-001	-9.73579E-005	0.00000E+000	-3.02306E-005	-5.99601E-002	3.10578E-001	3.57680E+000	9	...........
	45	0.613333	2.97197E-001	-9.74048E-005	0.00000E+000	-2.89484E-005	-5.99601E-002	2.97261E-001	3.57680E+000	9	...........
	46	0.626667	2.83936E-001	-9.87509E-005	0.00000E+000	-2.80390E-005	-5.99601E-002	2.83999E-001	3.57680E+000	9	...........
	47	0.64	2.70734E-001	-9.93417E-005	0.00000E+000	-2.68952E-005	-5.99601E-002	2.70794E-001	3.57680E+000	9	...........
	48	0.653333	2.57604E-001	-9.93125E-005	0.00000E+000	-2.55833E-005	-5.99601E-002	2.57657E-001	3.57680E+000	9	...........
	49	0.666667	2.44536E-001	-9.84811E-005	0.00000E+000	-2.40822E-005	-5.99601E-002	2.44592E-001	3.57680E+000	9	...........
	50	0.68	2.31544E-001	-9.85321E-005	0.00000E+000	-2.28145E-005	-5.99601E-002	2.31586E-001	3.57680E+000	9	...........
	51	0.693333	2.18626E-001	-9.96969E-005	0.00000E+000	-2.17963E-005	-5.99601E-002	2.18668E-001	3.57680E+000	9	...........
	52	0.706667	2.05776E-001	-9.90927E-005	0.00000E+000	-2.03909E-005	-5.99601E-002	2.05819E-001	3.57680E+000	9	...........
	53	0.72	1.93011E-001	-9.95146E-005	0.00000E+000	-1.92074E-005	-5.99601E-002	1.93046E-001	3.57680E+000	9	...........
	54	0.733333	1.80320E-001	-9.88707E-005	0.00000E+000	-1.78284E-005	-5.99601E-002	1.80346E-001	3.57680E+000	9	...........
	55	0.746667	1.67706E-001	-9.84498E-005	0.00000E+000	-1.65106E-005	-5.99601E-002	1.67734E-001	3.57680E+000	9	...........
	56	0.76	1.55176E-001	-9.93375E-005	0.00000E+000	-1.54147E-005	-5.99601E-002	1.55197E-001	3.57680E+000	9	...........
	57	0.773333	1.42703E-001	-1.00401E-004	0.00000E+000	-1.43276E-005	-5.99601E-002	1.42732E-001	3.57680E+000	9	...........
	58	0.786667	1.30316E-001	-9.94479E-005	0.00000E+000	-1.29596E-005	-5.99601E-002	1.30337E-001	3.57680E+000	9	...........
	59	0.8	1.18012E-001	-9.92729E-005	0.00000E+000	-1.17154E-005	-5.99601E-002	1.18035E-001	3.57680E+000	9	...........
	60	0.813333	1.05803E-001	-9.83269E-005	0.00000E+000	-1.04033E-005	-5.99601E-002	1.05816E-001	3.57770E+000	9	...........
	61	0.826667	9.36822E-002	-9.73569E-005	0.00000E+000	-9.12061E-006	-5.99601E-002	9.36983E-002	3.57770E+000	9	...........
	62	0.84	8.16659E-002	-9.85488E-005	0.00000E+000	-8.04807E-006	-5.99601E-002	8.16772E-002	3.57770E+000	9	...........
	63	0.853333	6.97671E-002	-9.92812E-005	0.00000E+000	-6.92656E-006	-5.99601E-002	6.97749E-002	3.57770E+000	9	...........
	64	0.866667	5.79987E-002	-9.92229E-005	0.00000E+000	-5.75479E-006	-5.99601E-002	5.80037E-002	3.57770E+000	9	...........
	65	0.88	4.63760E-002	-9.95928E-005	0.00000E+000	-4.61872E-006	-5.99601E-002	4.63768E-002	3.57770E+000	9	...........
	66	0.893333	3.49009E-002	-9.84123E-005	0.00000E+000	-3.43468E-006	-5.99601E-002	3.49005E-002	3.57770E+000	9	...........
	67	0.906667	2.35705E-002	-9.76111E-005	0.00000E+000	-2.30075E-006	-5.99601E-002	2.35661E-002	3.57770E+000	9	...........
	68	0.92	1.24007E-002	-9.93573E-005	0.00000E+000	-1.23210E-006	-5.99601E-002	1.23909E-002	3.57770E+000	9	...........
	69	0.93	2.78365E-003	-9.80365E-005	0.00000E+000	-2.72899E-007	-5.99601E-002	2.76303E-003	3.57770E+000	9	...........
STARTTIMEOFFSET	QUANT	1762.852	Start Time Offset (s)
