EXPLAIN
TAG	PWR800_DISCHARGE
TITLE	LABEL	PWR Cyclic Charge Discharge (Cell) - Discharge Step	Test &Identifier
DATE	LABEL	12-7-2017	Date
TIME	LABEL	16:28:26	Time
NOTES	NOTES	2	&Notes...
	supercap test cell
	6M KOH
PSTAT	PSTAT	IFC5000-01520	Potentiostat
CAPACITY	QUANT	1.00000E-003	Capacity (A-hr)
CELLTYPE	SELECTOR	1	&Cell Type
WORKINGCONNECTION	SELECTOR	0	&Working Lead
MAXDISCHARGETIME	VARIABLEANDUNITS	1.00000E+002	s	1.00000E+002	second(s)	Max &Discharge Time
DISCHARGEMODE	MULTIPARAM	0	1.00000E-004	&Discharge Mode	Constant Current	Amp(s)
SAMPLETIME	QUANT	1.00000E-002	Sa&mple Period (s)
DISCHARGESTOPAT1	MULTIPARAM	3	0.00000E+000	Discharge Stop At &1	Voltage < Limit	V
DISCHARGESTOPAT2	MULTIPARAM	0	0.00000E+000	Discharge Stop At &2	None	N/A
AESBHCSELECTOR	TOGGLE	F	Save Both Half Cells
IRCOMP	TOGGLE	F	IR &Measure
EOC	QUANT	0	Open Circuit (V)
SEQUENCER	TOGGLE	TRUE	Run as Sequence
PSTATMODEL	IQUANT	53	Pstat Model
PSTATSECTION	LABEL	IFC5000-01520	Pstat Section
PSTATSERIALNO	LABEL	01520	Pstat Serial Number
CTRLMODE	IQUANT	0	Control Mode
ELECTROMETER	IQUANT	1	RE=0 or CS=1
IESTAB	IQUANT	0	I/E Stability
CASPEED	IQUANT	4	Control Amp Speed
CONVENTION	IQUANT	1	Current Convention
ICHRANGE	IQUANT	2	Ich Range
ICHRANGEMODE	TOGGLE	T	Ich Auto Range
ICHOFFSETENABLE	TOGGLE	F	Ich Offset Enable
ICHOFFSET	QUANT	0	Ich Offset (V)
ICHFILTER	IQUANT	1	Ich Filter
VCHRANGE	IQUANT	2	Vch Range
VCHRANGEMODE	TOGGLE	T	Vch Auto Range
VCHOFFSETENABLE	TOGGLE	F	Vch Offset Enable
VCHOFFSET	QUANT	0	Vch Offset (V)
VCHFILTER	IQUANT	1	Vch Filter
IERANGELOWERLIMIT	IQUANT	9	I/E Range Lower Limit
IERANGEMODE	TOGGLE	F	I/E AutoRange
IERANGE	IQUANT	9	I/E Range
ACHSELECT	IQUANT	1	Ach Select
ACHRANGE	IQUANT	2	Ach Range
ACHOFFSETENABLE	TOGGLE	F	Ach Offset Enable
ACHOFFSET	QUANT	0	Ach Offset (V)
ACHFILTER	IQUANT	1	Ach Filter
CABLEID	IQUANT	14	Cable ID
DCCALDATE	LABEL	5-7-2017	DC Calibration Date
ACCALDATE	LABEL	12/3/2015	AC Calibration Date
FRAMEWORKVERSION	QUANT	7.01	Framework Version
INSTRUMENTVERSION	LABEL	4.00	Instrument Version
CURVE	TABLE	71
	Pt	T	Vf	Im	Vu	Pwr	Sig	Ach	Temp	IERange	Over
	#	s	V	A	V	W	V	V	deg C	#	bits
	0	0.013333	8.45709E-001	-9.93948E-005	0.00000E+000	-8.40591E-005	-5.99601E-002	8.46068E-001	3.57700E+000	9	...........
	1	0.026667	8.32718E-001	-9.85248E-005	0.00000E+000	-8.20434E-005	-5.99601E-002	8.33053E-001	3.57700E+000	9	...........
	2	0.04	8.20317E-001	-9.73444E-005	0.00000E+000	-7.98533E-005	-5.99601E-002	8.20645E-001	3.57700E+000	9	...........
	3	0.053333	8.08284E-001	-9.78236E-005	0.00000E+000	-7.90693E-005	-5.99601E-002	8.08607E-001	3.57686E+000	9	...........
	4	0.066667	7.96560E-001	-9.82706E-005	0.00000E+000	-7.82784E-005	-5.99601E-002	7.96855E-001	3.57670E+000	9	...........
	5	0.08	7.84983E-001	-9.86926E-005	0.00000E+000	-7.74720E-005	-5.99601E-002	7.85285E-001	3.57670E+000	9	...........
	6	0.093333	7.73606E-001	-9.88186E-005	0.00000E+000	-7.64467E-005	-5.99601E-002	7.73885E-001	3.57670E+000	9	...........
	7	0.106667	7.62361E-001	-9.95938E-005	0.00000E+000	-7.59264E-005	-5.99601E-002	7.62629E-001	3.57670E+000	9	...........
	8	0.12	7.51217E-001	-9.76080E-005	0.00000E+000	-7.33247E-005	-5.99601E-002	7.51477E-001	3.57670E+000	9	...........
	9	0.133333	7.40188E-001	-9.82633E-005	0.00000E+000	-7.27333E-005	-5.99601E-002	7.40444E-001	3.57670E+000	9	...........
	10	0.146667	7.29252E-001	-9.66692E-005	0.00000E+000	-7.04963E-005	-5.99601E-002	7.29510E-001	3.57670E+000	9	...........
	11	0.16	7.18411E-001	-9.79122E-005	0.00000E+000	-7.03412E-005	-5.99601E-002	7.18649E-001	3.57670E+000	9	...........
	12	0.173333	7.07615E-001	-9.78486E-005	0.00000E+000	-6.92392E-005	-5.99601E-002	7.07869E-001	3.57670E+000	9	...........
	13	0.186667	6.96917E-001	-9.73246E-005	0.00000E+000	-6.78271E-005	-5.99601E-002	6.97164E-001	3.57670E+000	9	...........
	14	0.2	6.86234E-001	-9.89155E-005	0.00000E+000	-6.78792E-005	-5.99601E-002	6.86488E-001	3.57670E+000	9	...........
	15	0.213333	6.75597E-001	-9.90906E-005	0.00000E+000	-6.69453E-005	-5.99601E-002	6.75829E-001	3.57670E+000	9	...........
	16	0.226667	6.64887E-001	-9.81748E-005	0.00000E+000	-6.52751E-005	-5.99601E-002	6.65147E-001	3.57670E+000	9	...........
	17	0.24	6.54107E-001	-9.84831E-005	0.00000E+000	-6.44185E-005	-5.99601E-002	6.54367E-001	3.57670E+000	9	...........
	18	0.253333	6.43215E-001	-9.82685E-005	0.00000E+000	-6.32078E-005	-5.99601E-002	6.43509E-001	3.57670E+000	9	...........
	19	0.266667	6.32148E-001	-9.82539E-005	0.00000E+000	-6.21110E-005	-5.99601E-002	6.32424E-001	3.57670E+000	9	...........
	20	0.28	6.20967E-001	-9.79018E-005	0.00000E+000	-6.07938E-005	-5.99601E-002	6.21232E-001	3.57670E+000	9	...........
	21	0.293333	6.09515E-001	-9.95896E-005	0.00000E+000	-6.07014E-005	-5.99601E-002	6.09822E-001	3.57670E+000	9	...........
	22	0.306667	5.97937E-001	-9.90635E-005	0.00000E+000	-5.92338E-005	-5.99601E-002	5.98217E-001	3.57670E+000	9	...........
	23	0.32	5.86177E-001	-9.82185E-005	0.00000E+000	-5.75734E-005	-5.99601E-002	5.86427E-001	3.57670E+000	9	...........
	24	0.333333	5.74242E-001	-9.78445E-005	0.00000E+000	-5.61865E-005	-5.99601E-002	5.74487E-001	3.57670E+000	9	...........
	25	0.346667	5.62130E-001	-9.93396E-005	0.00000E+000	-5.58418E-005	-5.99601E-002	5.62375E-001	3.57670E+000	9	...........
	26	0.36	5.49873E-001	-9.88572E-005	0.00000E+000	-5.43589E-005	-5.99601E-002	5.50129E-001	3.57670E+000	9	...........
	27	0.373333	5.37484E-001	-9.82946E-005	0.00000E+000	-5.28317E-005	-5.99601E-002	5.37740E-001	3.57670E+000	9	...........
	28	0.386667	5.24994E-001	-9.89780E-005	0.00000E+000	-5.19629E-005	-5.99601E-002	5.25232E-001	3.57670E+000	9	...........
	29	0.4	5.12390E-001	-9.82987E-005	0.00000E+000	-5.03672E-005	-5.99601E-002	5.12635E-001	3.57670E+000	9	...........
	30	0.413333	4.99665E-001	-9.89833E-005	0.00000E+000	-4.94585E-005	-5.99601E-002	4.99935E-001	3.57670E+000	9	...........
	31	0.426667	4.86993E-001	-9.83362E-005	0.00000E+000	-4.78890E-005	-5.99601E-002	4.87196E-001	3.57670E+000	9	...........
	32	0.44	4.74368E-001	-9.75955E-005	0.00000E+000	-4.62962E-005	-5.99601E-002	4.74478E-001	3.57670E+000	9	...........
	33	0.453333	4.61445E-001	-9.91739E-005	0.00000E+000	-4.57633E-005	-5.99601E-002	4.61554E-001	3.57670E+000	9	...........
	34	0.466667	4.48478E-001	-9.80060E-005	0.00000E+000	-4.39535E-005	-5.99601E-002	4.48582E-001	3.57670E+000	9	...........
	35	0.48	4.35468E-001	-9.85873E-005	0.00000E+000	-4.29316E-005	-5.99601E-002	4.35563E-001	3.57670E+000	9	...........
	36	0.493333	4.22428E-001	-9.88812E-005	0.00000E+000	-4.17702E-005	-5.99601E-002	4.22523E-001	3.57670E+000	9	...........
	37	0.506667	4.09380E-001	-9.85603E-005	0.00000E+000	-4.03486E-005	-5.99601E-002	4.09471E-001	3.57670E+000	9	...........
	38	0.52	3.96322E-001	-9.73652E-005	0.00000E+000	-3.85879E-005	-5.99601E-002	3.96404E-001	3.57670E+000	9	...........
	39	0.533333	3.83261E-001	-9.84738E-005	0.00000E+000	-3.77412E-005	-5.99601E-002	3.83345E-001	3.57670E+000	9	...........
	40	0.546667	3.70223E-001	-9.84811E-005	0.00000E+000	-3.64600E-005	-5.99601E-002	3.70303E-001	3.57670E+000	9	...........
	41	0.56	3.57206E-001	-9.90301E-005	0.00000E+000	-3.53742E-005	-5.99601E-002	3.57279E-001	3.57670E+000	9	...........
	42	0.573333	3.44211E-001	-9.90239E-005	0.00000E+000	-3.40851E-005	-5.99601E-002	3.44290E-001	3.57670E+000	9	...........
	43	0.586667	3.31247E-001	-9.91208E-005	0.00000E+000	-3.28335E-005	-5.99601E-002	3.31318E-001	3.57670E+000	9	...........
	44	0.6	3.18324E-001	-9.93094E-005	0.00000E+000	-3.16126E-005	-5.99601E-002	3.18395E-001	3.57670E+000	9	...........
	45	0.613333	3.05443E-001	-9.93500E-005	0.00000E+000	-3.03458E-005	-5.99601E-002	3.05507E-001	3.57670E+000	9	...........
	46	0.626667	2.92610E-001	-9.79643E-005	0.00000E+000	-2.86653E-005	-5.99601E-002	2.92670E-001	3.57670E+000	9	...........
	47	0.64	2.79825E-001	-9.84102E-005	0.00000E+000	-2.75376E-005	-5.99601E-002	2.79885E-001	3.57670E+000	9	...........
	48	0.653333	2.67089E-001	-9.92656E-005	0.00000E+000	-2.65127E-005	-5.99601E-002	2.67150E-001	3.57670E+000	9	...........
	49	0.666667	2.54413E-001	-9.98574E-005	0.00000E+000	-2.54050E-005	-5.99601E-002	2.54467E-001	3.57670E+000	9	...........
	50	0.68	2.41781E-001	-9.71683E-005	0.00000E+000	-2.34934E-005	-5.99601E-002	2.41828E-001	3.57670E+000	9	...........
	51	0.693333	2.29195E-001	-9.93323E-005	0.00000E+000	-2.27664E-005	-5.99601E-002	2.29242E-001	3.57670E+000	9	...........
	52	0.706667	2.16664E-001	-9.76757E-005	0.00000E+000	-2.11628E-005	-5.99601E-002	2.16712E-001	3.57670E+000	9	...........
	53	0.72	2.04182E-001	-9.94250E-005	0.00000E+000	-2.03008E-005	-5.99601E-002	2.04221E-001	3.57670E+000	9	...........
	54	0.733333	1.91736E-001	-9.84748E-005	0.00000E+000	-1.88811E-005	-5.99601E-002	1.91782E-001	3.57670E+000	9	...........
	55	0.746667	1.79334E-001	-9.94094E-005	0.00000E+000	-1.78275E-005	-5.99601E-002	1.79374E-001	3.57670E+000	9	...........
	56	0.76	1.66992E-001	-9.84311E-005	0.00000E+000	-1.64372E-005	-5.99601E-002	1.67025E-001	3.57670E+000	9	...........
	57	0.773333	1.54680E-001	-9.87999E-005	0.00000E+000	-1.52823E-005	-5.99601E-002	1.54707E-001	3.57670E+000	9	...........
	58	0.786667	1.42430E-001	-9.90124E-005	0.00000E+000	-1.41024E-005	-5.99601E-002	1.42456E-001	3.57670E+000	9	...........
	59	0.8	1.30233E-001	-9.71120E-005	0.00000E+000	-1.26472E-005	-5.99601E-002	1.30257E-001	3.57670E+000	9	...........
	60	0.813333	1.18088E-001	-9.82237E-005	0.00000E+000	-1.15990E-005	-5.99601E-002	1.18114E-001	3.57670E+000	9	...........
	61	0.826667	1.06010E-001	-9.79799E-005	0.00000E+000	-1.03869E-005	-5.99601E-002	1.06033E-001	3.57670E+000	9	...........
	62	0.84	9.40152E-002	-9.88791E-005	0.00000E+000	-9.29613E-006	-5.99601E-002	9.40319E-002	3.57670E+000	9	...........
	63	0.853333	8.21132E-002	-9.82435E-005	0.00000E+000	-8.06709E-006	-5.99601E-002	8.21261E-002	3.57670E+000	9	...........
	64	0.866667	7.03061E-002	-9.75548E-005	0.00000E+000	-6.85870E-006	-5.99601E-002	7.03137E-002	3.57670E+000	9	...........
	65	0.88	5.86027E-002	-9.88645E-005	0.00000E+000	-5.79372E-006	-5.99601E-002	5.86093E-002	3.57670E+000	9	...........
	66	0.893333	4.70272E-002	-9.88447E-005	0.00000E+000	-4.64839E-006	-5.99601E-002	4.70340E-002	3.57670E+000	9	...........
	67	0.906667	3.55828E-002	-9.76736E-005	0.00000E+000	-3.47550E-006	-5.99601E-002	3.55860E-002	3.57670E+000	9	...........
	68	0.92	2.42599E-002	-9.85946E-005	0.00000E+000	-2.39189E-006	-5.99601E-002	2.42539E-002	3.57670E+000	9	...........
	69	0.933333	1.30810E-002	-9.77559E-005	0.00000E+000	-1.27874E-006	-5.99601E-002	1.30667E-002	3.57670E+000	9	...........
	70	0.943333	3.41433E-003	-9.90242E-005	0.00000E+000	-3.38101E-007	-5.99601E-002	3.39499E-003	3.57670E+000	9	...........
STARTTIMEOFFSET	QUANT	786.5266	Start Time Offset (s)
