EXPLAIN
TAG	PWR800_DISCHARGE
TITLE	LABEL	PWR Cyclic Charge Discharge (Cell) - Discharge Step	Test &Identifier
DATE	LABEL	12-7-2017	Date
TIME	LABEL	16:37:05	Time
NOTES	NOTES	2	&Notes...
	supercap test cell
	6M KOH
PSTAT	PSTAT	IFC5000-01520	Potentiostat
CAPACITY	QUANT	1.00000E-003	Capacity (A-hr)
CELLTYPE	SELECTOR	1	&Cell Type
WORKINGCONNECTION	SELECTOR	0	&Working Lead
MAXDISCHARGETIME	VARIABLEANDUNITS	1.00000E+002	s	1.00000E+002	second(s)	Max &Discharge Time
DISCHARGEMODE	MULTIPARAM	0	1.00000E-004	&Discharge Mode	Constant Current	Amp(s)
SAMPLETIME	QUANT	1.00000E-002	Sa&mple Period (s)
DISCHARGESTOPAT1	MULTIPARAM	3	0.00000E+000	Discharge Stop At &1	Voltage < Limit	V
DISCHARGESTOPAT2	MULTIPARAM	0	0.00000E+000	Discharge Stop At &2	None	N/A
AESBHCSELECTOR	TOGGLE	F	Save Both Half Cells
IRCOMP	TOGGLE	F	IR &Measure
EOC	QUANT	0	Open Circuit (V)
SEQUENCER	TOGGLE	TRUE	Run as Sequence
PSTATMODEL	IQUANT	53	Pstat Model
PSTATSECTION	LABEL	IFC5000-01520	Pstat Section
PSTATSERIALNO	LABEL	01520	Pstat Serial Number
CTRLMODE	IQUANT	0	Control Mode
ELECTROMETER	IQUANT	1	RE=0 or CS=1
IESTAB	IQUANT	0	I/E Stability
CASPEED	IQUANT	4	Control Amp Speed
CONVENTION	IQUANT	1	Current Convention
ICHRANGE	IQUANT	2	Ich Range
ICHRANGEMODE	TOGGLE	T	Ich Auto Range
ICHOFFSETENABLE	TOGGLE	F	Ich Offset Enable
ICHOFFSET	QUANT	0	Ich Offset (V)
ICHFILTER	IQUANT	1	Ich Filter
VCHRANGE	IQUANT	2	Vch Range
VCHRANGEMODE	TOGGLE	T	Vch Auto Range
VCHOFFSETENABLE	TOGGLE	F	Vch Offset Enable
VCHOFFSET	QUANT	0	Vch Offset (V)
VCHFILTER	IQUANT	1	Vch Filter
IERANGELOWERLIMIT	IQUANT	9	I/E Range Lower Limit
IERANGEMODE	TOGGLE	F	I/E AutoRange
IERANGE	IQUANT	9	I/E Range
ACHSELECT	IQUANT	1	Ach Select
ACHRANGE	IQUANT	2	Ach Range
ACHOFFSETENABLE	TOGGLE	F	Ach Offset Enable
ACHOFFSET	QUANT	0	Ach Offset (V)
ACHFILTER	IQUANT	1	Ach Filter
CABLEID	IQUANT	14	Cable ID
DCCALDATE	LABEL	5-7-2017	DC Calibration Date
ACCALDATE	LABEL	12/3/2015	AC Calibration Date
FRAMEWORKVERSION	QUANT	7.01	Framework Version
INSTRUMENTVERSION	LABEL	4.00	Instrument Version
CURVE	TABLE	71
	Pt	T	Vf	Im	Vu	Pwr	Sig	Ach	Temp	IERange	Over
	#	s	V	A	V	W	V	V	deg C	#	bits
	0	0.013333	8.45204E-001	-9.87009E-005	0.00000E+000	-8.34224E-005	-5.99601E-002	8.45531E-001	3.57710E+000	9	...........
	1	0.026667	8.32139E-001	-9.85561E-005	0.00000E+000	-8.20124E-005	-5.99601E-002	8.32428E-001	3.57710E+000	9	...........
	2	0.04	8.19647E-001	-9.95886E-005	0.00000E+000	-8.16275E-005	-5.99601E-002	8.19931E-001	3.57710E+000	9	...........
	3	0.053333	8.07537E-001	-9.87947E-005	0.00000E+000	-7.97804E-005	-5.99601E-002	8.07811E-001	3.57710E+000	9	...........
	4	0.066667	7.95742E-001	-9.96605E-005	0.00000E+000	-7.93040E-005	-5.99601E-002	7.95976E-001	3.57710E+000	9	...........
	5	0.08	7.84070E-001	-9.81164E-005	0.00000E+000	-7.69301E-005	-5.99601E-002	7.84331E-001	3.57710E+000	9	...........
	6	0.093333	7.72608E-001	-9.98647E-005	0.00000E+000	-7.71563E-005	-5.99601E-002	7.72857E-001	3.57710E+000	9	...........
	7	0.106667	7.61247E-001	-9.98845E-005	0.00000E+000	-7.60367E-005	-5.99601E-002	7.61505E-001	3.57710E+000	9	...........
	8	0.12	7.50007E-001	-9.79664E-005	0.00000E+000	-7.34755E-005	-5.99601E-002	7.50261E-001	3.57710E+000	9	...........
	9	0.133333	7.38862E-001	-9.87915E-005	0.00000E+000	-7.29933E-005	-5.99601E-002	7.39140E-001	3.57710E+000	9	...........
	10	0.146667	7.27847E-001	-9.84113E-005	0.00000E+000	-7.16283E-005	-5.99601E-002	7.28111E-001	3.57710E+000	9	...........
	11	0.16	7.16899E-001	-9.85571E-005	0.00000E+000	-7.06555E-005	-5.99601E-002	7.17181E-001	3.57710E+000	9	...........
	12	0.173333	7.06019E-001	-9.92979E-005	0.00000E+000	-7.01062E-005	-5.99601E-002	7.06288E-001	3.57710E+000	9	...........
	13	0.186667	6.95237E-001	-9.82800E-005	0.00000E+000	-6.83279E-005	-5.99601E-002	6.95513E-001	3.57710E+000	9	...........
	14	0.2	6.84518E-001	-9.86092E-005	0.00000E+000	-6.74998E-005	-5.99601E-002	6.84770E-001	3.57710E+000	9	...........
	15	0.213333	6.73869E-001	-9.79372E-005	0.00000E+000	-6.59969E-005	-5.99601E-002	6.74118E-001	3.57710E+000	9	...........
	16	0.226667	6.63210E-001	-9.91968E-005	0.00000E+000	-6.57884E-005	-5.99601E-002	6.63467E-001	3.57710E+000	9	...........
	17	0.24	6.52545E-001	-9.79372E-005	0.00000E+000	-6.39084E-005	-5.99601E-002	6.52791E-001	3.57710E+000	9	...........
	18	0.253333	6.41842E-001	-9.89478E-005	0.00000E+000	-6.35089E-005	-5.99601E-002	6.42083E-001	3.57710E+000	9	...........
	19	0.266667	6.31010E-001	-9.85800E-005	0.00000E+000	-6.22050E-005	-5.99601E-002	6.31239E-001	3.57710E+000	9	...........
	20	0.28	6.20038E-001	-9.76163E-005	0.00000E+000	-6.05258E-005	-5.99601E-002	6.20262E-001	3.57710E+000	9	...........
	21	0.293333	6.08828E-001	-9.91666E-005	0.00000E+000	-6.03754E-005	-5.99601E-002	6.09083E-001	3.57710E+000	9	...........
	22	0.306667	5.97481E-001	-9.75205E-005	0.00000E+000	-5.82666E-005	-5.99601E-002	5.97730E-001	3.57710E+000	9	...........
	23	0.32	5.85917E-001	-9.87603E-005	0.00000E+000	-5.78653E-005	-5.99601E-002	5.86151E-001	3.57710E+000	9	...........
	24	0.333333	5.74166E-001	-9.85259E-005	0.00000E+000	-5.65702E-005	-5.99601E-002	5.74372E-001	3.57710E+000	9	...........
	25	0.346667	5.62200E-001	-9.90353E-005	0.00000E+000	-5.56777E-005	-5.99601E-002	5.62407E-001	3.57710E+000	9	...........
	26	0.36	5.50056E-001	-1.00334E-004	0.00000E+000	-5.51891E-005	-5.99601E-002	5.50281E-001	3.57710E+000	9	...........
	27	0.373333	5.37771E-001	-9.88780E-005	0.00000E+000	-5.31738E-005	-5.99601E-002	5.37991E-001	3.57710E+000	9	...........
	28	0.386667	5.25311E-001	-9.83758E-005	0.00000E+000	-5.16779E-005	-5.99601E-002	5.25530E-001	3.57710E+000	9	...........
	29	0.4	5.12723E-001	-9.88374E-005	0.00000E+000	-5.06762E-005	-5.99601E-002	5.12961E-001	3.57710E+000	9	...........
	30	0.413333	4.99995E-001	-9.91520E-005	0.00000E+000	-4.95755E-005	-5.99601E-002	5.00248E-001	3.57710E+000	9	...........
	31	0.426667	4.87265E-001	-9.82112E-005	0.00000E+000	-4.78549E-005	-5.99601E-002	4.87480E-001	3.57710E+000	9	...........
	32	0.44	4.74595E-001	-9.99918E-005	0.00000E+000	-4.74557E-005	-5.99601E-002	4.74704E-001	3.57710E+000	9	...........
	33	0.453333	4.61591E-001	-9.83842E-005	0.00000E+000	-4.54133E-005	-5.99601E-002	4.61690E-001	3.57710E+000	9	...........
	34	0.466667	4.48516E-001	-9.94959E-005	0.00000E+000	-4.46254E-005	-5.99601E-002	4.48613E-001	3.57710E+000	9	...........
	35	0.48	4.35389E-001	-9.91302E-005	0.00000E+000	-4.31602E-005	-5.99601E-002	4.35477E-001	3.57710E+000	9	...........
	36	0.493333	4.22208E-001	-9.99428E-005	0.00000E+000	-4.21966E-005	-5.99601E-002	4.22300E-001	3.57710E+000	9	...........
	37	0.506667	4.08999E-001	-9.89864E-005	0.00000E+000	-4.04853E-005	-5.99601E-002	4.09089E-001	3.57710E+000	9	...........
	38	0.52	3.95775E-001	-9.85613E-005	0.00000E+000	-3.90081E-005	-5.99601E-002	3.95853E-001	3.57710E+000	9	...........
	39	0.533333	3.82529E-001	-9.81393E-005	0.00000E+000	-3.75411E-005	-5.99601E-002	3.82603E-001	3.57710E+000	9	...........
	40	0.546667	3.69293E-001	-9.85457E-005	0.00000E+000	-3.63923E-005	-5.99601E-002	3.69367E-001	3.57710E+000	9	...........
	41	0.56	3.56065E-001	-9.95615E-005	0.00000E+000	-3.54503E-005	-5.99601E-002	3.56132E-001	3.57710E+000	9	...........
	42	0.573333	3.42863E-001	-9.78497E-005	0.00000E+000	-3.35491E-005	-5.99601E-002	3.42933E-001	3.57710E+000	9	...........
	43	0.586667	3.29689E-001	-9.88832E-005	0.00000E+000	-3.26007E-005	-5.99601E-002	3.29756E-001	3.57710E+000	9	...........
	44	0.6	3.16555E-001	-9.82404E-005	0.00000E+000	-3.10985E-005	-5.99601E-002	3.16621E-001	3.57710E+000	9	...........
	45	0.613333	3.03461E-001	-9.93594E-005	0.00000E+000	-3.01517E-005	-5.99601E-002	3.03518E-001	3.57710E+000	9	...........
	46	0.626667	2.90421E-001	-9.81758E-005	0.00000E+000	-2.85123E-005	-5.99601E-002	2.90481E-001	3.57710E+000	9	...........
	47	0.64	2.77442E-001	-9.76059E-005	0.00000E+000	-2.70800E-005	-5.99601E-002	2.77499E-001	3.57710E+000	9	...........
	48	0.653333	2.64522E-001	-9.92469E-005	0.00000E+000	-2.62530E-005	-5.99601E-002	2.64579E-001	3.57710E+000	9	...........
	49	0.666667	2.51670E-001	-9.85915E-005	0.00000E+000	-2.48125E-005	-5.99601E-002	2.51719E-001	3.57710E+000	9	...........
	50	0.68	2.38874E-001	-9.88614E-005	0.00000E+000	-2.36154E-005	-5.99601E-002	2.38915E-001	3.57710E+000	9	...........
	51	0.693333	2.26134E-001	-9.99470E-005	0.00000E+000	-2.26014E-005	-5.99601E-002	2.26176E-001	3.57710E+000	9	...........
	52	0.706667	2.13460E-001	-9.86228E-005	0.00000E+000	-2.10520E-005	-5.99601E-002	2.13504E-001	3.57710E+000	9	...........
	53	0.72	2.00850E-001	-9.98501E-005	0.00000E+000	-2.00549E-005	-5.99601E-002	2.00892E-001	3.57710E+000	9	...........
	54	0.733333	1.88313E-001	-9.91135E-005	0.00000E+000	-1.86643E-005	-5.99601E-002	1.88351E-001	3.57710E+000	9	...........
	55	0.746667	1.75837E-001	-9.90031E-005	0.00000E+000	-1.74084E-005	-5.99601E-002	1.75877E-001	3.57710E+000	9	...........
	56	0.76	1.63421E-001	-9.78997E-005	0.00000E+000	-1.59989E-005	-5.99601E-002	1.63453E-001	3.57731E+000	9	...........
	57	0.773333	1.51069E-001	-9.95417E-005	0.00000E+000	-1.50376E-005	-5.99601E-002	1.51095E-001	3.57800E+000	9	...........
	58	0.786667	1.38777E-001	-9.88322E-005	0.00000E+000	-1.37156E-005	-5.99601E-002	1.38800E-001	3.57800E+000	9	...........
	59	0.8	1.26542E-001	-1.00524E-004	0.00000E+000	-1.27205E-005	-5.99601E-002	1.26562E-001	3.57800E+000	9	...........
	60	0.813333	1.14384E-001	-9.96042E-005	0.00000E+000	-1.13931E-005	-5.99601E-002	1.14405E-001	3.57800E+000	9	...........
	61	0.826667	1.02313E-001	-9.84029E-005	0.00000E+000	-1.00679E-005	-5.99601E-002	1.02333E-001	3.57800E+000	9	...........
	62	0.84	9.03310E-002	-9.92458E-005	0.00000E+000	-8.96497E-006	-5.99601E-002	9.03473E-002	3.57800E+000	9	...........
	63	0.853333	7.84437E-002	-9.80049E-005	0.00000E+000	-7.68787E-006	-5.99601E-002	7.84550E-002	3.57800E+000	9	...........
	64	0.866667	6.66709E-002	-9.77215E-005	0.00000E+000	-6.51518E-006	-5.99601E-002	6.66741E-002	3.57800E+000	9	...........
	65	0.88	5.50140E-002	-9.91520E-005	0.00000E+000	-5.45475E-006	-5.99601E-002	5.50178E-002	3.57800E+000	9	...........
	66	0.893333	4.35129E-002	-9.86446E-005	0.00000E+000	-4.29232E-006	-5.99601E-002	4.35204E-002	3.57800E+000	9	...........
	67	0.906667	3.21312E-002	-9.79935E-005	0.00000E+000	-3.14865E-006	-5.99601E-002	3.21332E-002	3.57800E+000	9	...........
	68	0.92	2.08909E-002	-9.86155E-005	0.00000E+000	-2.06017E-006	-5.99601E-002	2.08835E-002	3.57800E+000	9	...........
	69	0.933333	9.81493E-003	-9.79820E-005	0.00000E+000	-9.61687E-007	-5.99601E-002	9.79877E-003	3.57800E+000	9	...........
	70	0.94	1.60243E-003	-9.84540E-005	0.00000E+000	-1.57766E-007	-5.99601E-002	1.57941E-003	3.57800E+000	9	...........
STARTTIMEOFFSET	QUANT	1155.394	Start Time Offset (s)
