EXPLAIN
TAG	PWR800_DISCHARGE
TITLE	LABEL	PWR Cyclic Charge Discharge (Cell) - Discharge Step	Test &Identifier
DATE	LABEL	12-7-2017	Date
TIME	LABEL	16:52:16	Time
NOTES	NOTES	2	&Notes...
	supercap test cell
	6M KOH
PSTAT	PSTAT	IFC5000-01520	Potentiostat
CAPACITY	QUANT	1.00000E-003	Capacity (A-hr)
CELLTYPE	SELECTOR	1	&Cell Type
WORKINGCONNECTION	SELECTOR	0	&Working Lead
MAXDISCHARGETIME	VARIABLEANDUNITS	1.00000E+002	s	1.00000E+002	second(s)	Max &Discharge Time
DISCHARGEMODE	MULTIPARAM	0	1.00000E-004	&Discharge Mode	Constant Current	Amp(s)
SAMPLETIME	QUANT	1.00000E-002	Sa&mple Period (s)
DISCHARGESTOPAT1	MULTIPARAM	3	0.00000E+000	Discharge Stop At &1	Voltage < Limit	V
DISCHARGESTOPAT2	MULTIPARAM	0	0.00000E+000	Discharge Stop At &2	None	N/A
AESBHCSELECTOR	TOGGLE	F	Save Both Half Cells
IRCOMP	TOGGLE	F	IR &Measure
EOC	QUANT	0	Open Circuit (V)
SEQUENCER	TOGGLE	TRUE	Run as Sequence
PSTATMODEL	IQUANT	53	Pstat Model
PSTATSECTION	LABEL	IFC5000-01520	Pstat Section
PSTATSERIALNO	LABEL	01520	Pstat Serial Number
CTRLMODE	IQUANT	0	Control Mode
ELECTROMETER	IQUANT	1	RE=0 or CS=1
IESTAB	IQUANT	0	I/E Stability
CASPEED	IQUANT	4	Control Amp Speed
CONVENTION	IQUANT	1	Current Convention
ICHRANGE	IQUANT	2	Ich Range
ICHRANGEMODE	TOGGLE	T	Ich Auto Range
ICHOFFSETENABLE	TOGGLE	F	Ich Offset Enable
ICHOFFSET	QUANT	0	Ich Offset (V)
ICHFILTER	IQUANT	1	Ich Filter
VCHRANGE	IQUANT	2	Vch Range
VCHRANGEMODE	TOGGLE	T	Vch Auto Range
VCHOFFSETENABLE	TOGGLE	F	Vch Offset Enable
VCHOFFSET	QUANT	0	Vch Offset (V)
VCHFILTER	IQUANT	1	Vch Filter
IERANGELOWERLIMIT	IQUANT	9	I/E Range Lower Limit
IERANGEMODE	TOGGLE	F	I/E AutoRange
IERANGE	IQUANT	9	I/E Range
ACHSELECT	IQUANT	1	Ach Select
ACHRANGE	IQUANT	2	Ach Range
ACHOFFSETENABLE	TOGGLE	F	Ach Offset Enable
ACHOFFSET	QUANT	0	Ach Offset (V)
ACHFILTER	IQUANT	1	Ach Filter
CABLEID	IQUANT	14	Cable ID
DCCALDATE	LABEL	5-7-2017	DC Calibration Date
ACCALDATE	LABEL	12/3/2015	AC Calibration Date
FRAMEWORKVERSION	QUANT	7.01	Framework Version
INSTRUMENTVERSION	LABEL	4.00	Instrument Version
CURVE	TABLE	70
	Pt	T	Vf	Im	Vu	Pwr	Sig	Ach	Temp	IERange	Over
	#	s	V	A	V	W	V	V	deg C	#	bits
	0	0.013333	8.44367E-001	-9.86478E-005	0.00000E+000	-8.32949E-005	-5.99601E-002	8.44656E-001	3.57770E+000	9	...........
	1	0.026667	8.31166E-001	-9.99553E-005	0.00000E+000	-8.30795E-005	-5.99601E-002	8.31451E-001	3.57770E+000	9	...........
	2	0.04	8.18538E-001	-9.89770E-005	0.00000E+000	-8.10164E-005	-5.99601E-002	8.18827E-001	3.57770E+000	9	...........
	3	0.053333	8.06296E-001	-9.88822E-005	0.00000E+000	-7.97283E-005	-5.99601E-002	8.06568E-001	3.57770E+000	9	...........
	4	0.066667	7.94321E-001	-9.90906E-005	0.00000E+000	-7.87097E-005	-5.99601E-002	7.94556E-001	3.57770E+000	9	...........
	5	0.08	7.82487E-001	-9.87947E-005	0.00000E+000	-7.73055E-005	-5.99601E-002	7.82762E-001	3.57770E+000	9	...........
	6	0.093333	7.70825E-001	-9.91468E-005	0.00000E+000	-7.64249E-005	-5.99601E-002	7.71099E-001	3.57770E+000	9	...........
	7	0.106667	7.59325E-001	-9.88468E-005	0.00000E+000	-7.50568E-005	-5.99601E-002	7.59550E-001	3.57770E+000	9	...........
	8	0.12	7.47878E-001	-1.00272E-004	0.00000E+000	-7.49913E-005	-5.99601E-002	7.48143E-001	3.57770E+000	9	...........
	9	0.133333	7.36547E-001	-9.81373E-005	0.00000E+000	-7.22827E-005	-5.99601E-002	7.36829E-001	3.57770E+000	9	...........
	10	0.146667	7.25345E-001	-9.94792E-005	0.00000E+000	-7.21567E-005	-5.99601E-002	7.25573E-001	3.57770E+000	9	...........
	11	0.16	7.14170E-001	-9.82831E-005	0.00000E+000	-7.01909E-005	-5.99601E-002	7.14403E-001	3.57770E+000	9	...........
	12	0.173333	7.03091E-001	-9.92000E-005	0.00000E+000	-6.97466E-005	-5.99601E-002	7.03325E-001	3.57770E+000	9	...........
	13	0.186667	6.92080E-001	-9.96146E-005	0.00000E+000	-6.89413E-005	-5.99601E-002	6.92344E-001	3.57770E+000	9	...........
	14	0.2	6.81178E-001	-9.91406E-005	0.00000E+000	-6.75324E-005	-5.99601E-002	6.81408E-001	3.57770E+000	9	...........
	15	0.213333	6.70348E-001	-9.88749E-005	0.00000E+000	-6.62806E-005	-5.99601E-002	6.70587E-001	3.57770E+000	9	...........
	16	0.226667	6.59536E-001	-9.85571E-005	0.00000E+000	-6.50020E-005	-5.99601E-002	6.59778E-001	3.57770E+000	9	...........
	17	0.24	6.48770E-001	-9.85873E-005	0.00000E+000	-6.39605E-005	-5.99601E-002	6.48993E-001	3.57770E+000	9	...........
	18	0.253333	6.37967E-001	-9.90885E-005	0.00000E+000	-6.32152E-005	-5.99601E-002	6.38188E-001	3.57770E+000	9	...........
	19	0.266667	6.27093E-001	-9.98084E-005	0.00000E+000	-6.25892E-005	-5.99601E-002	6.27313E-001	3.57770E+000	9	...........
	20	0.28	6.16097E-001	-9.88093E-005	0.00000E+000	-6.08761E-005	-5.99601E-002	6.16314E-001	3.57770E+000	9	...........
	21	0.293333	6.04905E-001	-9.78101E-005	0.00000E+000	-5.91658E-005	-5.99601E-002	6.05123E-001	3.57770E+000	9	...........
	22	0.306667	5.93554E-001	-9.90041E-005	0.00000E+000	-5.87643E-005	-5.99601E-002	5.93770E-001	3.57770E+000	9	...........
	23	0.32	5.81943E-001	-9.81206E-005	0.00000E+000	-5.71006E-005	-5.99601E-002	5.82170E-001	3.57770E+000	9	...........
	24	0.333333	5.70153E-001	-9.77643E-005	0.00000E+000	-5.57406E-005	-5.99601E-002	5.70366E-001	3.57770E+000	9	...........
	25	0.346667	5.58095E-001	-9.97824E-005	0.00000E+000	-5.56881E-005	-5.99601E-002	5.58319E-001	3.57770E+000	9	...........
	26	0.36	5.45911E-001	-9.87363E-005	0.00000E+000	-5.39012E-005	-5.99601E-002	5.46122E-001	3.57770E+000	9	...........
	27	0.373333	5.33500E-001	-9.87832E-005	0.00000E+000	-5.27008E-005	-5.99601E-002	5.33710E-001	3.57770E+000	9	...........
	28	0.386667	5.20925E-001	-9.83175E-005	0.00000E+000	-5.12161E-005	-5.99601E-002	5.21144E-001	3.57770E+000	9	...........
	29	0.4	5.08167E-001	-9.83008E-005	0.00000E+000	-4.99532E-005	-5.99601E-002	5.08438E-001	3.57770E+000	9	...........
	30	0.413333	4.95327E-001	-9.89583E-005	0.00000E+000	-4.90167E-005	-5.99601E-002	4.95560E-001	3.57770E+000	9	...........
	31	0.426667	4.82549E-001	-9.83435E-005	0.00000E+000	-4.74555E-005	-5.99601E-002	4.82701E-001	3.57770E+000	9	...........
	32	0.44	4.69575E-001	-9.79049E-005	0.00000E+000	-4.59737E-005	-5.99601E-002	4.69670E-001	3.57770E+000	9	...........
	33	0.453333	4.56379E-001	-9.83592E-005	0.00000E+000	-4.48890E-005	-5.99601E-002	4.56477E-001	3.57740E+000	9	...........
	34	0.466667	4.43105E-001	-9.91656E-005	0.00000E+000	-4.39408E-005	-5.99601E-002	4.43201E-001	3.57650E+000	9	...........
	35	0.48	4.29765E-001	-9.96219E-005	0.00000E+000	-4.28140E-005	-5.99601E-002	4.29856E-001	3.57650E+000	9	...........
	36	0.493333	4.16374E-001	-9.91666E-005	0.00000E+000	-4.12904E-005	-5.99601E-002	4.16464E-001	3.57650E+000	9	...........
	37	0.506667	4.02954E-001	-9.84884E-005	0.00000E+000	-3.96863E-005	-5.99601E-002	4.03036E-001	3.57650E+000	9	...........
	38	0.52	3.89497E-001	-9.85227E-005	0.00000E+000	-3.83744E-005	-5.99601E-002	3.89573E-001	3.57650E+000	9	...........
	39	0.533333	3.76028E-001	-9.91333E-005	0.00000E+000	-3.72769E-005	-5.99601E-002	3.76102E-001	3.57650E+000	9	...........
	40	0.546667	3.62554E-001	-9.88457E-005	0.00000E+000	-3.58369E-005	-5.99601E-002	3.62632E-001	3.57650E+000	9	...........
	41	0.56	3.49096E-001	-9.82821E-005	0.00000E+000	-3.43099E-005	-5.99601E-002	3.49165E-001	3.57650E+000	9	...........
	42	0.573333	3.35654E-001	-9.84634E-005	0.00000E+000	-3.30496E-005	-5.99601E-002	3.35723E-001	3.57650E+000	9	...........
	43	0.586667	3.22251E-001	-9.94209E-005	0.00000E+000	-3.20385E-005	-5.99601E-002	3.22320E-001	3.57650E+000	9	...........
	44	0.6	3.08881E-001	-9.96094E-005	0.00000E+000	-3.07674E-005	-5.99601E-002	3.08944E-001	3.57650E+000	9	...........
	45	0.613333	2.95558E-001	-1.00472E-004	0.00000E+000	-2.96953E-005	-5.99601E-002	2.95618E-001	3.57650E+000	9	...........
	46	0.626667	2.82300E-001	-9.88582E-005	0.00000E+000	-2.79077E-005	-5.99601E-002	2.82352E-001	3.57650E+000	9	...........
	47	0.64	2.69096E-001	-9.83154E-005	0.00000E+000	-2.64563E-005	-5.99601E-002	2.69148E-001	3.57650E+000	9	...........
	48	0.653333	2.55949E-001	-9.92198E-005	0.00000E+000	-2.53952E-005	-5.99601E-002	2.56007E-001	3.57650E+000	9	...........
	49	0.666667	2.42881E-001	-9.76090E-005	0.00000E+000	-2.37073E-005	-5.99601E-002	2.42934E-001	3.57650E+000	9	...........
	50	0.68	2.29880E-001	-9.84915E-005	0.00000E+000	-2.26412E-005	-5.99601E-002	2.29923E-001	3.57650E+000	9	...........
	51	0.693333	2.16956E-001	-9.81414E-005	0.00000E+000	-2.12924E-005	-5.99601E-002	2.17002E-001	3.57650E+000	9	...........
	52	0.706667	2.04109E-001	-9.95823E-005	0.00000E+000	-2.03256E-005	-5.99601E-002	2.04148E-001	3.57650E+000	9	...........
	53	0.72	1.91343E-001	-9.77913E-005	0.00000E+000	-1.87117E-005	-5.99601E-002	1.91379E-001	3.57650E+000	9	...........
	54	0.733333	1.78647E-001	-9.96511E-005	0.00000E+000	-1.78024E-005	-5.99601E-002	1.78687E-001	3.57650E+000	9	...........
	55	0.746667	1.66040E-001	-9.90812E-005	0.00000E+000	-1.64514E-005	-5.99601E-002	1.66072E-001	3.57650E+000	9	...........
	56	0.76	1.53504E-001	-9.88311E-005	0.00000E+000	-1.51710E-005	-5.99601E-002	1.53530E-001	3.57650E+000	9	...........
	57	0.773333	1.41041E-001	-9.91416E-005	0.00000E+000	-1.39830E-005	-5.99601E-002	1.41065E-001	3.57650E+000	9	...........
	58	0.786667	1.28651E-001	-9.88176E-005	0.00000E+000	-1.27130E-005	-5.99601E-002	1.28675E-001	3.57650E+000	9	...........
	59	0.8	1.16352E-001	-9.87405E-005	0.00000E+000	-1.14887E-005	-5.99601E-002	1.16378E-001	3.57650E+000	9	...........
	60	0.813333	1.04139E-001	-9.86238E-005	0.00000E+000	-1.02706E-005	-5.99601E-002	1.04158E-001	3.57650E+000	9	...........
	61	0.826667	9.20237E-002	-9.76111E-005	0.00000E+000	-8.98254E-006	-5.99601E-002	9.20357E-002	3.57650E+000	9	...........
	62	0.84	8.00189E-002	-9.94042E-005	0.00000E+000	-7.95421E-006	-5.99601E-002	8.00300E-002	3.57650E+000	9	...........
	63	0.853333	6.81345E-002	-9.83300E-005	0.00000E+000	-6.69966E-006	-5.99601E-002	6.81405E-002	3.57650E+000	9	...........
	64	0.866667	5.63683E-002	-9.80445E-005	0.00000E+000	-5.52660E-006	-5.99601E-002	5.63754E-002	3.57650E+000	9	...........
	65	0.88	4.47705E-002	-9.89864E-005	0.00000E+000	-4.43167E-006	-5.99601E-002	4.47719E-002	3.57650E+000	9	...........
	66	0.893333	3.32951E-002	-9.87280E-005	0.00000E+000	-3.28715E-006	-5.99601E-002	3.32945E-002	3.57650E+000	9	...........
	67	0.906667	2.19933E-002	-1.00299E-004	0.00000E+000	-2.20591E-006	-5.99601E-002	2.19812E-002	3.57650E+000	9	...........
	68	0.92	1.08442E-002	-9.92562E-005	0.00000E+000	-1.07635E-006	-5.99601E-002	1.08299E-002	3.57650E+000	9	...........
	69	0.928333	1.91816E-003	-9.90754E-005	0.00000E+000	-1.90042E-007	-5.99601E-002	1.89861E-003	3.57650E+000	9	...........
STARTTIMEOFFSET	QUANT	1799.232	Start Time Offset (s)
