EXPLAIN
TAG	PWR800_DISCHARGE
TITLE	LABEL	PWR Cyclic Charge Discharge (Cell) - Discharge Step	Test &Identifier
DATE	LABEL	12-7-2017	Date
TIME	LABEL	16:16:08	Time
NOTES	NOTES	2	&Notes...
	supercap test cell
	6M KOH
PSTAT	PSTAT	IFC5000-01520	Potentiostat
CAPACITY	QUANT	1.00000E-003	Capacity (A-hr)
CELLTYPE	SELECTOR	1	&Cell Type
WORKINGCONNECTION	SELECTOR	0	&Working Lead
MAXDISCHARGETIME	VARIABLEANDUNITS	1.00000E+002	s	1.00000E+002	second(s)	Max &Discharge Time
DISCHARGEMODE	MULTIPARAM	0	1.00000E-004	&Discharge Mode	Constant Current	Amp(s)
SAMPLETIME	QUANT	1.00000E-002	Sa&mple Period (s)
DISCHARGESTOPAT1	MULTIPARAM	3	0.00000E+000	Discharge Stop At &1	Voltage < Limit	V
DISCHARGESTOPAT2	MULTIPARAM	0	0.00000E+000	Discharge Stop At &2	None	N/A
AESBHCSELECTOR	TOGGLE	F	Save Both Half Cells
IRCOMP	TOGGLE	F	IR &Measure
EOC	QUANT	0	Open Circuit (V)
SEQUENCER	TOGGLE	TRUE	Run as Sequence
PSTATMODEL	IQUANT	53	Pstat Model
PSTATSECTION	LABEL	IFC5000-01520	Pstat Section
PSTATSERIALNO	LABEL	01520	Pstat Serial Number
CTRLMODE	IQUANT	0	Control Mode
ELECTROMETER	IQUANT	1	RE=0 or CS=1
IESTAB	IQUANT	0	I/E Stability
CASPEED	IQUANT	4	Control Amp Speed
CONVENTION	IQUANT	1	Current Convention
ICHRANGE	IQUANT	2	Ich Range
ICHRANGEMODE	TOGGLE	T	Ich Auto Range
ICHOFFSETENABLE	TOGGLE	F	Ich Offset Enable
ICHOFFSET	QUANT	0	Ich Offset (V)
ICHFILTER	IQUANT	1	Ich Filter
VCHRANGE	IQUANT	2	Vch Range
VCHRANGEMODE	TOGGLE	T	Vch Auto Range
VCHOFFSETENABLE	TOGGLE	F	Vch Offset Enable
VCHOFFSET	QUANT	0	Vch Offset (V)
VCHFILTER	IQUANT	1	Vch Filter
IERANGELOWERLIMIT	IQUANT	9	I/E Range Lower Limit
IERANGEMODE	TOGGLE	F	I/E AutoRange
IERANGE	IQUANT	9	I/E Range
ACHSELECT	IQUANT	1	Ach Select
ACHRANGE	IQUANT	2	Ach Range
ACHOFFSETENABLE	TOGGLE	F	Ach Offset Enable
ACHOFFSET	QUANT	0	Ach Offset (V)
ACHFILTER	IQUANT	1	Ach Filter
CABLEID	IQUANT	14	Cable ID
DCCALDATE	LABEL	5-7-2017	DC Calibration Date
ACCALDATE	LABEL	12/3/2015	AC Calibration Date
FRAMEWORKVERSION	QUANT	7.01	Framework Version
INSTRUMENTVERSION	LABEL	4.00	Instrument Version
CURVE	TABLE	72
	Pt	T	Vf	Im	Vu	Pwr	Sig	Ach	Temp	IERange	Over
	#	s	V	A	V	W	V	V	deg C	#	bits
	0	0.013333	8.41722E-001	-9.88707E-005	0.00000E+000	-8.32217E-005	-5.99601E-002	8.42048E-001	3.57830E+000	9	...........
	1	0.026667	8.28786E-001	-9.79653E-005	0.00000E+000	-8.11923E-005	-5.99601E-002	8.29111E-001	3.57830E+000	9	...........
	2	0.04	8.16459E-001	-9.82341E-005	0.00000E+000	-8.02042E-005	-5.99601E-002	8.16765E-001	3.57830E+000	9	...........
	3	0.053333	8.04469E-001	-9.92833E-005	0.00000E+000	-7.98703E-005	-5.99601E-002	8.04762E-001	3.57830E+000	9	...........
	4	0.066667	7.92786E-001	-9.86488E-005	0.00000E+000	-7.82074E-005	-5.99601E-002	7.93044E-001	3.57830E+000	9	...........
	5	0.08	7.81258E-001	-9.88968E-005	0.00000E+000	-7.72639E-005	-5.99601E-002	7.81530E-001	3.57830E+000	9	...........
	6	0.093333	7.69923E-001	-9.95323E-005	0.00000E+000	-7.66323E-005	-5.99601E-002	7.70181E-001	3.57830E+000	9	...........
	7	0.106667	7.58739E-001	-9.90322E-005	0.00000E+000	-7.51396E-005	-5.99601E-002	7.58971E-001	3.57830E+000	9	...........
	8	0.12	7.47639E-001	-9.88061E-005	0.00000E+000	-7.38713E-005	-5.99601E-002	7.47871E-001	3.57830E+000	9	...........
	9	0.133333	7.36575E-001	-9.88228E-005	0.00000E+000	-7.27904E-005	-5.99601E-002	7.36828E-001	3.57830E+000	9	...........
	10	0.146667	7.25575E-001	-9.90364E-005	0.00000E+000	-7.18583E-005	-5.99601E-002	7.25826E-001	3.57830E+000	9	...........
	11	0.16	7.14507E-001	-9.94636E-005	0.00000E+000	-7.10674E-005	-5.99601E-002	7.14771E-001	3.57830E+000	9	...........
	12	0.173333	7.03410E-001	-9.89166E-005	0.00000E+000	-6.95789E-005	-5.99601E-002	7.03670E-001	3.57830E+000	9	...........
	13	0.186667	6.92209E-001	-9.88978E-005	0.00000E+000	-6.84579E-005	-5.99601E-002	6.92477E-001	3.57830E+000	9	...........
	14	0.2	6.80897E-001	-9.88728E-005	0.00000E+000	-6.73222E-005	-5.99601E-002	6.81134E-001	3.57830E+000	9	...........
	15	0.213333	6.69458E-001	-9.85300E-005	0.00000E+000	-6.59617E-005	-5.99601E-002	6.69697E-001	3.57830E+000	9	...........
	16	0.226667	6.57872E-001	-9.88905E-005	0.00000E+000	-6.50573E-005	-5.99601E-002	6.58125E-001	3.57830E+000	9	...........
	17	0.24	6.46195E-001	-9.92760E-005	0.00000E+000	-6.41517E-005	-5.99601E-002	6.46451E-001	3.57830E+000	9	...........
	18	0.253333	6.34387E-001	-9.88749E-005	0.00000E+000	-6.27250E-005	-5.99601E-002	6.34653E-001	3.57830E+000	9	...........
	19	0.266667	6.22494E-001	-9.94469E-005	0.00000E+000	-6.19051E-005	-5.99601E-002	6.22769E-001	3.57830E+000	9	...........
	20	0.28	6.10473E-001	-9.87082E-005	0.00000E+000	-6.02587E-005	-5.99601E-002	6.10804E-001	3.57830E+000	9	...........
	21	0.293333	5.98430E-001	-9.91510E-005	0.00000E+000	-5.93349E-005	-5.99601E-002	5.98738E-001	3.57830E+000	9	...........
	22	0.306667	5.86307E-001	-9.93156E-005	0.00000E+000	-5.82294E-005	-5.99601E-002	5.86610E-001	3.57830E+000	9	...........
	23	0.32	5.74161E-001	-9.86332E-005	0.00000E+000	-5.66313E-005	-5.99601E-002	5.74452E-001	3.57830E+000	9	...........
	24	0.333333	5.61925E-001	-1.00303E-004	0.00000E+000	-5.63630E-005	-5.99601E-002	5.62201E-001	3.57830E+000	9	...........
	25	0.346667	5.49665E-001	-9.85113E-005	0.00000E+000	-5.41482E-005	-5.99601E-002	5.49929E-001	3.57830E+000	9	...........
	26	0.36	5.37390E-001	-9.91052E-005	0.00000E+000	-5.32581E-005	-5.99601E-002	5.37657E-001	3.57830E+000	9	...........
	27	0.373333	5.25092E-001	-9.90489E-005	0.00000E+000	-5.20098E-005	-5.99601E-002	5.25327E-001	3.57830E+000	9	...........
	28	0.386667	5.12787E-001	-9.84373E-005	0.00000E+000	-5.04774E-005	-5.99601E-002	5.13038E-001	3.57830E+000	9	...........
	29	0.4	5.00430E-001	-9.82206E-005	0.00000E+000	-4.91525E-005	-5.99601E-002	5.00715E-001	3.57830E+000	9	...........
	30	0.413333	4.88192E-001	-9.88093E-005	0.00000E+000	-4.82379E-005	-5.99601E-002	4.88410E-001	3.57830E+000	9	...........
	31	0.426667	4.76137E-001	-9.89395E-005	0.00000E+000	-4.71088E-005	-5.99601E-002	4.76250E-001	3.57830E+000	9	...........
	32	0.44	4.63823E-001	-9.92312E-005	0.00000E+000	-4.60257E-005	-5.99601E-002	4.63925E-001	3.57830E+000	9	...........
	33	0.453333	4.51521E-001	-9.87301E-005	0.00000E+000	-4.45787E-005	-5.99601E-002	4.51621E-001	3.57830E+000	9	...........
	34	0.466667	4.39241E-001	-9.87530E-005	0.00000E+000	-4.33764E-005	-5.99601E-002	4.39340E-001	3.57830E+000	9	...........
	35	0.48	4.26977E-001	-9.92218E-005	0.00000E+000	-4.23654E-005	-5.99601E-002	4.27072E-001	3.57830E+000	9	...........
	36	0.493333	4.14731E-001	-9.95292E-005	0.00000E+000	-4.12779E-005	-5.99601E-002	4.14821E-001	3.57830E+000	9	...........
	37	0.506667	4.02506E-001	-9.95157E-005	0.00000E+000	-4.00556E-005	-5.99601E-002	4.02591E-001	3.57830E+000	9	...........
	38	0.52	3.90304E-001	-9.89051E-005	0.00000E+000	-3.86031E-005	-5.99601E-002	3.90386E-001	3.57830E+000	9	...........
	39	0.533333	3.78124E-001	-9.81133E-005	0.00000E+000	-3.70990E-005	-5.99601E-002	3.78204E-001	3.57830E+000	9	...........
	40	0.546667	3.65961E-001	-9.85811E-005	0.00000E+000	-3.60769E-005	-5.99601E-002	3.66045E-001	3.57830E+000	9	...........
	41	0.56	3.53831E-001	-9.83717E-005	0.00000E+000	-3.48070E-005	-5.99601E-002	3.53905E-001	3.57830E+000	9	...........
	42	0.573333	3.41700E-001	-9.92083E-005	0.00000E+000	-3.38994E-005	-5.99601E-002	3.41776E-001	3.57830E+000	9	...........
	43	0.586667	3.29600E-001	-9.87665E-005	0.00000E+000	-3.25534E-005	-5.99601E-002	3.29662E-001	3.57830E+000	9	...........
	44	0.6	3.17502E-001	-9.88093E-005	0.00000E+000	-3.13721E-005	-5.99601E-002	3.17572E-001	3.57830E+000	9	...........
	45	0.613333	3.05426E-001	-9.85530E-005	0.00000E+000	-3.01006E-005	-5.99601E-002	3.05489E-001	3.57830E+000	9	...........
	46	0.626667	2.93352E-001	-9.94396E-005	0.00000E+000	-2.91708E-005	-5.99601E-002	2.93411E-001	3.57830E+000	9	...........
	47	0.64	2.81274E-001	-9.98668E-005	0.00000E+000	-2.80899E-005	-5.99601E-002	2.81333E-001	3.57830E+000	9	...........
	48	0.653333	2.69193E-001	-9.88207E-005	0.00000E+000	-2.66019E-005	-5.99601E-002	2.69250E-001	3.57830E+000	9	...........
	49	0.666667	2.57111E-001	-9.92219E-005	0.00000E+000	-2.55111E-005	-5.99601E-002	2.57166E-001	3.57830E+000	9	...........
	50	0.68	2.45023E-001	-9.97532E-005	0.00000E+000	-2.44418E-005	-5.99601E-002	2.45072E-001	3.57830E+000	9	...........
	51	0.693333	2.32938E-001	-9.87999E-005	0.00000E+000	-2.30143E-005	-5.99601E-002	2.32985E-001	3.57830E+000	9	...........
	52	0.706667	2.20850E-001	-9.91948E-005	0.00000E+000	-2.19071E-005	-5.99601E-002	2.20892E-001	3.57830E+000	9	...........
	53	0.72	2.08761E-001	-9.86509E-005	0.00000E+000	-2.05945E-005	-5.99601E-002	2.08801E-001	3.57830E+000	9	...........
	54	0.733333	1.96682E-001	-9.89405E-005	0.00000E+000	-1.94598E-005	-5.99601E-002	1.96728E-001	3.57830E+000	9	...........
	55	0.746667	1.84621E-001	-9.87884E-005	0.00000E+000	-1.82384E-005	-5.99601E-002	1.84658E-001	3.57830E+000	9	...........
	56	0.76	1.72565E-001	-9.87374E-005	0.00000E+000	-1.70386E-005	-5.99601E-002	1.72598E-001	3.57830E+000	9	...........
	57	0.773333	1.60530E-001	-9.85300E-005	0.00000E+000	-1.58170E-005	-5.99601E-002	1.60563E-001	3.57830E+000	9	...........
	58	0.786667	1.48525E-001	-9.94990E-005	0.00000E+000	-1.47781E-005	-5.99601E-002	1.48554E-001	3.57830E+000	9	...........
	59	0.8	1.36546E-001	-9.83821E-005	0.00000E+000	-1.34337E-005	-5.99601E-002	1.36571E-001	3.57830E+000	9	...........
	60	0.813333	1.24590E-001	-9.83727E-005	0.00000E+000	-1.22562E-005	-5.99601E-002	1.24613E-001	3.57830E+000	9	...........
	61	0.826667	1.12676E-001	-9.89145E-005	0.00000E+000	-1.11453E-005	-5.99601E-002	1.12701E-001	3.57830E+000	9	...........
	62	0.84	1.00814E-001	-9.93406E-005	0.00000E+000	-1.00149E-005	-5.99601E-002	1.00835E-001	3.57830E+000	9	...........
	63	0.853333	8.90133E-002	-9.83883E-005	0.00000E+000	-8.75787E-006	-5.99601E-002	8.90365E-002	3.57830E+000	9	...........
	64	0.866667	7.72979E-002	-9.92948E-005	0.00000E+000	-7.67528E-006	-5.99601E-002	7.73071E-002	3.57830E+000	9	...........
	65	0.88	6.56585E-002	-9.89510E-005	0.00000E+000	-6.49697E-006	-5.99601E-002	6.56623E-002	3.57834E+000	9	...........
	66	0.893333	5.41028E-002	-9.91343E-005	0.00000E+000	-5.36344E-006	-5.99601E-002	5.41052E-002	3.57860E+000	9	...........
	67	0.906667	4.26841E-002	-9.82935E-005	0.00000E+000	-4.19557E-006	-5.99601E-002	4.26855E-002	3.57860E+000	9	...........
	68	0.92	3.13597E-002	-9.91510E-005	0.00000E+000	-3.10935E-006	-5.99601E-002	3.13534E-002	3.57860E+000	9	...........
	69	0.933333	2.01622E-002	-9.94354E-005	0.00000E+000	-2.00484E-006	-5.99601E-002	2.01508E-002	3.57860E+000	9	...........
	70	0.946667	9.09944E-003	-9.80143E-005	0.00000E+000	-8.91876E-007	-5.99601E-002	9.08249E-003	3.57860E+000	9	...........
	71	0.95333	8.99557E-004	-9.88916E-005	0.00000E+000	-8.89586E-008	-5.99601E-002	8.71762E-004	3.57860E+000	9	...........
STARTTIMEOFFSET	QUANT	259.795	Start Time Offset (s)
