EXPLAIN
TAG	PWR800_DISCHARGE
TITLE	LABEL	PWR Cyclic Charge Discharge (Cell) - Discharge Step	Test &Identifier
DATE	LABEL	12-7-2017	Date
TIME	LABEL	16:42:57	Time
NOTES	NOTES	2	&Notes...
	supercap test cell
	6M KOH
PSTAT	PSTAT	IFC5000-01520	Potentiostat
CAPACITY	QUANT	1.00000E-003	Capacity (A-hr)
CELLTYPE	SELECTOR	1	&Cell Type
WORKINGCONNECTION	SELECTOR	0	&Working Lead
MAXDISCHARGETIME	VARIABLEANDUNITS	1.00000E+002	s	1.00000E+002	second(s)	Max &Discharge Time
DISCHARGEMODE	MULTIPARAM	0	1.00000E-004	&Discharge Mode	Constant Current	Amp(s)
SAMPLETIME	QUANT	1.00000E-002	Sa&mple Period (s)
DISCHARGESTOPAT1	MULTIPARAM	3	0.00000E+000	Discharge Stop At &1	Voltage < Limit	V
DISCHARGESTOPAT2	MULTIPARAM	0	0.00000E+000	Discharge Stop At &2	None	N/A
AESBHCSELECTOR	TOGGLE	F	Save Both Half Cells
IRCOMP	TOGGLE	F	IR &Measure
EOC	QUANT	0	Open Circuit (V)
SEQUENCER	TOGGLE	TRUE	Run as Sequence
PSTATMODEL	IQUANT	53	Pstat Model
PSTATSECTION	LABEL	IFC5000-01520	Pstat Section
PSTATSERIALNO	LABEL	01520	Pstat Serial Number
CTRLMODE	IQUANT	0	Control Mode
ELECTROMETER	IQUANT	1	RE=0 or CS=1
IESTAB	IQUANT	0	I/E Stability
CASPEED	IQUANT	4	Control Amp Speed
CONVENTION	IQUANT	1	Current Convention
ICHRANGE	IQUANT	2	Ich Range
ICHRANGEMODE	TOGGLE	T	Ich Auto Range
ICHOFFSETENABLE	TOGGLE	F	Ich Offset Enable
ICHOFFSET	QUANT	0	Ich Offset (V)
ICHFILTER	IQUANT	1	Ich Filter
VCHRANGE	IQUANT	2	Vch Range
VCHRANGEMODE	TOGGLE	T	Vch Auto Range
VCHOFFSETENABLE	TOGGLE	F	Vch Offset Enable
VCHOFFSET	QUANT	0	Vch Offset (V)
VCHFILTER	IQUANT	1	Vch Filter
IERANGELOWERLIMIT	IQUANT	9	I/E Range Lower Limit
IERANGEMODE	TOGGLE	F	I/E AutoRange
IERANGE	IQUANT	9	I/E Range
ACHSELECT	IQUANT	1	Ach Select
ACHRANGE	IQUANT	2	Ach Range
ACHOFFSETENABLE	TOGGLE	F	Ach Offset Enable
ACHOFFSET	QUANT	0	Ach Offset (V)
ACHFILTER	IQUANT	1	Ach Filter
CABLEID	IQUANT	14	Cable ID
DCCALDATE	LABEL	5-7-2017	DC Calibration Date
ACCALDATE	LABEL	12/3/2015	AC Calibration Date
FRAMEWORKVERSION	QUANT	7.01	Framework Version
INSTRUMENTVERSION	LABEL	4.00	Instrument Version
CURVE	TABLE	71
	Pt	T	Vf	Im	Vu	Pwr	Sig	Ach	Temp	IERange	Over
	#	s	V	A	V	W	V	V	deg C	#	bits
	0	0.013333	8.46656E-001	-9.89874E-005	0.00000E+000	-8.38083E-005	-5.99601E-002	8.46969E-001	3.57790E+000	9	...........
	1	0.026667	8.33530E-001	-9.86832E-005	0.00000E+000	-8.22554E-005	-5.99601E-002	8.33813E-001	3.57790E+000	9	...........
	2	0.04	8.21004E-001	-9.83331E-005	0.00000E+000	-8.07319E-005	-5.99601E-002	8.21270E-001	3.57790E+000	9	...........
	3	0.053333	8.08835E-001	-9.83842E-005	0.00000E+000	-7.95766E-005	-5.99601E-002	8.09071E-001	3.57790E+000	9	...........
	4	0.066667	7.96930E-001	-9.91291E-005	0.00000E+000	-7.89989E-005	-5.99601E-002	7.97182E-001	3.57790E+000	9	...........
	5	0.08	7.85205E-001	-9.84467E-005	0.00000E+000	-7.73009E-005	-5.99601E-002	7.85466E-001	3.57790E+000	9	...........
	6	0.093333	7.73650E-001	-9.89645E-005	0.00000E+000	-7.65639E-005	-5.99601E-002	7.73912E-001	3.57790E+000	9	...........
	7	0.106667	7.62199E-001	-9.85967E-005	0.00000E+000	-7.51504E-005	-5.99601E-002	7.62472E-001	3.57790E+000	9	...........
	8	0.12	7.50896E-001	-9.83237E-005	0.00000E+000	-7.38310E-005	-5.99601E-002	7.51164E-001	3.57790E+000	9	...........
	9	0.133333	7.39676E-001	-9.79924E-005	0.00000E+000	-7.24826E-005	-5.99601E-002	7.39946E-001	3.57790E+000	9	...........
	10	0.146667	7.28551E-001	-9.84561E-005	0.00000E+000	-7.17302E-005	-5.99601E-002	7.28805E-001	3.57790E+000	9	...........
	11	0.16	7.17493E-001	-9.94802E-005	0.00000E+000	-7.13764E-005	-5.99601E-002	7.17738E-001	3.57790E+000	9	...........
	12	0.173333	7.06513E-001	-9.85498E-005	0.00000E+000	-6.96267E-005	-5.99601E-002	7.06776E-001	3.57790E+000	9	...........
	13	0.186667	6.95637E-001	-9.71381E-005	0.00000E+000	-6.75729E-005	-5.99601E-002	6.95895E-001	3.57790E+000	9	...........
	14	0.2	6.84823E-001	-9.85863E-005	0.00000E+000	-6.75142E-005	-5.99601E-002	6.85068E-001	3.57790E+000	9	...........
	15	0.213333	6.74068E-001	-9.85227E-005	0.00000E+000	-6.64110E-005	-5.99601E-002	6.74312E-001	3.57790E+000	9	...........
	16	0.226667	6.63333E-001	-1.00886E-004	0.00000E+000	-6.69208E-005	-5.99601E-002	6.63583E-001	3.57790E+000	9	...........
	17	0.24	6.52634E-001	-9.82050E-005	0.00000E+000	-6.40919E-005	-5.99601E-002	6.52863E-001	3.57790E+000	9	...........
	18	0.253333	6.41884E-001	-9.88280E-005	0.00000E+000	-6.34361E-005	-5.99601E-002	6.42101E-001	3.57790E+000	9	...........
	19	0.266667	6.31065E-001	-9.95386E-005	0.00000E+000	-6.28153E-005	-5.99601E-002	6.31281E-001	3.57790E+000	9	...........
	20	0.28	6.20136E-001	-9.81175E-005	0.00000E+000	-6.08461E-005	-5.99601E-002	6.20302E-001	3.57790E+000	9	...........
	21	0.293333	6.08935E-001	-9.81435E-005	0.00000E+000	-5.97630E-005	-5.99601E-002	6.09179E-001	3.57790E+000	9	...........
	22	0.306667	5.97617E-001	-9.94313E-005	0.00000E+000	-5.94218E-005	-5.99601E-002	5.97861E-001	3.57790E+000	9	...........
	23	0.32	5.86083E-001	-9.88009E-005	0.00000E+000	-5.79055E-005	-5.99601E-002	5.86308E-001	3.57790E+000	9	...........
	24	0.333333	5.74340E-001	-9.92250E-005	0.00000E+000	-5.69889E-005	-5.99601E-002	5.74573E-001	3.57790E+000	9	...........
	25	0.346667	5.62378E-001	-9.79466E-005	0.00000E+000	-5.50830E-005	-5.99601E-002	5.62602E-001	3.57790E+000	9	...........
	26	0.36	5.50222E-001	-9.85738E-005	0.00000E+000	-5.42375E-005	-5.99601E-002	5.50459E-001	3.57790E+000	9	...........
	27	0.373333	5.37920E-001	-9.83050E-005	0.00000E+000	-5.28802E-005	-5.99601E-002	5.38117E-001	3.57790E+000	9	...........
	28	0.386667	5.25406E-001	-9.92479E-005	0.00000E+000	-5.21454E-005	-5.99601E-002	5.25611E-001	3.57790E+000	9	...........
	29	0.4	5.12776E-001	-9.99376E-005	0.00000E+000	-5.12456E-005	-5.99601E-002	5.12987E-001	3.57790E+000	9	...........
	30	0.413333	4.99971E-001	-1.00524E-004	0.00000E+000	-5.02592E-005	-5.99601E-002	5.00209E-001	3.57790E+000	9	...........
	31	0.426667	4.87184E-001	-9.81945E-005	0.00000E+000	-4.78388E-005	-5.99601E-002	4.87385E-001	3.57790E+000	9	...........
	32	0.44	4.74430E-001	-9.85790E-005	0.00000E+000	-4.67689E-005	-5.99601E-002	4.74535E-001	3.57790E+000	9	...........
	33	0.453333	4.61344E-001	-9.95876E-005	0.00000E+000	-4.59441E-005	-5.99601E-002	4.61448E-001	3.57790E+000	9	...........
	34	0.466667	4.48189E-001	-9.89207E-005	0.00000E+000	-4.43352E-005	-5.99601E-002	4.48285E-001	3.57790E+000	9	...........
	35	0.48	4.34963E-001	-9.80914E-005	0.00000E+000	-4.26661E-005	-5.99601E-002	4.35058E-001	3.57790E+000	9	...........
	36	0.493333	4.21678E-001	-9.95365E-005	0.00000E+000	-4.19723E-005	-5.99601E-002	4.21774E-001	3.57790E+000	9	...........
	37	0.506667	4.08374E-001	-9.79528E-005	0.00000E+000	-4.00014E-005	-5.99601E-002	4.08456E-001	3.57790E+000	9	...........
	38	0.52	3.95031E-001	-9.91500E-005	0.00000E+000	-3.91673E-005	-5.99601E-002	3.95109E-001	3.57790E+000	9	...........
	39	0.533333	3.81678E-001	-9.92312E-005	0.00000E+000	-3.78744E-005	-5.99601E-002	3.81755E-001	3.57790E+000	9	...........
	40	0.546667	3.68324E-001	-1.00411E-004	0.00000E+000	-3.69836E-005	-5.99601E-002	3.68399E-001	3.57790E+000	9	...........
	41	0.56	3.54982E-001	-9.96219E-005	0.00000E+000	-3.53640E-005	-5.99601E-002	3.55050E-001	3.57734E+000	9	...........
	42	0.573333	3.41643E-001	-9.86040E-005	0.00000E+000	-3.36873E-005	-5.99601E-002	3.41714E-001	3.57640E+000	9	...........
	43	0.586667	3.28344E-001	-9.79633E-005	0.00000E+000	-3.21656E-005	-5.99601E-002	3.28414E-001	3.57640E+000	9	...........
	44	0.6	3.15084E-001	-9.83998E-005	0.00000E+000	-3.10042E-005	-5.99601E-002	3.15154E-001	3.57640E+000	9	...........
	45	0.613333	3.01872E-001	-9.96574E-005	0.00000E+000	-3.00837E-005	-5.99601E-002	3.01941E-001	3.57640E+000	9	...........
	46	0.626667	2.88710E-001	-9.78601E-005	0.00000E+000	-2.82532E-005	-5.99601E-002	2.88775E-001	3.57640E+000	9	...........
	47	0.64	2.75601E-001	-9.94104E-005	0.00000E+000	-2.73976E-005	-5.99601E-002	2.75666E-001	3.57640E+000	9	...........
	48	0.653333	2.62559E-001	-9.88905E-005	0.00000E+000	-2.59646E-005	-5.99601E-002	2.62619E-001	3.57640E+000	9	...........
	49	0.666667	2.49578E-001	-9.81331E-005	0.00000E+000	-2.44919E-005	-5.99601E-002	2.49634E-001	3.57640E+000	9	...........
	50	0.68	2.36670E-001	-9.75673E-005	0.00000E+000	-2.30912E-005	-5.99601E-002	2.36719E-001	3.57640E+000	9	...........
	51	0.693333	2.23824E-001	-9.73267E-005	0.00000E+000	-2.17840E-005	-5.99601E-002	2.23870E-001	3.57640E+000	9	...........
	52	0.706667	2.11053E-001	-9.83008E-005	0.00000E+000	-2.07466E-005	-5.99601E-002	2.11092E-001	3.57640E+000	9	...........
	53	0.72	1.98343E-001	-9.95771E-005	0.00000E+000	-1.97504E-005	-5.99601E-002	1.98383E-001	3.57640E+000	9	...........
	54	0.733333	1.85702E-001	-9.89020E-005	0.00000E+000	-1.83663E-005	-5.99601E-002	1.85740E-001	3.57640E+000	9	...........
	55	0.746667	1.73137E-001	-9.86634E-005	0.00000E+000	-1.70823E-005	-5.99601E-002	1.73172E-001	3.57640E+000	9	...........
	56	0.76	1.60636E-001	-9.99491E-005	0.00000E+000	-1.60554E-005	-5.99601E-002	1.60660E-001	3.57640E+000	9	...........
	57	0.773333	1.48199E-001	-9.91385E-005	0.00000E+000	-1.46922E-005	-5.99601E-002	1.48228E-001	3.57640E+000	9	...........
	58	0.786667	1.35844E-001	-9.90874E-005	0.00000E+000	-1.34604E-005	-5.99601E-002	1.35870E-001	3.57640E+000	9	...........
	59	0.8	1.23554E-001	-9.79883E-005	0.00000E+000	-1.21068E-005	-5.99601E-002	1.23585E-001	3.57640E+000	9	...........
	60	0.813333	1.11340E-001	-9.93854E-005	0.00000E+000	-1.10656E-005	-5.99601E-002	1.11364E-001	3.57640E+000	9	...........
	61	0.826667	9.92209E-002	-9.86759E-005	0.00000E+000	-9.79072E-006	-5.99601E-002	9.92388E-002	3.57640E+000	9	...........
	62	0.84	8.71918E-002	-9.95438E-005	0.00000E+000	-8.67941E-006	-5.99601E-002	8.72101E-002	3.57640E+000	9	...........
	63	0.853333	7.52789E-002	-9.86248E-005	0.00000E+000	-7.42437E-006	-5.99601E-002	7.52883E-002	3.57640E+000	9	...........
	64	0.866667	6.34670E-002	-9.98001E-005	0.00000E+000	-6.33401E-006	-5.99601E-002	6.34800E-002	3.57640E+000	9	...........
	65	0.88	5.17884E-002	-9.93073E-005	0.00000E+000	-5.14297E-006	-5.99601E-002	5.17959E-002	3.57640E+000	9	...........
	66	0.893333	4.02883E-002	-9.93688E-005	0.00000E+000	-4.00340E-006	-5.99601E-002	4.02914E-002	3.57640E+000	9	...........
	67	0.906667	2.88931E-002	-9.76705E-005	0.00000E+000	-2.82201E-006	-5.99601E-002	2.88951E-002	3.57640E+000	9	...........
	68	0.92	1.76635E-002	-9.81518E-005	0.00000E+000	-1.73370E-006	-5.99601E-002	1.76549E-002	3.57640E+000	9	...........
	69	0.933333	6.60462E-003	-9.79476E-005	0.00000E+000	-6.46907E-007	-5.99601E-002	6.58686E-003	3.57640E+000	9	...........
	70	0.936667	-2.31790E-004	-1.00365E-004	0.00000E+000	2.32635E-008	-5.99601E-002	-2.44462E-004	3.57640E+000	9	...........
STARTTIMEOFFSET	QUANT	1403.165	Start Time Offset (s)
