EXPLAIN
TAG	PWR800_DISCHARGE
TITLE	LABEL	PWR Cyclic Charge Discharge (Cell) - Discharge Step	Test &Identifier
DATE	LABEL	12-7-2017	Date
TIME	LABEL	16:32:25	Time
NOTES	NOTES	2	&Notes...
	supercap test cell
	6M KOH
PSTAT	PSTAT	IFC5000-01520	Potentiostat
CAPACITY	QUANT	1.00000E-003	Capacity (A-hr)
CELLTYPE	SELECTOR	1	&Cell Type
WORKINGCONNECTION	SELECTOR	0	&Working Lead
MAXDISCHARGETIME	VARIABLEANDUNITS	1.00000E+002	s	1.00000E+002	second(s)	Max &Discharge Time
DISCHARGEMODE	MULTIPARAM	0	1.00000E-004	&Discharge Mode	Constant Current	Amp(s)
SAMPLETIME	QUANT	1.00000E-002	Sa&mple Period (s)
DISCHARGESTOPAT1	MULTIPARAM	3	0.00000E+000	Discharge Stop At &1	Voltage < Limit	V
DISCHARGESTOPAT2	MULTIPARAM	0	0.00000E+000	Discharge Stop At &2	None	N/A
AESBHCSELECTOR	TOGGLE	F	Save Both Half Cells
IRCOMP	TOGGLE	F	IR &Measure
EOC	QUANT	0	Open Circuit (V)
SEQUENCER	TOGGLE	TRUE	Run as Sequence
PSTATMODEL	IQUANT	53	Pstat Model
PSTATSECTION	LABEL	IFC5000-01520	Pstat Section
PSTATSERIALNO	LABEL	01520	Pstat Serial Number
CTRLMODE	IQUANT	0	Control Mode
ELECTROMETER	IQUANT	1	RE=0 or CS=1
IESTAB	IQUANT	0	I/E Stability
CASPEED	IQUANT	4	Control Amp Speed
CONVENTION	IQUANT	1	Current Convention
ICHRANGE	IQUANT	2	Ich Range
ICHRANGEMODE	TOGGLE	T	Ich Auto Range
ICHOFFSETENABLE	TOGGLE	F	Ich Offset Enable
ICHOFFSET	QUANT	0	Ich Offset (V)
ICHFILTER	IQUANT	1	Ich Filter
VCHRANGE	IQUANT	2	Vch Range
VCHRANGEMODE	TOGGLE	T	Vch Auto Range
VCHOFFSETENABLE	TOGGLE	F	Vch Offset Enable
VCHOFFSET	QUANT	0	Vch Offset (V)
VCHFILTER	IQUANT	1	Vch Filter
IERANGELOWERLIMIT	IQUANT	9	I/E Range Lower Limit
IERANGEMODE	TOGGLE	F	I/E AutoRange
IERANGE	IQUANT	9	I/E Range
ACHSELECT	IQUANT	1	Ach Select
ACHRANGE	IQUANT	2	Ach Range
ACHOFFSETENABLE	TOGGLE	F	Ach Offset Enable
ACHOFFSET	QUANT	0	Ach Offset (V)
ACHFILTER	IQUANT	1	Ach Filter
CABLEID	IQUANT	14	Cable ID
DCCALDATE	LABEL	5-7-2017	DC Calibration Date
ACCALDATE	LABEL	12/3/2015	AC Calibration Date
FRAMEWORKVERSION	QUANT	7.01	Framework Version
INSTRUMENTVERSION	LABEL	4.00	Instrument Version
CURVE	TABLE	71
	Pt	T	Vf	Im	Vu	Pwr	Sig	Ach	Temp	IERange	Over
	#	s	V	A	V	W	V	V	deg C	#	bits
	0	0.013333	8.46436E-001	-9.79851E-005	0.00000E+000	-8.29381E-005	-5.99601E-002	8.46726E-001	3.57710E+000	9	...........
	1	0.026667	8.33378E-001	-9.86415E-005	0.00000E+000	-8.22057E-005	-5.99601E-002	8.33680E-001	3.57710E+000	9	...........
	2	0.04	8.20959E-001	-9.81706E-005	0.00000E+000	-8.05940E-005	-5.99601E-002	8.21223E-001	3.57710E+000	9	...........
	3	0.053333	8.08872E-001	-9.85498E-005	0.00000E+000	-7.97142E-005	-5.99601E-002	8.09133E-001	3.57710E+000	9	...........
	4	0.066667	7.97082E-001	-9.85801E-005	0.00000E+000	-7.85764E-005	-5.99601E-002	7.97326E-001	3.57710E+000	9	...........
	5	0.08	7.85465E-001	-9.87290E-005	0.00000E+000	-7.75483E-005	-5.99601E-002	7.85714E-001	3.57710E+000	9	...........
	6	0.093333	7.74047E-001	-9.86832E-005	0.00000E+000	-7.63855E-005	-5.99601E-002	7.74294E-001	3.57710E+000	9	...........
	7	0.106667	7.62740E-001	-9.79789E-005	0.00000E+000	-7.47324E-005	-5.99601E-002	7.62980E-001	3.57710E+000	9	...........
	8	0.12	7.51544E-001	-9.84321E-005	0.00000E+000	-7.39761E-005	-5.99601E-002	7.51785E-001	3.57710E+000	9	...........
	9	0.133333	7.40464E-001	-9.86248E-005	0.00000E+000	-7.30281E-005	-5.99601E-002	7.40713E-001	3.57710E+000	9	...........
	10	0.146667	7.29480E-001	-9.89822E-005	0.00000E+000	-7.22055E-005	-5.99601E-002	7.29720E-001	3.57710E+000	9	...........
	11	0.16	7.18576E-001	-9.83571E-005	0.00000E+000	-7.06770E-005	-5.99601E-002	7.18820E-001	3.57710E+000	9	...........
	12	0.173333	7.07748E-001	-9.92010E-005	0.00000E+000	-7.02093E-005	-5.99601E-002	7.07996E-001	3.57710E+000	9	...........
	13	0.186667	6.97007E-001	-9.83112E-005	0.00000E+000	-6.85236E-005	-5.99601E-002	6.97257E-001	3.57710E+000	9	...........
	14	0.2	6.86323E-001	-1.00073E-004	0.00000E+000	-6.86824E-005	-5.99601E-002	6.86554E-001	3.57710E+000	9	...........
	15	0.213333	6.75690E-001	-9.91541E-005	0.00000E+000	-6.69974E-005	-5.99601E-002	6.75905E-001	3.57710E+000	9	...........
	16	0.226667	6.65018E-001	-9.84581E-005	0.00000E+000	-6.54765E-005	-5.99601E-002	6.65267E-001	3.57710E+000	9	...........
	17	0.24	6.54328E-001	-9.98532E-005	0.00000E+000	-6.53368E-005	-5.99601E-002	6.54569E-001	3.57710E+000	9	...........
	18	0.253333	6.43546E-001	-9.82112E-005	0.00000E+000	-6.32034E-005	-5.99601E-002	6.43797E-001	3.57710E+000	9	...........
	19	0.266667	6.32624E-001	-9.86426E-005	0.00000E+000	-6.24036E-005	-5.99601E-002	6.32878E-001	3.57710E+000	9	...........
	20	0.28	6.21607E-001	-9.94594E-005	0.00000E+000	-6.18247E-005	-5.99601E-002	6.21838E-001	3.57710E+000	9	...........
	21	0.293333	6.10299E-001	-9.88926E-005	0.00000E+000	-6.03541E-005	-5.99601E-002	6.10583E-001	3.57710E+000	9	...........
	22	0.306667	5.98853E-001	-9.86738E-005	0.00000E+000	-5.90911E-005	-5.99601E-002	5.99116E-001	3.57710E+000	9	...........
	23	0.32	5.87212E-001	-9.82852E-005	0.00000E+000	-5.77143E-005	-5.99601E-002	5.87492E-001	3.57710E+000	9	...........
	24	0.333333	5.75402E-001	-9.76413E-005	0.00000E+000	-5.61830E-005	-5.99601E-002	5.75652E-001	3.57710E+000	9	...........
	25	0.346667	5.63405E-001	-9.78153E-005	0.00000E+000	-5.51096E-005	-5.99601E-002	5.63640E-001	3.57710E+000	9	...........
	26	0.36	5.51199E-001	-9.84238E-005	0.00000E+000	-5.42511E-005	-5.99601E-002	5.51449E-001	3.57710E+000	9	...........
	27	0.373333	5.38888E-001	-9.92531E-005	0.00000E+000	-5.34863E-005	-5.99601E-002	5.39140E-001	3.57710E+000	9	...........
	28	0.386667	5.26421E-001	-9.91437E-005	0.00000E+000	-5.21913E-005	-5.99601E-002	5.26647E-001	3.57710E+000	9	...........
	29	0.4	5.13841E-001	-9.83196E-005	0.00000E+000	-5.05207E-005	-5.99601E-002	5.14041E-001	3.57710E+000	9	...........
	30	0.413333	5.01120E-001	-9.83727E-005	0.00000E+000	-4.92966E-005	-5.99601E-002	5.01331E-001	3.57710E+000	9	...........
	31	0.426667	4.88369E-001	-9.82717E-005	0.00000E+000	-4.79928E-005	-5.99601E-002	4.88559E-001	3.57710E+000	9	...........
	32	0.44	4.75732E-001	-9.92396E-005	0.00000E+000	-4.72115E-005	-5.99601E-002	4.75835E-001	3.57710E+000	9	...........
	33	0.453333	4.62760E-001	-9.82894E-005	0.00000E+000	-4.54844E-005	-5.99601E-002	4.62863E-001	3.57710E+000	9	...........
	34	0.466667	4.49725E-001	-9.79028E-005	0.00000E+000	-4.40293E-005	-5.99601E-002	4.49826E-001	3.57710E+000	9	...........
	35	0.48	4.36640E-001	-9.85092E-005	0.00000E+000	-4.30131E-005	-5.99601E-002	4.36742E-001	3.57710E+000	9	...........
	36	0.493333	4.23520E-001	-9.89416E-005	0.00000E+000	-4.19037E-005	-5.99601E-002	4.23615E-001	3.57710E+000	9	...........
	37	0.506667	4.10376E-001	-9.85853E-005	0.00000E+000	-4.04570E-005	-5.99601E-002	4.10465E-001	3.57710E+000	9	...........
	38	0.52	3.97231E-001	-9.70829E-005	0.00000E+000	-3.85643E-005	-5.99601E-002	3.97313E-001	3.57710E+000	9	...........
	39	0.533333	3.84071E-001	-9.84717E-005	0.00000E+000	-3.78201E-005	-5.99601E-002	3.84152E-001	3.57710E+000	9	...........
	40	0.546667	3.70921E-001	-9.91093E-005	0.00000E+000	-3.67617E-005	-5.99601E-002	3.71001E-001	3.57710E+000	9	...........
	41	0.56	3.57781E-001	-9.81029E-005	0.00000E+000	-3.50994E-005	-5.99601E-002	3.57857E-001	3.57710E+000	9	...........
	42	0.573333	3.44655E-001	-9.91260E-005	0.00000E+000	-3.41643E-005	-5.99601E-002	3.44729E-001	3.57710E+000	9	...........
	43	0.586667	3.31573E-001	-9.87936E-005	0.00000E+000	-3.27573E-005	-5.99601E-002	3.31645E-001	3.57710E+000	9	...........
	44	0.6	3.18541E-001	-9.82216E-005	0.00000E+000	-3.12876E-005	-5.99601E-002	3.18611E-001	3.57710E+000	9	...........
	45	0.613333	3.05546E-001	-9.69651E-005	0.00000E+000	-2.96273E-005	-5.99601E-002	3.05608E-001	3.57710E+000	9	...........
	46	0.626667	2.92593E-001	-9.93198E-005	0.00000E+000	-2.90603E-005	-5.99601E-002	2.92652E-001	3.57710E+000	9	...........
	47	0.64	2.79694E-001	-9.80476E-005	0.00000E+000	-2.74234E-005	-5.99601E-002	2.79754E-001	3.57755E+000	9	...........
	48	0.653333	2.66853E-001	-9.91395E-005	0.00000E+000	-2.64557E-005	-5.99601E-002	2.66915E-001	3.57860E+000	9	...........
	49	0.666667	2.54068E-001	-9.89937E-005	0.00000E+000	-2.51512E-005	-5.99601E-002	2.54122E-001	3.57860E+000	9	...........
	50	0.68	2.41353E-001	-9.93750E-005	0.00000E+000	-2.39845E-005	-5.99601E-002	2.41400E-001	3.57860E+000	9	...........
	51	0.693333	2.28690E-001	-9.98313E-005	0.00000E+000	-2.28305E-005	-5.99601E-002	2.28729E-001	3.57860E+000	9	...........
	52	0.706667	2.16084E-001	-9.89176E-005	0.00000E+000	-2.13745E-005	-5.99601E-002	2.16126E-001	3.57860E+000	9	...........
	53	0.72	2.03527E-001	-9.99616E-005	0.00000E+000	-2.03449E-005	-5.99601E-002	2.03567E-001	3.57860E+000	9	...........
	54	0.733333	1.91035E-001	-9.86540E-005	0.00000E+000	-1.88464E-005	-5.99601E-002	1.91073E-001	3.57860E+000	9	...........
	55	0.746667	1.78588E-001	-9.85978E-005	0.00000E+000	-1.76084E-005	-5.99601E-002	1.78624E-001	3.57860E+000	9	...........
	56	0.76	1.66199E-001	-9.89958E-005	0.00000E+000	-1.64530E-005	-5.99601E-002	1.66227E-001	3.57860E+000	9	...........
	57	0.773333	1.53858E-001	-9.93010E-005	0.00000E+000	-1.52783E-005	-5.99601E-002	1.53884E-001	3.57860E+000	9	...........
	58	0.786667	1.41568E-001	-9.90801E-005	0.00000E+000	-1.40265E-005	-5.99601E-002	1.41592E-001	3.57860E+000	9	...........
	59	0.8	1.29341E-001	-9.87551E-005	0.00000E+000	-1.27731E-005	-5.99601E-002	1.29362E-001	3.57860E+000	9	...........
	60	0.813333	1.17182E-001	-9.93396E-005	0.00000E+000	-1.16408E-005	-5.99601E-002	1.17200E-001	3.57860E+000	9	...........
	61	0.826667	1.05102E-001	-9.86155E-005	0.00000E+000	-1.03647E-005	-5.99601E-002	1.05126E-001	3.57860E+000	9	...........
	62	0.84	9.31051E-002	-9.97636E-005	0.00000E+000	-9.28850E-006	-5.99601E-002	9.31203E-002	3.57860E+000	9	...........
	63	0.853333	8.12052E-002	-9.92125E-005	0.00000E+000	-8.05657E-006	-5.99601E-002	8.12170E-002	3.57860E+000	9	...........
	64	0.866667	6.94070E-002	-9.92729E-005	0.00000E+000	-6.89023E-006	-5.99601E-002	6.94126E-002	3.57860E+000	9	...........
	65	0.88	5.77165E-002	-9.89280E-005	0.00000E+000	-5.70978E-006	-5.99601E-002	5.77199E-002	3.57860E+000	9	...........
	66	0.893333	4.61661E-002	-9.85144E-005	0.00000E+000	-4.54803E-006	-5.99601E-002	4.61690E-002	3.57860E+000	9	...........
	67	0.906667	3.47375E-002	-9.90895E-005	0.00000E+000	-3.44212E-006	-5.99601E-002	3.47374E-002	3.57860E+000	9	...........
	68	0.92	2.34413E-002	-9.83029E-005	0.00000E+000	-2.30434E-006	-5.99601E-002	2.34335E-002	3.57860E+000	9	...........
	69	0.933333	1.22967E-002	-9.81862E-005	0.00000E+000	-1.20736E-006	-5.99601E-002	1.22837E-002	3.57860E+000	9	...........
	70	0.943333	2.67590E-003	-9.98577E-005	0.00000E+000	-2.67209E-007	-5.99601E-002	2.65709E-003	3.57860E+000	9	...........
STARTTIMEOFFSET	QUANT	956.737	Start Time Offset (s)
