EXPLAIN
TAG	PWR800_DISCHARGE
TITLE	LABEL	PWR Cyclic Charge Discharge (Cell) - Discharge Step	Test &Identifier
DATE	LABEL	12-7-2017	Date
TIME	LABEL	16:22:31	Time
NOTES	NOTES	2	&Notes...
	supercap test cell
	6M KOH
PSTAT	PSTAT	IFC5000-01520	Potentiostat
CAPACITY	QUANT	1.00000E-003	Capacity (A-hr)
CELLTYPE	SELECTOR	1	&Cell Type
WORKINGCONNECTION	SELECTOR	0	&Working Lead
MAXDISCHARGETIME	VARIABLEANDUNITS	1.00000E+002	s	1.00000E+002	second(s)	Max &Discharge Time
DISCHARGEMODE	MULTIPARAM	0	1.00000E-004	&Discharge Mode	Constant Current	Amp(s)
SAMPLETIME	QUANT	1.00000E-002	Sa&mple Period (s)
DISCHARGESTOPAT1	MULTIPARAM	3	0.00000E+000	Discharge Stop At &1	Voltage < Limit	V
DISCHARGESTOPAT2	MULTIPARAM	0	0.00000E+000	Discharge Stop At &2	None	N/A
AESBHCSELECTOR	TOGGLE	F	Save Both Half Cells
IRCOMP	TOGGLE	F	IR &Measure
EOC	QUANT	0	Open Circuit (V)
SEQUENCER	TOGGLE	TRUE	Run as Sequence
PSTATMODEL	IQUANT	53	Pstat Model
PSTATSECTION	LABEL	IFC5000-01520	Pstat Section
PSTATSERIALNO	LABEL	01520	Pstat Serial Number
CTRLMODE	IQUANT	0	Control Mode
ELECTROMETER	IQUANT	1	RE=0 or CS=1
IESTAB	IQUANT	0	I/E Stability
CASPEED	IQUANT	4	Control Amp Speed
CONVENTION	IQUANT	1	Current Convention
ICHRANGE	IQUANT	2	Ich Range
ICHRANGEMODE	TOGGLE	T	Ich Auto Range
ICHOFFSETENABLE	TOGGLE	F	Ich Offset Enable
ICHOFFSET	QUANT	0	Ich Offset (V)
ICHFILTER	IQUANT	1	Ich Filter
VCHRANGE	IQUANT	2	Vch Range
VCHRANGEMODE	TOGGLE	T	Vch Auto Range
VCHOFFSETENABLE	TOGGLE	F	Vch Offset Enable
VCHOFFSET	QUANT	0	Vch Offset (V)
VCHFILTER	IQUANT	1	Vch Filter
IERANGELOWERLIMIT	IQUANT	9	I/E Range Lower Limit
IERANGEMODE	TOGGLE	F	I/E AutoRange
IERANGE	IQUANT	9	I/E Range
ACHSELECT	IQUANT	1	Ach Select
ACHRANGE	IQUANT	2	Ach Range
ACHOFFSETENABLE	TOGGLE	F	Ach Offset Enable
ACHOFFSET	QUANT	0	Ach Offset (V)
ACHFILTER	IQUANT	1	Ach Filter
CABLEID	IQUANT	14	Cable ID
DCCALDATE	LABEL	5-7-2017	DC Calibration Date
ACCALDATE	LABEL	12/3/2015	AC Calibration Date
FRAMEWORKVERSION	QUANT	7.01	Framework Version
INSTRUMENTVERSION	LABEL	4.00	Instrument Version
CURVE	TABLE	71
	Pt	T	Vf	Im	Vu	Pwr	Sig	Ach	Temp	IERange	Over
	#	s	V	A	V	W	V	V	deg C	#	bits
	0	0.013333	8.41898E-001	-9.93563E-005	0.00000E+000	-8.36478E-005	-5.99601E-002	8.42234E-001	3.57830E+000	9	...........
	1	0.026667	8.28963E-001	-9.89385E-005	0.00000E+000	-8.20163E-005	-5.99601E-002	8.29290E-001	3.57830E+000	9	...........
	2	0.04	8.16631E-001	-9.97240E-005	0.00000E+000	-8.14377E-005	-5.99601E-002	8.16951E-001	3.57830E+000	9	...........
	3	0.053333	8.04675E-001	-9.89082E-005	0.00000E+000	-7.95890E-005	-5.99601E-002	8.04972E-001	3.57830E+000	9	...........
	4	0.066667	7.93006E-001	-9.89739E-005	0.00000E+000	-7.84869E-005	-5.99601E-002	7.93297E-001	3.57830E+000	9	...........
	5	0.08	7.81529E-001	-9.71995E-005	0.00000E+000	-7.59643E-005	-5.99601E-002	7.81807E-001	3.57830E+000	9	...........
	6	0.093333	7.70220E-001	-9.93417E-005	0.00000E+000	-7.65149E-005	-5.99601E-002	7.70520E-001	3.57830E+000	9	...........
	7	0.106667	7.59038E-001	-1.00045E-004	0.00000E+000	-7.59379E-005	-5.99601E-002	7.59311E-001	3.57830E+000	9	...........
	8	0.12	7.48020E-001	-9.87676E-005	0.00000E+000	-7.38802E-005	-5.99601E-002	7.48295E-001	3.57830E+000	9	...........
	9	0.133333	7.37080E-001	-9.91958E-005	0.00000E+000	-7.31152E-005	-5.99601E-002	7.37359E-001	3.57830E+000	9	...........
	10	0.146667	7.26264E-001	-9.81883E-005	0.00000E+000	-7.13106E-005	-5.99601E-002	7.26503E-001	3.57830E+000	9	...........
	11	0.16	7.15466E-001	-9.90301E-005	0.00000E+000	-7.08527E-005	-5.99601E-002	7.15734E-001	3.57830E+000	9	...........
	12	0.173333	7.04749E-001	-9.82008E-005	0.00000E+000	-6.92070E-005	-5.99601E-002	7.05009E-001	3.57830E+000	9	...........
	13	0.186667	6.94043E-001	-9.84019E-005	0.00000E+000	-6.82951E-005	-5.99601E-002	6.94319E-001	3.57830E+000	9	...........
	14	0.2	6.83319E-001	-9.75517E-005	0.00000E+000	-6.66589E-005	-5.99601E-002	6.83578E-001	3.57830E+000	9	...........
	15	0.213333	6.72543E-001	-9.76486E-005	0.00000E+000	-6.56728E-005	-5.99601E-002	6.72783E-001	3.57830E+000	9	...........
	16	0.226667	6.61610E-001	-9.88489E-005	0.00000E+000	-6.53994E-005	-5.99601E-002	6.61858E-001	3.57830E+000	9	...........
	17	0.24	6.50551E-001	-9.93677E-005	0.00000E+000	-6.46437E-005	-5.99601E-002	6.50807E-001	3.57830E+000	9	...........
	18	0.253333	6.39346E-001	-9.83529E-005	0.00000E+000	-6.28816E-005	-5.99601E-002	6.39584E-001	3.57830E+000	9	...........
	19	0.266667	6.27971E-001	-9.78882E-005	0.00000E+000	-6.14710E-005	-5.99601E-002	6.28206E-001	3.57830E+000	9	...........
	20	0.28	6.16423E-001	-9.97886E-005	0.00000E+000	-6.15120E-005	-5.99601E-002	6.16679E-001	3.57830E+000	9	...........
	21	0.293333	6.04681E-001	-9.90666E-005	0.00000E+000	-5.99037E-005	-5.99601E-002	6.04970E-001	3.57830E+000	9	...........
	22	0.306667	5.92856E-001	-9.89999E-005	0.00000E+000	-5.86927E-005	-5.99601E-002	5.93131E-001	3.57830E+000	9	...........
	23	0.32	5.80876E-001	-9.88218E-005	0.00000E+000	-5.74032E-005	-5.99601E-002	5.81136E-001	3.57830E+000	9	...........
	24	0.333333	5.68779E-001	-9.90687E-005	0.00000E+000	-5.63482E-005	-5.99601E-002	5.69010E-001	3.57830E+000	9	...........
	25	0.346667	5.56517E-001	-9.82300E-005	0.00000E+000	-5.46667E-005	-5.99601E-002	5.56792E-001	3.57830E+000	9	...........
	26	0.36	5.44215E-001	-9.81998E-005	0.00000E+000	-5.34418E-005	-5.99601E-002	5.44457E-001	3.57830E+000	9	...........
	27	0.373333	5.31784E-001	-9.93323E-005	0.00000E+000	-5.28233E-005	-5.99601E-002	5.32021E-001	3.57830E+000	9	...........
	28	0.386667	5.19315E-001	-9.85280E-005	0.00000E+000	-5.11670E-005	-5.99601E-002	5.19533E-001	3.57830E+000	9	...........
	29	0.4	5.06722E-001	-9.89312E-005	0.00000E+000	-5.01306E-005	-5.99601E-002	5.06969E-001	3.57830E+000	9	...........
	30	0.413333	4.94100E-001	-9.90020E-005	0.00000E+000	-4.89169E-005	-5.99601E-002	4.94353E-001	3.57830E+000	9	...........
	31	0.426667	4.81683E-001	-9.79831E-005	0.00000E+000	-4.71968E-005	-5.99601E-002	4.81808E-001	3.57770E+000	9	...........
	32	0.44	4.69045E-001	-9.97042E-005	0.00000E+000	-4.67657E-005	-5.99601E-002	4.69145E-001	3.57710E+000	9	...........
	33	0.453333	4.56296E-001	-9.95052E-005	0.00000E+000	-4.54038E-005	-5.99601E-002	4.56390E-001	3.57710E+000	9	...........
	34	0.466667	4.43524E-001	-9.86092E-005	0.00000E+000	-4.37355E-005	-5.99601E-002	4.43623E-001	3.57710E+000	9	...........
	35	0.48	4.30740E-001	-9.78278E-005	0.00000E+000	-4.21384E-005	-5.99601E-002	4.30832E-001	3.57710E+000	9	...........
	36	0.493333	4.17941E-001	-9.79633E-005	0.00000E+000	-4.09429E-005	-5.99601E-002	4.18036E-001	3.57710E+000	9	...........
	37	0.506667	4.05157E-001	-9.85853E-005	0.00000E+000	-3.99425E-005	-5.99601E-002	4.05245E-001	3.57710E+000	9	...........
	38	0.52	3.92379E-001	-9.87551E-005	0.00000E+000	-3.87494E-005	-5.99601E-002	3.92457E-001	3.57710E+000	9	...........
	39	0.533333	3.79607E-001	-9.87395E-005	0.00000E+000	-3.74822E-005	-5.99601E-002	3.79682E-001	3.57710E+000	9	...........
	40	0.546667	3.66855E-001	-9.84581E-005	0.00000E+000	-3.61199E-005	-5.99601E-002	3.66934E-001	3.57710E+000	9	...........
	41	0.56	3.54139E-001	-9.89051E-005	0.00000E+000	-3.50261E-005	-5.99601E-002	3.54214E-001	3.57710E+000	9	...........
	42	0.573333	3.41445E-001	-9.94552E-005	0.00000E+000	-3.39585E-005	-5.99601E-002	3.41523E-001	3.57710E+000	9	...........
	43	0.586667	3.28800E-001	-9.89301E-005	0.00000E+000	-3.25283E-005	-5.99601E-002	3.28868E-001	3.57710E+000	9	...........
	44	0.6	3.16184E-001	-9.84092E-005	0.00000E+000	-3.11154E-005	-5.99601E-002	3.16251E-001	3.57710E+000	9	...........
	45	0.613333	3.03597E-001	-9.88905E-005	0.00000E+000	-3.00228E-005	-5.99601E-002	3.03664E-001	3.57710E+000	9	...........
	46	0.626667	2.91044E-001	-9.97490E-005	0.00000E+000	-2.90313E-005	-5.99601E-002	2.91107E-001	3.57710E+000	9	...........
	47	0.64	2.78539E-001	-9.83467E-005	0.00000E+000	-2.73934E-005	-5.99601E-002	2.78599E-001	3.57710E+000	9	...........
	48	0.653333	2.66060E-001	-9.89510E-005	0.00000E+000	-2.63269E-005	-5.99601E-002	2.66116E-001	3.57710E+000	9	...........
	49	0.666667	2.53621E-001	-9.88832E-005	0.00000E+000	-2.50789E-005	-5.99601E-002	2.53678E-001	3.57710E+000	9	...........
	50	0.68	2.41213E-001	-9.83654E-005	0.00000E+000	-2.37270E-005	-5.99601E-002	2.41266E-001	3.57710E+000	9	...........
	51	0.693333	2.28831E-001	-9.90156E-005	0.00000E+000	-2.26579E-005	-5.99601E-002	2.28879E-001	3.57710E+000	9	...........
	52	0.706667	2.16482E-001	-9.79153E-005	0.00000E+000	-2.11969E-005	-5.99601E-002	2.16529E-001	3.57710E+000	9	...........
	53	0.72	2.04157E-001	-9.95282E-005	0.00000E+000	-2.03194E-005	-5.99601E-002	2.04201E-001	3.57710E+000	9	...........
	54	0.733333	1.91849E-001	-9.86717E-005	0.00000E+000	-1.89301E-005	-5.99601E-002	1.91891E-001	3.57710E+000	9	...........
	55	0.746667	1.79568E-001	-9.85467E-005	0.00000E+000	-1.76959E-005	-5.99601E-002	1.79607E-001	3.57710E+000	9	...........
	56	0.76	1.67320E-001	-9.88489E-005	0.00000E+000	-1.65394E-005	-5.99601E-002	1.67354E-001	3.57710E+000	9	...........
	57	0.773333	1.55114E-001	-9.86759E-005	0.00000E+000	-1.53060E-005	-5.99601E-002	1.55145E-001	3.57710E+000	9	...........
	58	0.786667	1.42942E-001	-9.92125E-005	0.00000E+000	-1.41816E-005	-5.99601E-002	1.42967E-001	3.57710E+000	9	...........
	59	0.8	1.30812E-001	-9.77674E-005	0.00000E+000	-1.27892E-005	-5.99601E-002	1.30842E-001	3.57710E+000	9	...........
	60	0.813333	1.18733E-001	-9.84081E-005	0.00000E+000	-1.16843E-005	-5.99601E-002	1.18755E-001	3.57710E+000	9	...........
	61	0.826667	1.06725E-001	-9.83581E-005	0.00000E+000	-1.04973E-005	-5.99601E-002	1.06746E-001	3.57710E+000	9	...........
	62	0.84	9.47717E-002	-9.92812E-005	0.00000E+000	-9.40905E-006	-5.99601E-002	9.47918E-002	3.57710E+000	9	...........
	63	0.853333	8.29061E-002	-9.97584E-005	0.00000E+000	-8.27058E-006	-5.99601E-002	8.29154E-002	3.57710E+000	9	...........
	64	0.866667	7.11261E-002	-9.89937E-005	0.00000E+000	-7.04104E-006	-5.99601E-002	7.11351E-002	3.57710E+000	9	...........
	65	0.88	5.94334E-002	-9.85998E-005	0.00000E+000	-5.86012E-006	-5.99601E-002	5.94428E-002	3.57710E+000	9	...........
	66	0.893333	4.78733E-002	-9.88791E-005	0.00000E+000	-4.73366E-006	-5.99601E-002	4.78713E-002	3.57710E+000	9	...........
	67	0.906667	3.64343E-002	-9.89207E-005	0.00000E+000	-3.60411E-006	-5.99601E-002	3.64343E-002	3.57710E+000	9	...........
	68	0.92	2.50969E-002	-9.89530E-005	0.00000E+000	-2.48341E-006	-5.99601E-002	2.50944E-002	3.57710E+000	9	...........
	69	0.933333	1.39034E-002	-9.85498E-005	0.00000E+000	-1.37018E-006	-5.99601E-002	1.38861E-002	3.57710E+000	9	...........
	70	0.945	3.54251E-003	-9.83090E-005	0.00000E+000	-3.48261E-007	-5.99601E-002	3.52305E-003	3.57710E+000	9	...........
STARTTIMEOFFSET	QUANT	532.5535	Start Time Offset (s)
