EXPLAIN
TAG	PWR800_DISCHARGE
TITLE	LABEL	PWR Cyclic Charge Discharge (Cell) - Discharge Step	Test &Identifier
DATE	LABEL	12-7-2017	Date
TIME	LABEL	16:28:01	Time
NOTES	NOTES	2	&Notes...
	supercap test cell
	6M KOH
PSTAT	PSTAT	IFC5000-01520	Potentiostat
CAPACITY	QUANT	1.00000E-003	Capacity (A-hr)
CELLTYPE	SELECTOR	1	&Cell Type
WORKINGCONNECTION	SELECTOR	0	&Working Lead
MAXDISCHARGETIME	VARIABLEANDUNITS	1.00000E+002	s	1.00000E+002	second(s)	Max &Discharge Time
DISCHARGEMODE	MULTIPARAM	0	1.00000E-004	&Discharge Mode	Constant Current	Amp(s)
SAMPLETIME	QUANT	1.00000E-002	Sa&mple Period (s)
DISCHARGESTOPAT1	MULTIPARAM	3	0.00000E+000	Discharge Stop At &1	Voltage < Limit	V
DISCHARGESTOPAT2	MULTIPARAM	0	0.00000E+000	Discharge Stop At &2	None	N/A
AESBHCSELECTOR	TOGGLE	F	Save Both Half Cells
IRCOMP	TOGGLE	F	IR &Measure
EOC	QUANT	0	Open Circuit (V)
SEQUENCER	TOGGLE	TRUE	Run as Sequence
PSTATMODEL	IQUANT	53	Pstat Model
PSTATSECTION	LABEL	IFC5000-01520	Pstat Section
PSTATSERIALNO	LABEL	01520	Pstat Serial Number
CTRLMODE	IQUANT	0	Control Mode
ELECTROMETER	IQUANT	1	RE=0 or CS=1
IESTAB	IQUANT	0	I/E Stability
CASPEED	IQUANT	4	Control Amp Speed
CONVENTION	IQUANT	1	Current Convention
ICHRANGE	IQUANT	2	Ich Range
ICHRANGEMODE	TOGGLE	T	Ich Auto Range
ICHOFFSETENABLE	TOGGLE	F	Ich Offset Enable
ICHOFFSET	QUANT	0	Ich Offset (V)
ICHFILTER	IQUANT	1	Ich Filter
VCHRANGE	IQUANT	2	Vch Range
VCHRANGEMODE	TOGGLE	T	Vch Auto Range
VCHOFFSETENABLE	TOGGLE	F	Vch Offset Enable
VCHOFFSET	QUANT	0	Vch Offset (V)
VCHFILTER	IQUANT	1	Vch Filter
IERANGELOWERLIMIT	IQUANT	9	I/E Range Lower Limit
IERANGEMODE	TOGGLE	F	I/E AutoRange
IERANGE	IQUANT	9	I/E Range
ACHSELECT	IQUANT	1	Ach Select
ACHRANGE	IQUANT	2	Ach Range
ACHOFFSETENABLE	TOGGLE	F	Ach Offset Enable
ACHOFFSET	QUANT	0	Ach Offset (V)
ACHFILTER	IQUANT	1	Ach Filter
CABLEID	IQUANT	14	Cable ID
DCCALDATE	LABEL	5-7-2017	DC Calibration Date
ACCALDATE	LABEL	12/3/2015	AC Calibration Date
FRAMEWORKVERSION	QUANT	7.01	Framework Version
INSTRUMENTVERSION	LABEL	4.00	Instrument Version
CURVE	TABLE	71
	Pt	T	Vf	Im	Vu	Pwr	Sig	Ach	Temp	IERange	Over
	#	s	V	A	V	W	V	V	deg C	#	bits
	0	0.013333	8.45539E-001	-9.90635E-005	0.00000E+000	-8.37620E-005	-5.99601E-002	8.45850E-001	3.57720E+000	9	...........
	1	0.026667	8.32545E-001	-1.00476E-004	0.00000E+000	-8.36511E-005	-5.99601E-002	8.32856E-001	3.57720E+000	9	...........
	2	0.04	8.20151E-001	-9.96730E-005	0.00000E+000	-8.17469E-005	-5.99601E-002	8.20465E-001	3.57720E+000	9	...........
	3	0.053333	8.08139E-001	-1.00160E-004	0.00000E+000	-8.09428E-005	-5.99601E-002	8.08413E-001	3.57720E+000	9	...........
	4	0.066667	7.96400E-001	-9.93823E-005	0.00000E+000	-7.91480E-005	-5.99601E-002	7.96675E-001	3.57720E+000	9	...........
	5	0.08	7.84828E-001	-9.95803E-005	0.00000E+000	-7.81533E-005	-5.99601E-002	7.85120E-001	3.57720E+000	9	...........
	6	0.093333	7.73475E-001	-9.88843E-005	0.00000E+000	-7.64845E-005	-5.99601E-002	7.73735E-001	3.57720E+000	9	...........
	7	0.106667	7.62211E-001	-9.92291E-005	0.00000E+000	-7.56335E-005	-5.99601E-002	7.62466E-001	3.57720E+000	9	...........
	8	0.12	7.51086E-001	-9.85623E-005	0.00000E+000	-7.40288E-005	-5.99601E-002	7.51339E-001	3.57720E+000	9	...........
	9	0.133333	7.40050E-001	-9.84738E-005	0.00000E+000	-7.28755E-005	-5.99601E-002	7.40304E-001	3.57720E+000	9	...........
	10	0.146667	7.29138E-001	-1.00149E-004	0.00000E+000	-7.30226E-005	-5.99601E-002	7.29371E-001	3.57720E+000	9	...........
	11	0.16	7.18293E-001	-9.86592E-005	0.00000E+000	-7.08662E-005	-5.99601E-002	7.18538E-001	3.57720E+000	9	...........
	12	0.173333	7.07515E-001	-9.91833E-005	0.00000E+000	-7.01737E-005	-5.99601E-002	7.07776E-001	3.57720E+000	9	...........
	13	0.186667	6.96813E-001	-9.70610E-005	0.00000E+000	-6.76333E-005	-5.99601E-002	6.97078E-001	3.57720E+000	9	...........
	14	0.2	6.86136E-001	-9.94052E-005	0.00000E+000	-6.82055E-005	-5.99601E-002	6.86398E-001	3.57720E+000	9	...........
	15	0.213333	6.75496E-001	-9.94136E-005	0.00000E+000	-6.71535E-005	-5.99601E-002	6.75734E-001	3.57720E+000	9	...........
	16	0.226667	6.64792E-001	-9.69568E-005	0.00000E+000	-6.44561E-005	-5.99601E-002	6.65040E-001	3.57720E+000	9	...........
	17	0.24	6.54014E-001	-9.87551E-005	0.00000E+000	-6.45872E-005	-5.99601E-002	6.54233E-001	3.57720E+000	9	...........
	18	0.253333	6.43113E-001	-9.84373E-005	0.00000E+000	-6.33063E-005	-5.99601E-002	6.43343E-001	3.57720E+000	9	...........
	19	0.266667	6.32033E-001	-1.00247E-004	0.00000E+000	-6.33594E-005	-5.99601E-002	6.32254E-001	3.57720E+000	9	...........
	20	0.28	6.20830E-001	-9.81550E-005	0.00000E+000	-6.09375E-005	-5.99601E-002	6.21037E-001	3.57720E+000	9	...........
	21	0.293333	6.09344E-001	-9.86665E-005	0.00000E+000	-6.01219E-005	-5.99601E-002	6.09601E-001	3.57720E+000	9	...........
	22	0.306667	5.97764E-001	-9.87790E-005	0.00000E+000	-5.90465E-005	-5.99601E-002	5.97983E-001	3.57720E+000	9	...........
	23	0.32	5.85969E-001	-9.74892E-005	0.00000E+000	-5.71257E-005	-5.99601E-002	5.86207E-001	3.57720E+000	9	...........
	24	0.333333	5.74021E-001	-9.95490E-005	0.00000E+000	-5.71432E-005	-5.99601E-002	5.74257E-001	3.57720E+000	9	...........
	25	0.346667	5.61918E-001	-9.87249E-005	0.00000E+000	-5.54753E-005	-5.99601E-002	5.62136E-001	3.57720E+000	9	...........
	26	0.36	5.49656E-001	-9.76611E-005	0.00000E+000	-5.36800E-005	-5.99601E-002	5.49881E-001	3.57720E+000	9	...........
	27	0.373333	5.37282E-001	-9.96834E-005	0.00000E+000	-5.35581E-005	-5.99601E-002	5.37499E-001	3.57720E+000	9	...........
	28	0.386667	5.24768E-001	-9.88145E-005	0.00000E+000	-5.18547E-005	-5.99601E-002	5.24992E-001	3.57720E+000	9	...........
	29	0.4	5.12163E-001	-9.86801E-005	0.00000E+000	-5.05403E-005	-5.99601E-002	5.12384E-001	3.57720E+000	9	...........
	30	0.413333	4.99449E-001	-9.90281E-005	0.00000E+000	-4.94594E-005	-5.99601E-002	4.99675E-001	3.57720E+000	9	...........
	31	0.426667	4.86757E-001	-9.92343E-005	0.00000E+000	-4.83031E-005	-5.99601E-002	4.86968E-001	3.57720E+000	9	...........
	32	0.44	4.74138E-001	-9.86551E-005	0.00000E+000	-4.67761E-005	-5.99601E-002	4.74243E-001	3.57720E+000	9	...........
	33	0.453333	4.61217E-001	-9.86915E-005	0.00000E+000	-4.55182E-005	-5.99601E-002	4.61322E-001	3.57720E+000	9	...........
	34	0.466667	4.48262E-001	-9.82008E-005	0.00000E+000	-4.40196E-005	-5.99601E-002	4.48366E-001	3.57720E+000	9	...........
	35	0.48	4.35264E-001	-9.99730E-005	0.00000E+000	-4.35146E-005	-5.99601E-002	4.35357E-001	3.57720E+000	9	...........
	36	0.493333	4.22243E-001	-9.84613E-005	0.00000E+000	-4.15745E-005	-5.99601E-002	4.22337E-001	3.57720E+000	9	...........
	37	0.506667	4.09205E-001	-1.00615E-004	0.00000E+000	-4.11721E-005	-5.99601E-002	4.09292E-001	3.57720E+000	9	...........
	38	0.52	3.96164E-001	-9.82018E-005	0.00000E+000	-3.89041E-005	-5.99601E-002	3.96252E-001	3.57720E+000	9	...........
	39	0.533333	3.83125E-001	-9.79903E-005	0.00000E+000	-3.75425E-005	-5.99601E-002	3.83206E-001	3.57720E+000	9	...........
	40	0.546667	3.70090E-001	-9.96417E-005	0.00000E+000	-3.68764E-005	-5.99601E-002	3.70175E-001	3.57720E+000	9	...........
	41	0.56	3.57085E-001	-9.79622E-005	0.00000E+000	-3.49808E-005	-5.99601E-002	3.57164E-001	3.57720E+000	9	...........
	42	0.573333	3.44102E-001	-9.92958E-005	0.00000E+000	-3.41679E-005	-5.99601E-002	3.44178E-001	3.57720E+000	9	...........
	43	0.586667	3.31153E-001	-9.97970E-005	0.00000E+000	-3.30480E-005	-5.99601E-002	3.31226E-001	3.57720E+000	9	...........
	44	0.6	3.18249E-001	-9.84571E-005	0.00000E+000	-3.13339E-005	-5.99601E-002	3.18319E-001	3.57720E+000	9	...........
	45	0.613333	3.05385E-001	-1.00236E-004	0.00000E+000	-3.06105E-005	-5.99601E-002	3.05451E-001	3.57720E+000	9	...........
	46	0.626667	2.92564E-001	-1.00021E-004	0.00000E+000	-2.92625E-005	-5.99601E-002	2.92628E-001	3.57720E+000	9	...........
	47	0.64	2.79796E-001	-9.96834E-005	0.00000E+000	-2.78910E-005	-5.99601E-002	2.79854E-001	3.57720E+000	9	...........
	48	0.653333	2.67072E-001	-9.91218E-005	0.00000E+000	-2.64727E-005	-5.99601E-002	2.67134E-001	3.57720E+000	9	...........
	49	0.666667	2.54407E-001	-9.74892E-005	0.00000E+000	-2.48019E-005	-5.99601E-002	2.54464E-001	3.57720E+000	9	...........
	50	0.68	2.41790E-001	-9.83540E-005	0.00000E+000	-2.37810E-005	-5.99601E-002	2.41839E-001	3.57720E+000	9	...........
	51	0.693333	2.29219E-001	-9.87259E-005	0.00000E+000	-2.26299E-005	-5.99601E-002	2.29265E-001	3.57720E+000	9	...........
	52	0.706667	2.16692E-001	-9.95157E-005	0.00000E+000	-2.15643E-005	-5.99601E-002	2.16739E-001	3.57720E+000	9	...........
	53	0.72	2.04211E-001	-9.86530E-005	0.00000E+000	-2.01460E-005	-5.99601E-002	2.04259E-001	3.57720E+000	9	...........
	54	0.733333	1.91773E-001	-9.82654E-005	0.00000E+000	-1.88446E-005	-5.99601E-002	1.91819E-001	3.57776E+000	9	...........
	55	0.746667	1.79376E-001	-9.79403E-005	0.00000E+000	-1.75682E-005	-5.99601E-002	1.79421E-001	3.57810E+000	9	...........
	56	0.76	1.67031E-001	-9.90426E-005	0.00000E+000	-1.65432E-005	-5.99601E-002	1.67070E-001	3.57810E+000	9	...........
	57	0.773333	1.54726E-001	-9.82675E-005	0.00000E+000	-1.52046E-005	-5.99601E-002	1.54756E-001	3.57810E+000	9	...........
	58	0.786667	1.42465E-001	-1.00045E-004	0.00000E+000	-1.42529E-005	-5.99601E-002	1.42496E-001	3.57810E+000	9	...........
	59	0.8	1.30271E-001	-9.83977E-005	0.00000E+000	-1.28184E-005	-5.99601E-002	1.30296E-001	3.57810E+000	9	...........
	60	0.813333	1.18127E-001	-9.99741E-005	0.00000E+000	-1.18096E-005	-5.99601E-002	1.18147E-001	3.57810E+000	9	...........
	61	0.826667	1.06050E-001	-9.81925E-005	0.00000E+000	-1.04133E-005	-5.99601E-002	1.06069E-001	3.57810E+000	9	...........
	62	0.84	9.40420E-002	-9.84863E-005	0.00000E+000	-9.26184E-006	-5.99601E-002	9.40614E-002	3.57810E+000	9	...........
	63	0.853333	8.21332E-002	-9.81831E-005	0.00000E+000	-8.06409E-006	-5.99601E-002	8.21473E-002	3.57810E+000	9	...........
	64	0.866667	7.03178E-002	-9.80247E-005	0.00000E+000	-6.89289E-006	-5.99601E-002	7.03249E-002	3.57810E+000	9	...........
	65	0.88	5.86053E-002	-9.94823E-005	0.00000E+000	-5.83019E-006	-5.99601E-002	5.86154E-002	3.57810E+000	9	...........
	66	0.893333	4.70331E-002	-9.86697E-005	0.00000E+000	-4.64074E-006	-5.99601E-002	4.70431E-002	3.57810E+000	9	...........
	67	0.906667	3.55949E-002	-9.83894E-005	0.00000E+000	-3.50216E-006	-5.99601E-002	3.55972E-002	3.57810E+000	9	...........
	68	0.92	2.42641E-002	-9.93510E-005	0.00000E+000	-2.41067E-006	-5.99601E-002	2.42593E-002	3.57810E+000	9	...........
	69	0.933333	1.30789E-002	-9.99783E-005	0.00000E+000	-1.30761E-006	-5.99601E-002	1.30714E-002	3.57810E+000	9	...........
	70	0.945	2.73947E-003	-9.84555E-005	0.00000E+000	-2.69716E-007	-5.99601E-002	2.72375E-003	3.57810E+000	9	...........
STARTTIMEOFFSET	QUANT	768.8649	Start Time Offset (s)
