EXPLAIN
TAG	PWR800_DISCHARGE
TITLE	LABEL	PWR Cyclic Charge Discharge (Cell) - Discharge Step	Test &Identifier
DATE	LABEL	12-7-2017	Date
TIME	LABEL	16:32:56	Time
NOTES	NOTES	2	&Notes...
	supercap test cell
	6M KOH
PSTAT	PSTAT	IFC5000-01520	Potentiostat
CAPACITY	QUANT	1.00000E-003	Capacity (A-hr)
CELLTYPE	SELECTOR	1	&Cell Type
WORKINGCONNECTION	SELECTOR	0	&Working Lead
MAXDISCHARGETIME	VARIABLEANDUNITS	1.00000E+002	s	1.00000E+002	second(s)	Max &Discharge Time
DISCHARGEMODE	MULTIPARAM	0	1.00000E-004	&Discharge Mode	Constant Current	Amp(s)
SAMPLETIME	QUANT	1.00000E-002	Sa&mple Period (s)
DISCHARGESTOPAT1	MULTIPARAM	3	0.00000E+000	Discharge Stop At &1	Voltage < Limit	V
DISCHARGESTOPAT2	MULTIPARAM	0	0.00000E+000	Discharge Stop At &2	None	N/A
AESBHCSELECTOR	TOGGLE	F	Save Both Half Cells
IRCOMP	TOGGLE	F	IR &Measure
EOC	QUANT	0	Open Circuit (V)
SEQUENCER	TOGGLE	TRUE	Run as Sequence
PSTATMODEL	IQUANT	53	Pstat Model
PSTATSECTION	LABEL	IFC5000-01520	Pstat Section
PSTATSERIALNO	LABEL	01520	Pstat Serial Number
CTRLMODE	IQUANT	0	Control Mode
ELECTROMETER	IQUANT	1	RE=0 or CS=1
IESTAB	IQUANT	0	I/E Stability
CASPEED	IQUANT	4	Control Amp Speed
CONVENTION	IQUANT	1	Current Convention
ICHRANGE	IQUANT	2	Ich Range
ICHRANGEMODE	TOGGLE	T	Ich Auto Range
ICHOFFSETENABLE	TOGGLE	F	Ich Offset Enable
ICHOFFSET	QUANT	0	Ich Offset (V)
ICHFILTER	IQUANT	1	Ich Filter
VCHRANGE	IQUANT	2	Vch Range
VCHRANGEMODE	TOGGLE	T	Vch Auto Range
VCHOFFSETENABLE	TOGGLE	F	Vch Offset Enable
VCHOFFSET	QUANT	0	Vch Offset (V)
VCHFILTER	IQUANT	1	Vch Filter
IERANGELOWERLIMIT	IQUANT	9	I/E Range Lower Limit
IERANGEMODE	TOGGLE	F	I/E AutoRange
IERANGE	IQUANT	9	I/E Range
ACHSELECT	IQUANT	1	Ach Select
ACHRANGE	IQUANT	2	Ach Range
ACHOFFSETENABLE	TOGGLE	F	Ach Offset Enable
ACHOFFSET	QUANT	0	Ach Offset (V)
ACHFILTER	IQUANT	1	Ach Filter
CABLEID	IQUANT	14	Cable ID
DCCALDATE	LABEL	5-7-2017	DC Calibration Date
ACCALDATE	LABEL	12/3/2015	AC Calibration Date
FRAMEWORKVERSION	QUANT	7.01	Framework Version
INSTRUMENTVERSION	LABEL	4.00	Instrument Version
CURVE	TABLE	71
	Pt	T	Vf	Im	Vu	Pwr	Sig	Ach	Temp	IERange	Over
	#	s	V	A	V	W	V	V	deg C	#	bits
	0	0.013333	8.46252E-001	-9.89374E-005	0.00000E+000	-8.37260E-005	-5.99601E-002	8.46557E-001	3.57810E+000	9	...........
	1	0.026667	8.33227E-001	-9.87342E-005	0.00000E+000	-8.22680E-005	-5.99601E-002	8.33541E-001	3.57810E+000	9	...........
	2	0.04	8.20811E-001	-9.81425E-005	0.00000E+000	-8.05564E-005	-5.99601E-002	8.21087E-001	3.57810E+000	9	...........
	3	0.053333	8.08748E-001	-9.81393E-005	0.00000E+000	-7.93700E-005	-5.99601E-002	8.09002E-001	3.57810E+000	9	...........
	4	0.066667	7.96966E-001	-9.89905E-005	0.00000E+000	-7.88921E-005	-5.99601E-002	7.97212E-001	3.57810E+000	9	...........
	5	0.08	7.85355E-001	-9.93802E-005	0.00000E+000	-7.80488E-005	-5.99601E-002	7.85607E-001	3.57810E+000	9	...........
	6	0.093333	7.73940E-001	-9.98553E-005	0.00000E+000	-7.72820E-005	-5.99601E-002	7.74175E-001	3.57810E+000	9	...........
	7	0.106667	7.62641E-001	-9.82925E-005	0.00000E+000	-7.49619E-005	-5.99601E-002	7.62875E-001	3.57810E+000	9	...........
	8	0.12	7.51438E-001	-9.83946E-005	0.00000E+000	-7.39374E-005	-5.99601E-002	7.51686E-001	3.57810E+000	9	...........
	9	0.133333	7.40351E-001	-9.75611E-005	0.00000E+000	-7.22295E-005	-5.99601E-002	7.40604E-001	3.57810E+000	9	...........
	10	0.146667	7.29370E-001	-9.90645E-005	0.00000E+000	-7.22547E-005	-5.99601E-002	7.29619E-001	3.57810E+000	9	...........
	11	0.16	7.18467E-001	-9.83383E-005	0.00000E+000	-7.06528E-005	-5.99601E-002	7.18719E-001	3.57810E+000	9	...........
	12	0.173333	7.07639E-001	-9.84227E-005	0.00000E+000	-6.96478E-005	-5.99601E-002	7.07885E-001	3.57810E+000	9	...........
	13	0.186667	6.96902E-001	-9.90051E-005	0.00000E+000	-6.89968E-005	-5.99601E-002	6.97135E-001	3.57810E+000	9	...........
	14	0.2	6.86195E-001	-9.88051E-005	0.00000E+000	-6.77996E-005	-5.99601E-002	6.86443E-001	3.57810E+000	9	...........
	15	0.213333	6.75567E-001	-9.86353E-005	0.00000E+000	-6.66348E-005	-5.99601E-002	6.75812E-001	3.57810E+000	9	...........
	16	0.226667	6.64923E-001	-9.82133E-005	0.00000E+000	-6.53043E-005	-5.99601E-002	6.65145E-001	3.57810E+000	9	...........
	17	0.24	6.54241E-001	-9.89562E-005	0.00000E+000	-6.47412E-005	-5.99601E-002	6.54465E-001	3.57810E+000	9	...........
	18	0.253333	6.43483E-001	-9.81268E-005	0.00000E+000	-6.31430E-005	-5.99601E-002	6.43707E-001	3.57810E+000	9	...........
	19	0.266667	6.32585E-001	-9.81122E-005	0.00000E+000	-6.20644E-005	-5.99601E-002	6.32798E-001	3.57810E+000	9	...........
	20	0.28	6.21554E-001	-9.82143E-005	0.00000E+000	-6.10455E-005	-5.99601E-002	6.21758E-001	3.57810E+000	9	...........
	21	0.293333	6.10268E-001	-9.72589E-005	0.00000E+000	-5.93540E-005	-5.99601E-002	6.10496E-001	3.57810E+000	9	...........
	22	0.306667	5.98846E-001	-9.89009E-005	0.00000E+000	-5.92265E-005	-5.99601E-002	5.99076E-001	3.57810E+000	9	...........
	23	0.32	5.87212E-001	-9.77976E-005	0.00000E+000	-5.74279E-005	-5.99601E-002	5.87453E-001	3.57810E+000	9	...........
	24	0.333333	5.75392E-001	-1.00102E-004	0.00000E+000	-5.75980E-005	-5.99601E-002	5.75621E-001	3.57810E+000	9	...........
	25	0.346667	5.63401E-001	-9.85728E-005	0.00000E+000	-5.55360E-005	-5.99601E-002	5.63620E-001	3.57810E+000	9	...........
	26	0.36	5.51213E-001	-9.84665E-005	0.00000E+000	-5.42760E-005	-5.99601E-002	5.51444E-001	3.57810E+000	9	...........
	27	0.373333	5.38909E-001	-9.93469E-005	0.00000E+000	-5.35390E-005	-5.99601E-002	5.39136E-001	3.57810E+000	9	...........
	28	0.386667	5.26446E-001	-9.68193E-005	0.00000E+000	-5.09701E-005	-5.99601E-002	5.26637E-001	3.57810E+000	9	...........
	29	0.4	5.13848E-001	-9.87634E-005	0.00000E+000	-5.07493E-005	-5.99601E-002	5.14060E-001	3.57810E+000	9	...........
	30	0.413333	5.01119E-001	-9.91125E-005	0.00000E+000	-4.96671E-005	-5.99601E-002	5.01361E-001	3.57810E+000	9	...........
	31	0.426667	4.88374E-001	-9.80258E-005	0.00000E+000	-4.78732E-005	-5.99601E-002	4.88593E-001	3.57810E+000	9	...........
	32	0.44	4.75757E-001	-9.84540E-005	0.00000E+000	-4.68402E-005	-5.99601E-002	4.75860E-001	3.57810E+000	9	...........
	33	0.453333	4.62786E-001	-9.90645E-005	0.00000E+000	-4.58457E-005	-5.99601E-002	4.62882E-001	3.57810E+000	9	...........
	34	0.466667	4.49755E-001	-9.79633E-005	0.00000E+000	-4.40594E-005	-5.99601E-002	4.49853E-001	3.57810E+000	9	...........
	35	0.48	4.36666E-001	-9.87040E-005	0.00000E+000	-4.31007E-005	-5.99601E-002	4.36763E-001	3.57810E+000	9	...........
	36	0.493333	4.23546E-001	-9.86405E-005	0.00000E+000	-4.17788E-005	-5.99601E-002	4.23632E-001	3.57810E+000	9	...........
	37	0.506667	4.10401E-001	-9.83227E-005	0.00000E+000	-4.03518E-005	-5.99601E-002	4.10488E-001	3.57673E+000	9	...........
	38	0.52	3.97249E-001	-9.95980E-005	0.00000E+000	-3.95652E-005	-5.99601E-002	3.97326E-001	3.57670E+000	9	...........
	39	0.533333	3.84088E-001	-9.95115E-005	0.00000E+000	-3.82211E-005	-5.99601E-002	3.84168E-001	3.57670E+000	9	...........
	40	0.546667	3.70926E-001	-9.91500E-005	0.00000E+000	-3.67773E-005	-5.99601E-002	3.71003E-001	3.57670E+000	9	...........
	41	0.56	3.57776E-001	-9.90479E-005	0.00000E+000	-3.54370E-005	-5.99601E-002	3.57859E-001	3.57670E+000	9	...........
	42	0.573333	3.44666E-001	-9.84946E-005	0.00000E+000	-3.39477E-005	-5.99601E-002	3.44732E-001	3.57670E+000	9	...........
	43	0.586667	3.31565E-001	-9.75069E-005	0.00000E+000	-3.23299E-005	-5.99601E-002	3.31639E-001	3.57670E+000	9	...........
	44	0.6	3.18514E-001	-9.82196E-005	0.00000E+000	-3.12843E-005	-5.99601E-002	3.18585E-001	3.57670E+000	9	...........
	45	0.613333	3.05505E-001	-9.91208E-005	0.00000E+000	-3.02819E-005	-5.99601E-002	3.05565E-001	3.57670E+000	9	...........
	46	0.626667	2.92540E-001	-9.92448E-005	0.00000E+000	-2.90331E-005	-5.99601E-002	2.92601E-001	3.57670E+000	9	...........
	47	0.64	2.79638E-001	-9.90979E-005	0.00000E+000	-2.77115E-005	-5.99601E-002	2.79700E-001	3.57670E+000	9	...........
	48	0.653333	2.66791E-001	-9.75705E-005	0.00000E+000	-2.60309E-005	-5.99601E-002	2.66846E-001	3.57670E+000	9	...........
	49	0.666667	2.53999E-001	-9.85832E-005	0.00000E+000	-2.50400E-005	-5.99601E-002	2.54043E-001	3.57670E+000	9	...........
	50	0.68	2.41267E-001	-9.85384E-005	0.00000E+000	-2.37740E-005	-5.99601E-002	2.41311E-001	3.57670E+000	9	...........
	51	0.693333	2.28599E-001	-9.88176E-005	0.00000E+000	-2.25896E-005	-5.99601E-002	2.28640E-001	3.57670E+000	9	...........
	52	0.706667	2.15987E-001	-9.91302E-005	0.00000E+000	-2.14108E-005	-5.99601E-002	2.16028E-001	3.57670E+000	9	...........
	53	0.72	2.03434E-001	-9.85988E-005	0.00000E+000	-2.00584E-005	-5.99601E-002	2.03477E-001	3.57670E+000	9	...........
	54	0.733333	1.90937E-001	-9.93604E-005	0.00000E+000	-1.89716E-005	-5.99601E-002	1.90976E-001	3.57670E+000	9	...........
	55	0.746667	1.78489E-001	-9.87613E-005	0.00000E+000	-1.76278E-005	-5.99601E-002	1.78522E-001	3.57670E+000	9	...........
	56	0.76	1.66093E-001	-9.84623E-005	0.00000E+000	-1.63539E-005	-5.99601E-002	1.66125E-001	3.57670E+000	9	...........
	57	0.773333	1.53750E-001	-9.94313E-005	0.00000E+000	-1.52876E-005	-5.99601E-002	1.53773E-001	3.57670E+000	9	...........
	58	0.786667	1.41471E-001	-9.85509E-005	0.00000E+000	-1.39421E-005	-5.99601E-002	1.41493E-001	3.57670E+000	9	...........
	59	0.8	1.29253E-001	-9.82341E-005	0.00000E+000	-1.26970E-005	-5.99601E-002	1.29274E-001	3.57670E+000	9	...........
	60	0.813333	1.17088E-001	-9.92354E-005	0.00000E+000	-1.16193E-005	-5.99601E-002	1.17107E-001	3.57670E+000	9	...........
	61	0.826667	1.05006E-001	-9.90354E-005	0.00000E+000	-1.03993E-005	-5.99601E-002	1.05024E-001	3.57670E+000	9	...........
	62	0.84	9.30079E-002	-9.88718E-005	0.00000E+000	-9.19585E-006	-5.99601E-002	9.30223E-002	3.57670E+000	9	...........
	63	0.853333	8.11017E-002	-9.88270E-005	0.00000E+000	-8.01504E-006	-5.99601E-002	8.11128E-002	3.57670E+000	9	...........
	64	0.866667	6.92938E-002	-9.91729E-005	0.00000E+000	-6.87206E-006	-5.99601E-002	6.93051E-002	3.57670E+000	9	...........
	65	0.88	5.76065E-002	-9.82789E-005	0.00000E+000	-5.66151E-006	-5.99601E-002	5.76078E-002	3.57670E+000	9	...........
	66	0.893333	4.60626E-002	-9.77163E-005	0.00000E+000	-4.50107E-006	-5.99601E-002	4.60626E-002	3.57670E+000	9	...........
	67	0.906667	3.46418E-002	-1.00614E-004	0.00000E+000	-3.48544E-006	-5.99601E-002	3.46420E-002	3.57670E+000	9	...........
	68	0.92	2.33616E-002	-1.00435E-004	0.00000E+000	-2.34631E-006	-5.99601E-002	2.33539E-002	3.57670E+000	9	...........
	69	0.933333	1.22300E-002	-1.00291E-004	0.00000E+000	-1.22656E-006	-5.99601E-002	1.22104E-002	3.57670E+000	9	...........
	70	0.943333	2.61089E-003	-9.81088E-005	0.00000E+000	-2.56151E-007	-5.99601E-002	2.59343E-003	3.57670E+000	9	...........
STARTTIMEOFFSET	QUANT	978.2	Start Time Offset (s)
