EXPLAIN
TAG	PWR800_DISCHARGE
TITLE	LABEL	PWR Cyclic Charge Discharge (Cell) - Discharge Step	Test &Identifier
DATE	LABEL	12-7-2017	Date
TIME	LABEL	16:19:04	Time
NOTES	NOTES	2	&Notes...
	supercap test cell
	6M KOH
PSTAT	PSTAT	IFC5000-01520	Potentiostat
CAPACITY	QUANT	1.00000E-003	Capacity (A-hr)
CELLTYPE	SELECTOR	1	&Cell Type
WORKINGCONNECTION	SELECTOR	0	&Working Lead
MAXDISCHARGETIME	VARIABLEANDUNITS	1.00000E+002	s	1.00000E+002	second(s)	Max &Discharge Time
DISCHARGEMODE	MULTIPARAM	0	1.00000E-004	&Discharge Mode	Constant Current	Amp(s)
SAMPLETIME	QUANT	1.00000E-002	Sa&mple Period (s)
DISCHARGESTOPAT1	MULTIPARAM	3	0.00000E+000	Discharge Stop At &1	Voltage < Limit	V
DISCHARGESTOPAT2	MULTIPARAM	0	0.00000E+000	Discharge Stop At &2	None	N/A
AESBHCSELECTOR	TOGGLE	F	Save Both Half Cells
IRCOMP	TOGGLE	F	IR &Measure
EOC	QUANT	0	Open Circuit (V)
SEQUENCER	TOGGLE	TRUE	Run as Sequence
PSTATMODEL	IQUANT	53	Pstat Model
PSTATSECTION	LABEL	IFC5000-01520	Pstat Section
PSTATSERIALNO	LABEL	01520	Pstat Serial Number
CTRLMODE	IQUANT	0	Control Mode
ELECTROMETER	IQUANT	1	RE=0 or CS=1
IESTAB	IQUANT	0	I/E Stability
CASPEED	IQUANT	4	Control Amp Speed
CONVENTION	IQUANT	1	Current Convention
ICHRANGE	IQUANT	2	Ich Range
ICHRANGEMODE	TOGGLE	T	Ich Auto Range
ICHOFFSETENABLE	TOGGLE	F	Ich Offset Enable
ICHOFFSET	QUANT	0	Ich Offset (V)
ICHFILTER	IQUANT	1	Ich Filter
VCHRANGE	IQUANT	2	Vch Range
VCHRANGEMODE	TOGGLE	T	Vch Auto Range
VCHOFFSETENABLE	TOGGLE	F	Vch Offset Enable
VCHOFFSET	QUANT	0	Vch Offset (V)
VCHFILTER	IQUANT	1	Vch Filter
IERANGELOWERLIMIT	IQUANT	9	I/E Range Lower Limit
IERANGEMODE	TOGGLE	F	I/E AutoRange
IERANGE	IQUANT	9	I/E Range
ACHSELECT	IQUANT	1	Ach Select
ACHRANGE	IQUANT	2	Ach Range
ACHOFFSETENABLE	TOGGLE	F	Ach Offset Enable
ACHOFFSET	QUANT	0	Ach Offset (V)
ACHFILTER	IQUANT	1	Ach Filter
CABLEID	IQUANT	14	Cable ID
DCCALDATE	LABEL	5-7-2017	DC Calibration Date
ACCALDATE	LABEL	12/3/2015	AC Calibration Date
FRAMEWORKVERSION	QUANT	7.01	Framework Version
INSTRUMENTVERSION	LABEL	4.00	Instrument Version
CURVE	TABLE	72
	Pt	T	Vf	Im	Vu	Pwr	Sig	Ach	Temp	IERange	Over
	#	s	V	A	V	W	V	V	deg C	#	bits
	0	0.013333	8.43237E-001	-9.80403E-005	0.00000E+000	-8.26712E-005	-5.99601E-002	8.43508E-001	3.57770E+000	9	...........
	1	0.026667	8.30313E-001	-9.92062E-005	0.00000E+000	-8.23722E-005	-5.99601E-002	8.30606E-001	3.57770E+000	9	...........
	2	0.04	8.17971E-001	-9.85936E-005	0.00000E+000	-8.06467E-005	-5.99601E-002	8.18248E-001	3.57770E+000	9	...........
	3	0.053333	8.06013E-001	-9.95521E-005	0.00000E+000	-8.02403E-005	-5.99601E-002	8.06301E-001	3.57770E+000	9	...........
	4	0.066667	7.94349E-001	-9.89843E-005	0.00000E+000	-7.86281E-005	-5.99601E-002	7.94637E-001	3.57770E+000	9	...........
	5	0.08	7.82866E-001	-9.89468E-005	0.00000E+000	-7.74621E-005	-5.99601E-002	7.83126E-001	3.57770E+000	9	...........
	6	0.093333	7.71552E-001	-9.91989E-005	0.00000E+000	-7.65371E-005	-5.99601E-002	7.71854E-001	3.57770E+000	9	...........
	7	0.106667	7.60412E-001	-9.83508E-005	0.00000E+000	-7.47872E-005	-5.99601E-002	7.60680E-001	3.57770E+000	9	...........
	8	0.12	7.49378E-001	-9.86217E-005	0.00000E+000	-7.39050E-005	-5.99601E-002	7.49655E-001	3.57770E+000	9	...........
	9	0.133333	7.38421E-001	-9.84509E-005	0.00000E+000	-7.26981E-005	-5.99601E-002	7.38714E-001	3.57770E+000	9	...........
	10	0.146667	7.27580E-001	-9.88134E-005	0.00000E+000	-7.18947E-005	-5.99601E-002	7.27849E-001	3.57770E+000	9	...........
	11	0.16	7.16739E-001	-9.86134E-005	0.00000E+000	-7.06800E-005	-5.99601E-002	7.17016E-001	3.57770E+000	9	...........
	12	0.173333	7.05906E-001	-9.88489E-005	0.00000E+000	-6.97780E-005	-5.99601E-002	7.06190E-001	3.57770E+000	9	...........
	13	0.186667	6.95083E-001	-9.71704E-005	0.00000E+000	-6.75415E-005	-5.99601E-002	6.95325E-001	3.57770E+000	9	...........
	14	0.2	6.84139E-001	-9.87561E-005	0.00000E+000	-6.75629E-005	-5.99601E-002	6.84387E-001	3.57770E+000	9	...........
	15	0.213333	6.73109E-001	-9.80372E-005	0.00000E+000	-6.59897E-005	-5.99601E-002	6.73349E-001	3.57770E+000	9	...........
	16	0.226667	6.61899E-001	-9.85519E-005	0.00000E+000	-6.52314E-005	-5.99601E-002	6.62158E-001	3.57770E+000	9	...........
	17	0.24	6.50568E-001	-9.83237E-005	0.00000E+000	-6.39663E-005	-5.99601E-002	6.50817E-001	3.57770E+000	9	...........
	18	0.253333	6.39064E-001	-9.76403E-005	0.00000E+000	-6.23984E-005	-5.99601E-002	6.39317E-001	3.57770E+000	9	...........
	19	0.266667	6.27440E-001	-9.89114E-005	0.00000E+000	-6.20609E-005	-5.99601E-002	6.27676E-001	3.57770E+000	9	...........
	20	0.28	6.15651E-001	-1.00306E-004	0.00000E+000	-6.17538E-005	-5.99601E-002	6.15894E-001	3.57770E+000	9	...........
	21	0.293333	6.03743E-001	-9.93979E-005	0.00000E+000	-6.00108E-005	-5.99601E-002	6.04013E-001	3.57770E+000	9	...........
	22	0.306667	5.91783E-001	-9.78038E-005	0.00000E+000	-5.78786E-005	-5.99601E-002	5.91988E-001	3.57770E+000	9	...........
	23	0.32	5.79649E-001	-9.82227E-005	0.00000E+000	-5.69347E-005	-5.99601E-002	5.79860E-001	3.57770E+000	9	...........
	24	0.333333	5.67482E-001	-9.80476E-005	0.00000E+000	-5.56403E-005	-5.99601E-002	5.67696E-001	3.57770E+000	9	...........
	25	0.346667	5.55185E-001	-9.83842E-005	0.00000E+000	-5.46215E-005	-5.99601E-002	5.55375E-001	3.57770E+000	9	...........
	26	0.36	5.42852E-001	-9.86134E-005	0.00000E+000	-5.35325E-005	-5.99601E-002	5.43045E-001	3.57770E+000	9	...........
	27	0.373333	5.30459E-001	-9.91937E-005	0.00000E+000	-5.26182E-005	-5.99601E-002	5.30655E-001	3.57770E+000	9	...........
	28	0.386667	5.18014E-001	-9.80737E-005	0.00000E+000	-5.08036E-005	-5.99601E-002	5.18229E-001	3.57770E+000	9	...........
	29	0.4	5.05464E-001	-9.95740E-005	0.00000E+000	-5.03311E-005	-5.99601E-002	5.05735E-001	3.57770E+000	9	...........
	30	0.413333	4.92967E-001	-9.82696E-005	0.00000E+000	-4.84437E-005	-5.99601E-002	4.93203E-001	3.57770E+000	9	...........
	31	0.426667	4.80660E-001	-9.71798E-005	0.00000E+000	-4.67104E-005	-5.99601E-002	4.80801E-001	3.57770E+000	9	...........
	32	0.44	4.68169E-001	-9.80133E-005	0.00000E+000	-4.58868E-005	-5.99601E-002	4.68272E-001	3.57770E+000	9	...........
	33	0.453333	4.55583E-001	-9.94292E-005	0.00000E+000	-4.52983E-005	-5.99601E-002	4.55685E-001	3.57770E+000	9	...........
	34	0.466667	4.43006E-001	-9.84623E-005	0.00000E+000	-4.36194E-005	-5.99601E-002	4.43105E-001	3.57770E+000	9	...........
	35	0.48	4.30423E-001	-1.00026E-004	0.00000E+000	-4.30536E-005	-5.99601E-002	4.30517E-001	3.57770E+000	9	...........
	36	0.493333	4.17843E-001	-9.75236E-005	0.00000E+000	-4.07495E-005	-5.99601E-002	4.17933E-001	3.57770E+000	9	...........
	37	0.506667	4.05282E-001	-9.86842E-005	0.00000E+000	-3.99949E-005	-5.99601E-002	4.05368E-001	3.57770E+000	9	...........
	38	0.52	3.92738E-001	-9.87738E-005	0.00000E+000	-3.87922E-005	-5.99601E-002	3.92816E-001	3.57770E+000	9	...........
	39	0.533333	3.80212E-001	-9.81581E-005	0.00000E+000	-3.73209E-005	-5.99601E-002	3.80289E-001	3.57770E+000	9	...........
	40	0.546667	3.67710E-001	-9.86363E-005	0.00000E+000	-3.62695E-005	-5.99601E-002	3.67784E-001	3.57770E+000	9	...........
	41	0.56	3.55233E-001	-9.86780E-005	0.00000E+000	-3.50537E-005	-5.99601E-002	3.55303E-001	3.57770E+000	9	...........
	42	0.573333	3.42784E-001	-9.89082E-005	0.00000E+000	-3.39042E-005	-5.99601E-002	3.42855E-001	3.57770E+000	9	...........
	43	0.586667	3.30360E-001	-9.91093E-005	0.00000E+000	-3.27418E-005	-5.99601E-002	3.30434E-001	3.57770E+000	9	...........
	44	0.6	3.17973E-001	-9.90656E-005	0.00000E+000	-3.15002E-005	-5.99601E-002	3.18039E-001	3.57770E+000	9	...........
	45	0.613333	3.05601E-001	-9.80195E-005	0.00000E+000	-2.99549E-005	-5.99601E-002	3.05671E-001	3.57770E+000	9	...........
	46	0.626667	2.93268E-001	-9.76611E-005	0.00000E+000	-2.86409E-005	-5.99601E-002	2.93329E-001	3.57770E+000	9	...........
	47	0.64	2.80948E-001	-9.77643E-005	0.00000E+000	-2.74667E-005	-5.99601E-002	2.81006E-001	3.57770E+000	9	...........
	48	0.653333	2.68651E-001	-9.93760E-005	0.00000E+000	-2.66974E-005	-5.99601E-002	2.68708E-001	3.57770E+000	9	...........
	49	0.666667	2.56372E-001	-9.85144E-005	0.00000E+000	-2.52563E-005	-5.99601E-002	2.56425E-001	3.57770E+000	9	...........
	50	0.68	2.44106E-001	-9.90218E-005	0.00000E+000	-2.41718E-005	-5.99601E-002	2.44153E-001	3.57770E+000	9	...........
	51	0.693333	2.31848E-001	-9.89301E-005	0.00000E+000	-2.29368E-005	-5.99601E-002	2.31899E-001	3.57781E+000	9	...........
	52	0.706667	2.19601E-001	-9.83529E-005	0.00000E+000	-2.15984E-005	-5.99601E-002	2.19645E-001	3.57840E+000	9	...........
	53	0.72	2.07369E-001	-9.89082E-005	0.00000E+000	-2.05105E-005	-5.99601E-002	2.07409E-001	3.57840E+000	9	...........
	54	0.733333	1.95152E-001	-9.88822E-005	0.00000E+000	-1.92971E-005	-5.99601E-002	1.95193E-001	3.57840E+000	9	...........
	55	0.746667	1.82946E-001	-9.80143E-005	0.00000E+000	-1.79313E-005	-5.99601E-002	1.82990E-001	3.57840E+000	9	...........
	56	0.76	1.70771E-001	-9.92937E-005	0.00000E+000	-1.69565E-005	-5.99601E-002	1.70809E-001	3.57840E+000	9	...........
	57	0.773333	1.58630E-001	-9.78684E-005	0.00000E+000	-1.55249E-005	-5.99601E-002	1.58661E-001	3.57840E+000	9	...........
	58	0.786667	1.46514E-001	-9.96792E-005	0.00000E+000	-1.46044E-005	-5.99601E-002	1.46542E-001	3.57840E+000	9	...........
	59	0.8	1.34440E-001	-9.82800E-005	0.00000E+000	-1.32128E-005	-5.99601E-002	1.34468E-001	3.57840E+000	9	...........
	60	0.813333	1.22397E-001	-9.90645E-005	0.00000E+000	-1.21252E-005	-5.99601E-002	1.22425E-001	3.57840E+000	9	...........
	61	0.826667	1.10407E-001	-1.00200E-004	0.00000E+000	-1.10628E-005	-5.99601E-002	1.10432E-001	3.57840E+000	9	...........
	62	0.84	9.84844E-002	-9.90822E-005	0.00000E+000	-9.75806E-006	-5.99601E-002	9.85094E-002	3.57840E+000	9	...........
	63	0.853333	8.66232E-002	-9.91218E-005	0.00000E+000	-8.58625E-006	-5.99601E-002	8.66422E-002	3.57840E+000	9	...........
	64	0.866667	7.48406E-002	-9.83540E-005	0.00000E+000	-7.36087E-006	-5.99601E-002	7.48491E-002	3.57840E+000	9	...........
	65	0.88	6.31394E-002	-9.81727E-005	0.00000E+000	-6.19856E-006	-5.99601E-002	6.31488E-002	3.57840E+000	9	...........
	66	0.893333	5.15546E-002	-9.87322E-005	0.00000E+000	-5.09010E-006	-5.99601E-002	5.15566E-002	3.57840E+000	9	...........
	67	0.906667	4.00932E-002	-9.88259E-005	0.00000E+000	-3.96225E-006	-5.99601E-002	4.00946E-002	3.57840E+000	9	...........
	68	0.92	2.87244E-002	-9.85530E-005	0.00000E+000	-2.83087E-006	-5.99601E-002	2.87182E-002	3.57840E+000	9	...........
	69	0.933333	1.74787E-002	-9.83321E-005	0.00000E+000	-1.71871E-006	-5.99601E-002	1.74715E-002	3.57840E+000	9	...........
	70	0.946667	6.39052E-003	-9.85623E-005	0.00000E+000	-6.29865E-007	-5.99601E-002	6.37105E-003	3.57840E+000	9	...........
	71	0.95	-4.63245E-004	-9.68391E-005	0.00000E+000	4.48602E-008	-5.99601E-002	-4.86828E-004	3.57840E+000	9	...........
STARTTIMEOFFSET	QUANT	385.7867	Start Time Offset (s)
