EXPLAIN
TAG	PWR800_DISCHARGE
TITLE	LABEL	PWR Cyclic Charge Discharge (Cell) - Discharge Step	Test &Identifier
DATE	LABEL	12-7-2017	Date
TIME	LABEL	16:20:39	Time
NOTES	NOTES	2	&Notes...
	supercap test cell
	6M KOH
PSTAT	PSTAT	IFC5000-01520	Potentiostat
CAPACITY	QUANT	1.00000E-003	Capacity (A-hr)
CELLTYPE	SELECTOR	1	&Cell Type
WORKINGCONNECTION	SELECTOR	0	&Working Lead
MAXDISCHARGETIME	VARIABLEANDUNITS	1.00000E+002	s	1.00000E+002	second(s)	Max &Discharge Time
DISCHARGEMODE	MULTIPARAM	0	1.00000E-004	&Discharge Mode	Constant Current	Amp(s)
SAMPLETIME	QUANT	1.00000E-002	Sa&mple Period (s)
DISCHARGESTOPAT1	MULTIPARAM	3	0.00000E+000	Discharge Stop At &1	Voltage < Limit	V
DISCHARGESTOPAT2	MULTIPARAM	0	0.00000E+000	Discharge Stop At &2	None	N/A
AESBHCSELECTOR	TOGGLE	F	Save Both Half Cells
IRCOMP	TOGGLE	F	IR &Measure
EOC	QUANT	0	Open Circuit (V)
SEQUENCER	TOGGLE	TRUE	Run as Sequence
PSTATMODEL	IQUANT	53	Pstat Model
PSTATSECTION	LABEL	IFC5000-01520	Pstat Section
PSTATSERIALNO	LABEL	01520	Pstat Serial Number
CTRLMODE	IQUANT	0	Control Mode
ELECTROMETER	IQUANT	1	RE=0 or CS=1
IESTAB	IQUANT	0	I/E Stability
CASPEED	IQUANT	4	Control Amp Speed
CONVENTION	IQUANT	1	Current Convention
ICHRANGE	IQUANT	2	Ich Range
ICHRANGEMODE	TOGGLE	T	Ich Auto Range
ICHOFFSETENABLE	TOGGLE	F	Ich Offset Enable
ICHOFFSET	QUANT	0	Ich Offset (V)
ICHFILTER	IQUANT	1	Ich Filter
VCHRANGE	IQUANT	2	Vch Range
VCHRANGEMODE	TOGGLE	T	Vch Auto Range
VCHOFFSETENABLE	TOGGLE	F	Vch Offset Enable
VCHOFFSET	QUANT	0	Vch Offset (V)
VCHFILTER	IQUANT	1	Vch Filter
IERANGELOWERLIMIT	IQUANT	9	I/E Range Lower Limit
IERANGEMODE	TOGGLE	F	I/E AutoRange
IERANGE	IQUANT	9	I/E Range
ACHSELECT	IQUANT	1	Ach Select
ACHRANGE	IQUANT	2	Ach Range
ACHOFFSETENABLE	TOGGLE	F	Ach Offset Enable
ACHOFFSET	QUANT	0	Ach Offset (V)
ACHFILTER	IQUANT	1	Ach Filter
CABLEID	IQUANT	14	Cable ID
DCCALDATE	LABEL	5-7-2017	DC Calibration Date
ACCALDATE	LABEL	12/3/2015	AC Calibration Date
FRAMEWORKVERSION	QUANT	7.01	Framework Version
INSTRUMENTVERSION	LABEL	4.00	Instrument Version
CURVE	TABLE	72
	Pt	T	Vf	Im	Vu	Pwr	Sig	Ach	Temp	IERange	Over
	#	s	V	A	V	W	V	V	deg C	#	bits
	0	0.013333	8.44892E-001	-9.80278E-005	0.00000E+000	-8.28230E-005	-5.99601E-002	8.45235E-001	3.57760E+000	9	...........
	1	0.026667	8.31973E-001	-9.88020E-005	0.00000E+000	-8.22005E-005	-5.99601E-002	8.32270E-001	3.57760E+000	9	...........
	2	0.04	8.19664E-001	-9.81435E-005	0.00000E+000	-8.04447E-005	-5.99601E-002	8.19943E-001	3.57760E+000	9	...........
	3	0.053333	8.07692E-001	-9.93844E-005	0.00000E+000	-8.02720E-005	-5.99601E-002	8.07942E-001	3.57760E+000	9	...........
	4	0.066667	7.96013E-001	-9.92302E-005	0.00000E+000	-7.89885E-005	-5.99601E-002	7.96265E-001	3.57760E+000	9	...........
	5	0.08	7.84511E-001	-9.93354E-005	0.00000E+000	-7.79298E-005	-5.99601E-002	7.84757E-001	3.57760E+000	9	...........
	6	0.093333	7.73225E-001	-9.86082E-005	0.00000E+000	-7.62463E-005	-5.99601E-002	7.73452E-001	3.57760E+000	9	...........
	7	0.106667	7.62033E-001	-9.89457E-005	0.00000E+000	-7.53999E-005	-5.99601E-002	7.62289E-001	3.57760E+000	9	...........
	8	0.12	7.50998E-001	-1.00180E-004	0.00000E+000	-7.52352E-005	-5.99601E-002	7.51238E-001	3.57760E+000	9	...........
	9	0.133333	7.40024E-001	-9.87405E-005	0.00000E+000	-7.30703E-005	-5.99601E-002	7.40295E-001	3.57753E+000	9	...........
	10	0.146667	7.29177E-001	-9.79591E-005	0.00000E+000	-7.14295E-005	-5.99601E-002	7.29426E-001	3.57730E+000	9	...........
	11	0.16	7.18373E-001	-9.92177E-005	0.00000E+000	-7.12753E-005	-5.99601E-002	7.18630E-001	3.57730E+000	9	...........
	12	0.173333	7.07589E-001	-9.90208E-005	0.00000E+000	-7.00660E-005	-5.99601E-002	7.07844E-001	3.57730E+000	9	...........
	13	0.186667	6.96824E-001	-9.78539E-005	0.00000E+000	-6.81869E-005	-5.99601E-002	6.97093E-001	3.57730E+000	9	...........
	14	0.2	6.85999E-001	-9.84779E-005	0.00000E+000	-6.75557E-005	-5.99601E-002	6.86254E-001	3.57730E+000	9	...........
	15	0.213333	6.75102E-001	-9.82967E-005	0.00000E+000	-6.63603E-005	-5.99601E-002	6.75345E-001	3.57730E+000	9	...........
	16	0.226667	6.64069E-001	-9.87197E-005	0.00000E+000	-6.55567E-005	-5.99601E-002	6.64319E-001	3.57730E+000	9	...........
	17	0.24	6.52891E-001	-9.91968E-005	0.00000E+000	-6.47648E-005	-5.99601E-002	6.53099E-001	3.57730E+000	9	...........
	18	0.253333	6.41534E-001	-9.84175E-005	0.00000E+000	-6.31381E-005	-5.99601E-002	6.41757E-001	3.57730E+000	9	...........
	19	0.266667	6.30010E-001	-9.85957E-005	0.00000E+000	-6.21163E-005	-5.99601E-002	6.30243E-001	3.57730E+000	9	...........
	20	0.28	6.18374E-001	-9.94396E-005	0.00000E+000	-6.14908E-005	-5.99601E-002	6.18592E-001	3.57730E+000	9	...........
	21	0.293333	6.06529E-001	-9.88603E-005	0.00000E+000	-5.99617E-005	-5.99601E-002	6.06796E-001	3.57730E+000	9	...........
	22	0.306667	5.94620E-001	-9.92739E-005	0.00000E+000	-5.90303E-005	-5.99601E-002	5.94882E-001	3.57730E+000	9	...........
	23	0.32	5.82558E-001	-9.78059E-005	0.00000E+000	-5.69776E-005	-5.99601E-002	5.82823E-001	3.57730E+000	9	...........
	24	0.333333	5.70416E-001	-9.81206E-005	0.00000E+000	-5.59695E-005	-5.99601E-002	5.70685E-001	3.57730E+000	9	...........
	25	0.346667	5.58149E-001	-1.00002E-004	0.00000E+000	-5.58161E-005	-5.99601E-002	5.58392E-001	3.57730E+000	9	...........
	26	0.36	5.45851E-001	-9.84196E-005	0.00000E+000	-5.37224E-005	-5.99601E-002	5.46072E-001	3.57730E+000	9	...........
	27	0.373333	5.33402E-001	-9.75632E-005	0.00000E+000	-5.20404E-005	-5.99601E-002	5.33631E-001	3.57730E+000	9	...........
	28	0.386667	5.20906E-001	-9.89708E-005	0.00000E+000	-5.15545E-005	-5.99601E-002	5.21158E-001	3.57730E+000	9	...........
	29	0.4	5.08343E-001	-9.78091E-005	0.00000E+000	-4.97206E-005	-5.99601E-002	5.08595E-001	3.57730E+000	9	...........
	30	0.413333	4.95731E-001	-9.81195E-005	0.00000E+000	-4.86409E-005	-5.99601E-002	4.95999E-001	3.57730E+000	9	...........
	31	0.426667	4.83348E-001	-9.84384E-005	0.00000E+000	-4.75800E-005	-5.99601E-002	4.83457E-001	3.57730E+000	9	...........
	32	0.44	4.70808E-001	-9.84894E-005	0.00000E+000	-4.63696E-005	-5.99601E-002	4.70914E-001	3.57730E+000	9	...........
	33	0.453333	4.58125E-001	-9.93896E-005	0.00000E+000	-4.55328E-005	-5.99601E-002	4.58219E-001	3.57730E+000	9	...........
	34	0.466667	4.45420E-001	-9.94386E-005	0.00000E+000	-4.42919E-005	-5.99601E-002	4.45520E-001	3.57730E+000	9	...........
	35	0.48	4.32725E-001	-9.85967E-005	0.00000E+000	-4.26652E-005	-5.99601E-002	4.32814E-001	3.57730E+000	9	...........
	36	0.493333	4.20016E-001	-9.81268E-005	0.00000E+000	-4.12149E-005	-5.99601E-002	4.20109E-001	3.57730E+000	9	...........
	37	0.506667	4.07329E-001	-9.84811E-005	0.00000E+000	-4.01142E-005	-5.99601E-002	4.07414E-001	3.57730E+000	9	...........
	38	0.52	3.94652E-001	-9.78101E-005	0.00000E+000	-3.86010E-005	-5.99601E-002	3.94732E-001	3.57730E+000	9	...........
	39	0.533333	3.81992E-001	-9.85207E-005	0.00000E+000	-3.76341E-005	-5.99601E-002	3.82066E-001	3.57730E+000	9	...........
	40	0.546667	3.69346E-001	-9.87374E-005	0.00000E+000	-3.64683E-005	-5.99601E-002	3.69419E-001	3.57730E+000	9	...........
	41	0.56	3.56724E-001	-9.86978E-005	0.00000E+000	-3.52079E-005	-5.99601E-002	3.56798E-001	3.57730E+000	9	...........
	42	0.573333	3.44133E-001	-9.89499E-005	0.00000E+000	-3.40519E-005	-5.99601E-002	3.44205E-001	3.57730E+000	9	...........
	43	0.586667	3.31578E-001	-9.92760E-005	0.00000E+000	-3.29178E-005	-5.99601E-002	3.31644E-001	3.57730E+000	9	...........
	44	0.6	3.19064E-001	-9.81727E-005	0.00000E+000	-3.13233E-005	-5.99601E-002	3.19121E-001	3.57730E+000	9	...........
	45	0.613333	3.06571E-001	-9.92104E-005	0.00000E+000	-3.04150E-005	-5.99601E-002	3.06629E-001	3.57730E+000	9	...........
	46	0.626667	2.94112E-001	-9.86790E-005	0.00000E+000	-2.90227E-005	-5.99601E-002	2.94168E-001	3.57730E+000	9	...........
	47	0.64	2.81686E-001	-9.90145E-005	0.00000E+000	-2.78910E-005	-5.99601E-002	2.81745E-001	3.57730E+000	9	...........
	48	0.653333	2.69272E-001	-9.83029E-005	0.00000E+000	-2.64703E-005	-5.99601E-002	2.69329E-001	3.57730E+000	9	...........
	49	0.666667	2.56895E-001	-9.90041E-005	0.00000E+000	-2.54336E-005	-5.99601E-002	2.56944E-001	3.57730E+000	9	...........
	50	0.68	2.44532E-001	-9.81748E-005	0.00000E+000	-2.40069E-005	-5.99601E-002	2.44583E-001	3.57730E+000	9	...........
	51	0.693333	2.32198E-001	-9.92844E-005	0.00000E+000	-2.30536E-005	-5.99601E-002	2.32243E-001	3.57730E+000	9	...........
	52	0.706667	2.19880E-001	-9.78205E-005	0.00000E+000	-2.15087E-005	-5.99601E-002	2.19921E-001	3.57730E+000	9	...........
	53	0.72	2.07578E-001	-9.81320E-005	0.00000E+000	-2.03701E-005	-5.99601E-002	2.07623E-001	3.57730E+000	9	...........
	54	0.733333	1.95297E-001	-9.80456E-005	0.00000E+000	-1.91480E-005	-5.99601E-002	1.95338E-001	3.57730E+000	9	...........
	55	0.746667	1.83039E-001	-9.85967E-005	0.00000E+000	-1.80470E-005	-5.99601E-002	1.83078E-001	3.57730E+000	9	...........
	56	0.76	1.70803E-001	-9.87728E-005	0.00000E+000	-1.68707E-005	-5.99601E-002	1.70835E-001	3.57730E+000	9	...........
	57	0.773333	1.58604E-001	-9.82123E-005	0.00000E+000	-1.55768E-005	-5.99601E-002	1.58636E-001	3.57730E+000	9	...........
	58	0.786667	1.46446E-001	-9.84894E-005	0.00000E+000	-1.44234E-005	-5.99601E-002	1.46470E-001	3.57730E+000	9	...........
	59	0.8	1.34319E-001	-9.85550E-005	0.00000E+000	-1.32378E-005	-5.99601E-002	1.34343E-001	3.57730E+000	9	...........
	60	0.813333	1.22238E-001	-9.83144E-005	0.00000E+000	-1.20177E-005	-5.99601E-002	1.22261E-001	3.57730E+000	9	...........
	61	0.826667	1.10212E-001	-9.88874E-005	0.00000E+000	-1.08986E-005	-5.99601E-002	1.10231E-001	3.57730E+000	9	...........
	62	0.84	9.82469E-002	-9.89770E-005	0.00000E+000	-9.72418E-006	-5.99601E-002	9.82652E-002	3.57730E+000	9	...........
	63	0.853333	8.63521E-002	-9.79362E-005	0.00000E+000	-8.45700E-006	-5.99601E-002	8.63712E-002	3.57730E+000	9	...........
	64	0.866667	7.45463E-002	-9.88905E-005	0.00000E+000	-7.37192E-006	-5.99601E-002	7.45573E-002	3.57730E+000	9	...........
	65	0.88	6.28223E-002	-9.85780E-005	0.00000E+000	-6.19289E-006	-5.99601E-002	6.28280E-002	3.57730E+000	9	...........
	66	0.893333	5.12016E-002	-9.93437E-005	0.00000E+000	-5.08656E-006	-5.99601E-002	5.12129E-002	3.57730E+000	9	...........
	67	0.906667	3.97248E-002	-9.81341E-005	0.00000E+000	-3.89836E-006	-5.99601E-002	3.97267E-002	3.57730E+000	9	...........
	68	0.92	2.83380E-002	-9.89593E-005	0.00000E+000	-2.80431E-006	-5.99601E-002	2.83312E-002	3.57730E+000	9	...........
	69	0.933333	1.70803E-002	-9.93927E-005	0.00000E+000	-1.69766E-006	-5.99601E-002	1.70721E-002	3.57730E+000	9	...........
	70	0.946667	5.97443E-003	-9.89937E-005	0.00000E+000	-5.91430E-007	-5.99601E-002	5.95553E-003	3.57730E+000	9	...........
	71	0.948333	-2.24982E-004	-1.01111E-004	0.00000E+000	2.27481E-008	-5.99601E-002	-2.38556E-004	3.57730E+000	9	...........
STARTTIMEOFFSET	QUANT	453.3685	Start Time Offset (s)
