EXPLAIN
TAG	PWR800_DISCHARGE
TITLE	LABEL	PWR Cyclic Charge Discharge (Cell) - Discharge Step	Test &Identifier
DATE	LABEL	12-7-2017	Date
TIME	LABEL	16:19:52	Time
NOTES	NOTES	2	&Notes...
	supercap test cell
	6M KOH
PSTAT	PSTAT	IFC5000-01520	Potentiostat
CAPACITY	QUANT	1.00000E-003	Capacity (A-hr)
CELLTYPE	SELECTOR	1	&Cell Type
WORKINGCONNECTION	SELECTOR	0	&Working Lead
MAXDISCHARGETIME	VARIABLEANDUNITS	1.00000E+002	s	1.00000E+002	second(s)	Max &Discharge Time
DISCHARGEMODE	MULTIPARAM	0	1.00000E-004	&Discharge Mode	Constant Current	Amp(s)
SAMPLETIME	QUANT	1.00000E-002	Sa&mple Period (s)
DISCHARGESTOPAT1	MULTIPARAM	3	0.00000E+000	Discharge Stop At &1	Voltage < Limit	V
DISCHARGESTOPAT2	MULTIPARAM	0	0.00000E+000	Discharge Stop At &2	None	N/A
AESBHCSELECTOR	TOGGLE	F	Save Both Half Cells
IRCOMP	TOGGLE	F	IR &Measure
EOC	QUANT	0	Open Circuit (V)
SEQUENCER	TOGGLE	TRUE	Run as Sequence
PSTATMODEL	IQUANT	53	Pstat Model
PSTATSECTION	LABEL	IFC5000-01520	Pstat Section
PSTATSERIALNO	LABEL	01520	Pstat Serial Number
CTRLMODE	IQUANT	0	Control Mode
ELECTROMETER	IQUANT	1	RE=0 or CS=1
IESTAB	IQUANT	0	I/E Stability
CASPEED	IQUANT	4	Control Amp Speed
CONVENTION	IQUANT	1	Current Convention
ICHRANGE	IQUANT	2	Ich Range
ICHRANGEMODE	TOGGLE	T	Ich Auto Range
ICHOFFSETENABLE	TOGGLE	F	Ich Offset Enable
ICHOFFSET	QUANT	0	Ich Offset (V)
ICHFILTER	IQUANT	1	Ich Filter
VCHRANGE	IQUANT	2	Vch Range
VCHRANGEMODE	TOGGLE	T	Vch Auto Range
VCHOFFSETENABLE	TOGGLE	F	Vch Offset Enable
VCHOFFSET	QUANT	0	Vch Offset (V)
VCHFILTER	IQUANT	1	Vch Filter
IERANGELOWERLIMIT	IQUANT	9	I/E Range Lower Limit
IERANGEMODE	TOGGLE	F	I/E AutoRange
IERANGE	IQUANT	9	I/E Range
ACHSELECT	IQUANT	1	Ach Select
ACHRANGE	IQUANT	2	Ach Range
ACHOFFSETENABLE	TOGGLE	F	Ach Offset Enable
ACHOFFSET	QUANT	0	Ach Offset (V)
ACHFILTER	IQUANT	1	Ach Filter
CABLEID	IQUANT	14	Cable ID
DCCALDATE	LABEL	5-7-2017	DC Calibration Date
ACCALDATE	LABEL	12/3/2015	AC Calibration Date
FRAMEWORKVERSION	QUANT	7.01	Framework Version
INSTRUMENTVERSION	LABEL	4.00	Instrument Version
CURVE	TABLE	72
	Pt	T	Vf	Im	Vu	Pwr	Sig	Ach	Temp	IERange	Over
	#	s	V	A	V	W	V	V	deg C	#	bits
	0	0.013333	8.46009E-001	-9.88957E-005	0.00000E+000	-8.36667E-005	-5.99601E-002	8.46317E-001	3.57840E+000	9	...........
	1	0.026667	8.33072E-001	-9.80529E-005	0.00000E+000	-8.16851E-005	-5.99601E-002	8.33371E-001	3.57840E+000	9	...........
	2	0.04	8.20757E-001	-9.81227E-005	0.00000E+000	-8.05349E-005	-5.99601E-002	8.21022E-001	3.57840E+000	9	...........
	3	0.053333	8.08790E-001	-9.94167E-005	0.00000E+000	-8.04072E-005	-5.99601E-002	8.09040E-001	3.57840E+000	9	...........
	4	0.066667	7.97106E-001	-9.71068E-005	0.00000E+000	-7.74044E-005	-5.99601E-002	7.97352E-001	3.57840E+000	9	...........
	5	0.08	7.85614E-001	-9.89207E-005	0.00000E+000	-7.77136E-005	-5.99601E-002	7.85869E-001	3.57840E+000	9	...........
	6	0.093333	7.74268E-001	-9.95896E-005	0.00000E+000	-7.71090E-005	-5.99601E-002	7.74550E-001	3.57840E+000	9	...........
	7	0.106667	7.63076E-001	-9.95980E-005	0.00000E+000	-7.60008E-005	-5.99601E-002	7.63346E-001	3.57840E+000	9	...........
	8	0.12	7.52043E-001	-9.68422E-005	0.00000E+000	-7.28295E-005	-5.99601E-002	7.52270E-001	3.57840E+000	9	...........
	9	0.133333	7.41083E-001	-9.77007E-005	0.00000E+000	-7.24043E-005	-5.99601E-002	7.41311E-001	3.57840E+000	9	...........
	10	0.146667	7.30195E-001	-9.86551E-005	0.00000E+000	-7.20374E-005	-5.99601E-002	7.30439E-001	3.57840E+000	9	...........
	11	0.16	7.19377E-001	-9.79643E-005	0.00000E+000	-7.04733E-005	-5.99601E-002	7.19625E-001	3.57840E+000	9	...........
	12	0.173333	7.08555E-001	-9.81143E-005	0.00000E+000	-6.95194E-005	-5.99601E-002	7.08819E-001	3.57840E+000	9	...........
	13	0.186667	6.97763E-001	-9.83644E-005	0.00000E+000	-6.86350E-005	-5.99601E-002	6.97992E-001	3.57840E+000	9	...........
	14	0.2	6.86895E-001	-9.86926E-005	0.00000E+000	-6.77915E-005	-5.99601E-002	6.87095E-001	3.57840E+000	9	...........
	15	0.213333	6.75912E-001	-9.86884E-005	0.00000E+000	-6.67047E-005	-5.99601E-002	6.76148E-001	3.57840E+000	9	...........
	16	0.226667	6.64818E-001	-9.85842E-005	0.00000E+000	-6.55406E-005	-5.99601E-002	6.65027E-001	3.57840E+000	9	...........
	17	0.24	6.53558E-001	-9.88311E-005	0.00000E+000	-6.45919E-005	-5.99601E-002	6.53787E-001	3.57840E+000	9	...........
	18	0.253333	6.42140E-001	-9.91239E-005	0.00000E+000	-6.36514E-005	-5.99601E-002	6.42364E-001	3.57840E+000	9	...........
	19	0.266667	6.30578E-001	-9.81664E-005	0.00000E+000	-6.19016E-005	-5.99601E-002	6.30793E-001	3.57840E+000	9	...........
	20	0.28	6.18891E-001	-9.75152E-005	0.00000E+000	-6.03513E-005	-5.99601E-002	6.19132E-001	3.57840E+000	9	...........
	21	0.293333	6.06976E-001	-9.85863E-005	0.00000E+000	-5.98395E-005	-5.99601E-002	6.07258E-001	3.57840E+000	9	...........
	22	0.306667	5.95030E-001	-9.87395E-005	0.00000E+000	-5.87529E-005	-5.99601E-002	5.95292E-001	3.57840E+000	9	...........
	23	0.32	5.82941E-001	-9.90510E-005	0.00000E+000	-5.77408E-005	-5.99601E-002	5.83206E-001	3.57840E+000	9	...........
	24	0.333333	5.70781E-001	-9.85998E-005	0.00000E+000	-5.62789E-005	-5.99601E-002	5.71025E-001	3.57840E+000	9	...........
	25	0.346667	5.58467E-001	-9.89405E-005	0.00000E+000	-5.52550E-005	-5.99601E-002	5.58732E-001	3.57728E+000	9	...........
	26	0.36	5.46130E-001	-9.82289E-005	0.00000E+000	-5.36457E-005	-5.99601E-002	5.46381E-001	3.57690E+000	9	...........
	27	0.373333	5.33694E-001	-9.87113E-005	0.00000E+000	-5.26816E-005	-5.99601E-002	5.33924E-001	3.57690E+000	9	...........
	28	0.386667	5.21224E-001	-9.98199E-005	0.00000E+000	-5.20285E-005	-5.99601E-002	5.21444E-001	3.57690E+000	9	...........
	29	0.4	5.08669E-001	-9.90645E-005	0.00000E+000	-5.03911E-005	-5.99601E-002	5.08859E-001	3.57690E+000	9	...........
	30	0.413333	4.96102E-001	-9.90416E-005	0.00000E+000	-4.91348E-005	-5.99601E-002	4.96284E-001	3.57690E+000	9	...........
	31	0.426667	4.83670E-001	-9.81664E-005	0.00000E+000	-4.74802E-005	-5.99601E-002	4.83805E-001	3.57690E+000	9	...........
	32	0.44	4.71193E-001	-9.86332E-005	0.00000E+000	-4.64753E-005	-5.99601E-002	4.71289E-001	3.57690E+000	9	...........
	33	0.453333	4.58539E-001	-9.87426E-005	0.00000E+000	-4.52774E-005	-5.99601E-002	4.58636E-001	3.57690E+000	9	...........
	34	0.466667	4.45884E-001	-9.83800E-005	0.00000E+000	-4.38661E-005	-5.99601E-002	4.45977E-001	3.57690E+000	9	...........
	35	0.48	4.33217E-001	-9.77747E-005	0.00000E+000	-4.23577E-005	-5.99601E-002	4.33310E-001	3.57690E+000	9	...........
	36	0.493333	4.20557E-001	-9.76069E-005	0.00000E+000	-4.10493E-005	-5.99601E-002	4.20647E-001	3.57690E+000	9	...........
	37	0.506667	4.07901E-001	-9.93781E-005	0.00000E+000	-4.05365E-005	-5.99601E-002	4.07988E-001	3.57690E+000	9	...........
	38	0.52	3.95268E-001	-9.93479E-005	0.00000E+000	-3.92690E-005	-5.99601E-002	3.95351E-001	3.57690E+000	9	...........
	39	0.533333	3.82651E-001	-9.88551E-005	0.00000E+000	-3.78270E-005	-5.99601E-002	3.82735E-001	3.57690E+000	9	...........
	40	0.546667	3.70059E-001	-9.89843E-005	0.00000E+000	-3.66300E-005	-5.99601E-002	3.70141E-001	3.57690E+000	9	...........
	41	0.56	3.57487E-001	-9.86957E-005	0.00000E+000	-3.52824E-005	-5.99601E-002	3.57565E-001	3.57690E+000	9	...........
	42	0.573333	3.44937E-001	-9.96511E-005	0.00000E+000	-3.43734E-005	-5.99601E-002	3.45014E-001	3.57690E+000	9	...........
	43	0.586667	3.32423E-001	-9.83863E-005	0.00000E+000	-3.27058E-005	-5.99601E-002	3.32498E-001	3.57690E+000	9	...........
	44	0.6	3.19944E-001	-9.78664E-005	0.00000E+000	-3.13118E-005	-5.99601E-002	3.20017E-001	3.57690E+000	9	...........
	45	0.613333	3.07485E-001	-9.83123E-005	0.00000E+000	-3.02295E-005	-5.99601E-002	3.07558E-001	3.57690E+000	9	...........
	46	0.626667	2.95063E-001	-1.00303E-004	0.00000E+000	-2.95958E-005	-5.99601E-002	2.95125E-001	3.57690E+000	9	...........
	47	0.64	2.82667E-001	-9.83800E-005	0.00000E+000	-2.78088E-005	-5.99601E-002	2.82729E-001	3.57690E+000	9	...........
	48	0.653333	2.70290E-001	-9.85801E-005	0.00000E+000	-2.66452E-005	-5.99601E-002	2.70349E-001	3.57690E+000	9	...........
	49	0.666667	2.57925E-001	-9.86603E-005	0.00000E+000	-2.54470E-005	-5.99601E-002	2.57987E-001	3.57690E+000	9	...........
	50	0.68	2.45601E-001	-9.83290E-005	0.00000E+000	-2.41497E-005	-5.99601E-002	2.45651E-001	3.57690E+000	9	...........
	51	0.693333	2.33282E-001	-9.90562E-005	0.00000E+000	-2.31081E-005	-5.99601E-002	2.33332E-001	3.57690E+000	9	...........
	52	0.706667	2.20977E-001	-9.84540E-005	0.00000E+000	-2.17561E-005	-5.99601E-002	2.21021E-001	3.57690E+000	9	...........
	53	0.72	2.08685E-001	-9.88291E-005	0.00000E+000	-2.06242E-005	-5.99601E-002	2.08725E-001	3.57690E+000	9	...........
	54	0.733333	1.96415E-001	-9.79570E-005	0.00000E+000	-1.92402E-005	-5.99601E-002	1.96455E-001	3.57690E+000	9	...........
	55	0.746667	1.84161E-001	-9.98116E-005	0.00000E+000	-1.83814E-005	-5.99601E-002	1.84200E-001	3.57690E+000	9	...........
	56	0.76	1.71940E-001	-9.80956E-005	0.00000E+000	-1.68666E-005	-5.99601E-002	1.71977E-001	3.57690E+000	9	...........
	57	0.773333	1.59742E-001	-9.80008E-005	0.00000E+000	-1.56549E-005	-5.99601E-002	1.59775E-001	3.57690E+000	9	...........
	58	0.786667	1.47580E-001	-9.65973E-005	0.00000E+000	-1.42558E-005	-5.99601E-002	1.47607E-001	3.57690E+000	9	...........
	59	0.8	1.35452E-001	-9.96969E-005	0.00000E+000	-1.35042E-005	-5.99601E-002	1.35478E-001	3.57690E+000	9	...........
	60	0.813333	1.23372E-001	-9.93417E-005	0.00000E+000	-1.22559E-005	-5.99601E-002	1.23399E-001	3.57690E+000	9	...........
	61	0.826667	1.11347E-001	-9.92864E-005	0.00000E+000	-1.10553E-005	-5.99601E-002	1.11361E-001	3.57690E+000	9	...........
	62	0.84	9.93748E-002	-9.87280E-005	0.00000E+000	-9.81107E-006	-5.99601E-002	9.93914E-002	3.57690E+000	9	...........
	63	0.853333	8.74725E-002	-9.85248E-005	0.00000E+000	-8.61822E-006	-5.99601E-002	8.74867E-002	3.57690E+000	9	...........
	64	0.866667	7.56521E-002	-9.82612E-005	0.00000E+000	-7.43366E-006	-5.99601E-002	7.56630E-002	3.57690E+000	9	...........
	65	0.88	6.39205E-002	-9.89009E-005	0.00000E+000	-6.32180E-006	-5.99601E-002	6.39299E-002	3.57690E+000	9	...........
	66	0.893333	5.22836E-002	-9.85123E-005	0.00000E+000	-5.15058E-006	-5.99601E-002	5.22851E-002	3.57690E+000	9	...........
	67	0.906667	4.07835E-002	-9.95584E-005	0.00000E+000	-4.06034E-006	-5.99601E-002	4.07871E-002	3.57690E+000	9	...........
	68	0.92	2.93777E-002	-9.77226E-005	0.00000E+000	-2.87086E-006	-5.99601E-002	2.93761E-002	3.57690E+000	9	...........
	69	0.933333	1.81007E-002	-9.91041E-005	0.00000E+000	-1.79385E-006	-5.99601E-002	1.80924E-002	3.57690E+000	9	...........
	70	0.946667	6.97085E-003	-9.94511E-005	0.00000E+000	-6.93258E-007	-5.99601E-002	6.95270E-003	3.57690E+000	9	...........
	71	0.95	9.24675E-005	-9.85894E-005	0.00000E+000	-9.11631E-009	-5.99601E-002	7.28357E-005	3.57690E+000	9	...........
STARTTIMEOFFSET	QUANT	419.6085	Start Time Offset (s)
