EXPLAIN
TAG	PWR800_DISCHARGE
TITLE	LABEL	PWR Cyclic Charge Discharge (Cell) - Discharge Step	Test &Identifier
DATE	LABEL	12-7-2017	Date
TIME	LABEL	16:30:16	Time
NOTES	NOTES	2	&Notes...
	supercap test cell
	6M KOH
PSTAT	PSTAT	IFC5000-01520	Potentiostat
CAPACITY	QUANT	1.00000E-003	Capacity (A-hr)
CELLTYPE	SELECTOR	1	&Cell Type
WORKINGCONNECTION	SELECTOR	0	&Working Lead
MAXDISCHARGETIME	VARIABLEANDUNITS	1.00000E+002	s	1.00000E+002	second(s)	Max &Discharge Time
DISCHARGEMODE	MULTIPARAM	0	1.00000E-004	&Discharge Mode	Constant Current	Amp(s)
SAMPLETIME	QUANT	1.00000E-002	Sa&mple Period (s)
DISCHARGESTOPAT1	MULTIPARAM	3	0.00000E+000	Discharge Stop At &1	Voltage < Limit	V
DISCHARGESTOPAT2	MULTIPARAM	0	0.00000E+000	Discharge Stop At &2	None	N/A
AESBHCSELECTOR	TOGGLE	F	Save Both Half Cells
IRCOMP	TOGGLE	F	IR &Measure
EOC	QUANT	0	Open Circuit (V)
SEQUENCER	TOGGLE	TRUE	Run as Sequence
PSTATMODEL	IQUANT	53	Pstat Model
PSTATSECTION	LABEL	IFC5000-01520	Pstat Section
PSTATSERIALNO	LABEL	01520	Pstat Serial Number
CTRLMODE	IQUANT	0	Control Mode
ELECTROMETER	IQUANT	1	RE=0 or CS=1
IESTAB	IQUANT	0	I/E Stability
CASPEED	IQUANT	4	Control Amp Speed
CONVENTION	IQUANT	1	Current Convention
ICHRANGE	IQUANT	2	Ich Range
ICHRANGEMODE	TOGGLE	T	Ich Auto Range
ICHOFFSETENABLE	TOGGLE	F	Ich Offset Enable
ICHOFFSET	QUANT	0	Ich Offset (V)
ICHFILTER	IQUANT	1	Ich Filter
VCHRANGE	IQUANT	2	Vch Range
VCHRANGEMODE	TOGGLE	T	Vch Auto Range
VCHOFFSETENABLE	TOGGLE	F	Vch Offset Enable
VCHOFFSET	QUANT	0	Vch Offset (V)
VCHFILTER	IQUANT	1	Vch Filter
IERANGELOWERLIMIT	IQUANT	9	I/E Range Lower Limit
IERANGEMODE	TOGGLE	F	I/E AutoRange
IERANGE	IQUANT	9	I/E Range
ACHSELECT	IQUANT	1	Ach Select
ACHRANGE	IQUANT	2	Ach Range
ACHOFFSETENABLE	TOGGLE	F	Ach Offset Enable
ACHOFFSET	QUANT	0	Ach Offset (V)
ACHFILTER	IQUANT	1	Ach Filter
CABLEID	IQUANT	14	Cable ID
DCCALDATE	LABEL	5-7-2017	DC Calibration Date
ACCALDATE	LABEL	12/3/2015	AC Calibration Date
FRAMEWORKVERSION	QUANT	7.01	Framework Version
INSTRUMENTVERSION	LABEL	4.00	Instrument Version
CURVE	TABLE	71
	Pt	T	Vf	Im	Vu	Pwr	Sig	Ach	Temp	IERange	Over
	#	s	V	A	V	W	V	V	deg C	#	bits
	0	0.013333	8.45125E-001	-9.80101E-005	0.00000E+000	-8.28308E-005	-5.99601E-002	8.45466E-001	3.57810E+000	9	...........
	1	0.026667	8.32126E-001	-9.82018E-005	0.00000E+000	-8.17164E-005	-5.99601E-002	8.32427E-001	3.57810E+000	9	...........
	2	0.04	8.19679E-001	-9.83498E-005	0.00000E+000	-8.06153E-005	-5.99601E-002	8.19996E-001	3.57810E+000	9	...........
	3	0.053333	8.07614E-001	-9.89322E-005	0.00000E+000	-7.98990E-005	-5.99601E-002	8.07931E-001	3.57810E+000	9	...........
	4	0.066667	7.95871E-001	-9.89134E-005	0.00000E+000	-7.87223E-005	-5.99601E-002	7.96146E-001	3.57810E+000	9	...........
	5	0.08	7.84280E-001	-9.82154E-005	0.00000E+000	-7.70284E-005	-5.99601E-002	7.84564E-001	3.57810E+000	9	...........
	6	0.093333	7.72861E-001	-9.89374E-005	0.00000E+000	-7.64649E-005	-5.99601E-002	7.73164E-001	3.57810E+000	9	...........
	7	0.106667	7.61588E-001	-9.88530E-005	0.00000E+000	-7.52853E-005	-5.99601E-002	7.61890E-001	3.57810E+000	9	...........
	8	0.12	7.50429E-001	-9.89093E-005	0.00000E+000	-7.42244E-005	-5.99601E-002	7.50709E-001	3.57810E+000	9	...........
	9	0.133333	7.39353E-001	-9.98782E-005	0.00000E+000	-7.38453E-005	-5.99601E-002	7.39663E-001	3.57810E+000	9	...........
	10	0.146667	7.28428E-001	-9.86467E-005	0.00000E+000	-7.18571E-005	-5.99601E-002	7.28709E-001	3.57810E+000	9	...........
	11	0.16	7.17553E-001	-9.82112E-005	0.00000E+000	-7.04717E-005	-5.99601E-002	7.17825E-001	3.57810E+000	9	...........
	12	0.173333	7.06729E-001	-9.80664E-005	0.00000E+000	-6.93064E-005	-5.99601E-002	7.07033E-001	3.57810E+000	9	...........
	13	0.186667	6.96025E-001	-9.83352E-005	0.00000E+000	-6.84438E-005	-5.99601E-002	6.96302E-001	3.57810E+000	9	...........
	14	0.2	6.85347E-001	-9.79570E-005	0.00000E+000	-6.71346E-005	-5.99601E-002	6.85609E-001	3.57810E+000	9	...........
	15	0.213333	6.74716E-001	-9.84081E-005	0.00000E+000	-6.63975E-005	-5.99601E-002	6.74959E-001	3.57810E+000	9	...........
	16	0.226667	6.64033E-001	-9.82571E-005	0.00000E+000	-6.52459E-005	-5.99601E-002	6.64269E-001	3.57810E+000	9	...........
	17	0.24	6.53300E-001	-9.93406E-005	0.00000E+000	-6.48993E-005	-5.99601E-002	6.53557E-001	3.57810E+000	9	...........
	18	0.253333	6.42480E-001	-9.84102E-005	0.00000E+000	-6.32266E-005	-5.99601E-002	6.42729E-001	3.57810E+000	9	...........
	19	0.266667	6.31485E-001	-9.86947E-005	0.00000E+000	-6.23242E-005	-5.99601E-002	6.31728E-001	3.57792E+000	9	...........
	20	0.28	6.20352E-001	-9.83092E-005	0.00000E+000	-6.09863E-005	-5.99601E-002	6.20578E-001	3.57670E+000	9	...........
	21	0.293333	6.08943E-001	-9.87915E-005	0.00000E+000	-6.01584E-005	-5.99601E-002	6.09246E-001	3.57670E+000	9	...........
	22	0.306667	5.97443E-001	-1.00489E-004	0.00000E+000	-6.00364E-005	-5.99601E-002	5.97706E-001	3.57670E+000	9	...........
	23	0.32	5.85728E-001	-9.69776E-005	0.00000E+000	-5.68025E-005	-5.99601E-002	5.85982E-001	3.57670E+000	9	...........
	24	0.333333	5.73834E-001	-9.85717E-005	0.00000E+000	-5.65638E-005	-5.99601E-002	5.74073E-001	3.57670E+000	9	...........
	25	0.346667	5.61738E-001	-9.93073E-005	0.00000E+000	-5.57847E-005	-5.99601E-002	5.61974E-001	3.57670E+000	9	...........
	26	0.36	5.49523E-001	-9.92146E-005	0.00000E+000	-5.45207E-005	-5.99601E-002	5.49747E-001	3.57670E+000	9	...........
	27	0.373333	5.37160E-001	-9.85634E-005	0.00000E+000	-5.29443E-005	-5.99601E-002	5.37362E-001	3.57670E+000	9	...........
	28	0.386667	5.24670E-001	-9.89197E-005	0.00000E+000	-5.19002E-005	-5.99601E-002	5.24870E-001	3.57670E+000	9	...........
	29	0.4	5.12067E-001	-9.95896E-005	0.00000E+000	-5.09966E-005	-5.99601E-002	5.12281E-001	3.57670E+000	9	...........
	30	0.413333	4.99332E-001	-9.85665E-005	0.00000E+000	-4.92174E-005	-5.99601E-002	4.99561E-001	3.57670E+000	9	...........
	31	0.426667	4.86624E-001	-9.82977E-005	0.00000E+000	-4.78340E-005	-5.99601E-002	4.86804E-001	3.57670E+000	9	...........
	32	0.44	4.73971E-001	-9.93094E-005	0.00000E+000	-4.70697E-005	-5.99601E-002	4.74077E-001	3.57670E+000	9	...........
	33	0.453333	4.61021E-001	-9.95552E-005	0.00000E+000	-4.58971E-005	-5.99601E-002	4.61122E-001	3.57670E+000	9	...........
	34	0.466667	4.48024E-001	-9.95177E-005	0.00000E+000	-4.45863E-005	-5.99601E-002	4.48120E-001	3.57670E+000	9	...........
	35	0.48	4.34981E-001	-9.86540E-005	0.00000E+000	-4.29127E-005	-5.99601E-002	4.35082E-001	3.57670E+000	9	...........
	36	0.493333	4.21907E-001	-9.91395E-005	0.00000E+000	-4.18276E-005	-5.99601E-002	4.22002E-001	3.57670E+000	9	...........
	37	0.506667	4.08816E-001	-9.86540E-005	0.00000E+000	-4.03313E-005	-5.99601E-002	4.08900E-001	3.57670E+000	9	...........
	38	0.52	3.95720E-001	-9.87759E-005	0.00000E+000	-3.90876E-005	-5.99601E-002	3.95803E-001	3.57670E+000	9	...........
	39	0.533333	3.82614E-001	-9.73287E-005	0.00000E+000	-3.72393E-005	-5.99601E-002	3.82702E-001	3.57670E+000	9	...........
	40	0.546667	3.69527E-001	-9.95198E-005	0.00000E+000	-3.67753E-005	-5.99601E-002	3.69601E-001	3.57670E+000	9	...........
	41	0.56	3.56448E-001	-9.83863E-005	0.00000E+000	-3.50696E-005	-5.99601E-002	3.56527E-001	3.57670E+000	9	...........
	42	0.573333	3.43396E-001	-9.93844E-005	0.00000E+000	-3.41282E-005	-5.99601E-002	3.43473E-001	3.57670E+000	9	...........
	43	0.586667	3.30385E-001	-9.85134E-005	0.00000E+000	-3.25473E-005	-5.99601E-002	3.30456E-001	3.57670E+000	9	...........
	44	0.6	3.17419E-001	-9.73089E-005	0.00000E+000	-3.08877E-005	-5.99601E-002	3.17493E-001	3.57670E+000	9	...........
	45	0.613333	3.04485E-001	-9.88749E-005	0.00000E+000	-3.01059E-005	-5.99601E-002	3.04554E-001	3.57670E+000	9	...........
	46	0.626667	2.91600E-001	-9.89405E-005	0.00000E+000	-2.88510E-005	-5.99601E-002	2.91669E-001	3.57670E+000	9	...........
	47	0.64	2.78776E-001	-9.89134E-005	0.00000E+000	-2.75747E-005	-5.99601E-002	2.78837E-001	3.57670E+000	9	...........
	48	0.653333	2.65994E-001	-9.88395E-005	0.00000E+000	-2.62907E-005	-5.99601E-002	2.66054E-001	3.57670E+000	9	...........
	49	0.666667	2.53272E-001	-9.86967E-005	0.00000E+000	-2.49972E-005	-5.99601E-002	2.53329E-001	3.57670E+000	9	...........
	50	0.68	2.40608E-001	-9.79518E-005	0.00000E+000	-2.35680E-005	-5.99601E-002	2.40662E-001	3.57670E+000	9	...........
	51	0.693333	2.27996E-001	-9.91312E-005	0.00000E+000	-2.26016E-005	-5.99601E-002	2.28044E-001	3.57670E+000	9	...........
	52	0.706667	2.15432E-001	-9.99168E-005	0.00000E+000	-2.15253E-005	-5.99601E-002	2.15475E-001	3.57670E+000	9	...........
	53	0.72	2.02927E-001	-9.90385E-005	0.00000E+000	-2.00976E-005	-5.99601E-002	2.02970E-001	3.57670E+000	9	...........
	54	0.733333	1.90463E-001	-9.92708E-005	0.00000E+000	-1.89074E-005	-5.99601E-002	1.90504E-001	3.57670E+000	9	...........
	55	0.746667	1.78041E-001	-9.89114E-005	0.00000E+000	-1.76103E-005	-5.99601E-002	1.78084E-001	3.57670E+000	9	...........
	56	0.76	1.65676E-001	-9.82977E-005	0.00000E+000	-1.62856E-005	-5.99601E-002	1.65715E-001	3.57670E+000	9	...........
	57	0.773333	1.53359E-001	-9.93458E-005	0.00000E+000	-1.52355E-005	-5.99601E-002	1.53391E-001	3.57670E+000	9	...........
	58	0.786667	1.41097E-001	-9.79174E-005	0.00000E+000	-1.38159E-005	-5.99601E-002	1.41125E-001	3.57670E+000	9	...........
	59	0.8	1.28886E-001	-9.85623E-005	0.00000E+000	-1.27033E-005	-5.99601E-002	1.28916E-001	3.57670E+000	9	...........
	60	0.813333	1.16742E-001	-9.82831E-005	0.00000E+000	-1.14738E-005	-5.99601E-002	1.16771E-001	3.57670E+000	9	...........
	61	0.826667	1.04667E-001	-9.90895E-005	0.00000E+000	-1.03714E-005	-5.99601E-002	1.04692E-001	3.57670E+000	9	...........
	62	0.84	9.26782E-002	-9.88562E-005	0.00000E+000	-9.16181E-006	-5.99601E-002	9.27024E-002	3.57670E+000	9	...........
	63	0.853333	8.07834E-002	-9.90374E-005	0.00000E+000	-8.00058E-006	-5.99601E-002	8.08021E-002	3.57670E+000	9	...........
	64	0.866667	6.89853E-002	-9.82529E-005	0.00000E+000	-6.77801E-006	-5.99601E-002	6.89986E-002	3.57670E+000	9	...........
	65	0.88	5.72869E-002	-9.93437E-005	0.00000E+000	-5.69110E-006	-5.99601E-002	5.72943E-002	3.57670E+000	9	...........
	66	0.893333	4.57370E-002	-9.88364E-005	0.00000E+000	-4.52048E-006	-5.99601E-002	4.57438E-002	3.57670E+000	9	...........
	67	0.906667	3.43048E-002	-9.97522E-005	0.00000E+000	-3.42198E-006	-5.99601E-002	3.43086E-002	3.57670E+000	9	...........
	68	0.92	2.30082E-002	-9.87436E-005	0.00000E+000	-2.27191E-006	-5.99601E-002	2.30031E-002	3.57670E+000	9	...........
	69	0.933333	1.18594E-002	-9.88687E-005	0.00000E+000	-1.17252E-006	-5.99601E-002	1.18471E-002	3.57670E+000	9	...........
	70	0.943333	2.23510E-003	-9.93201E-005	0.00000E+000	-2.21990E-007	-5.99601E-002	2.21215E-003	3.57670E+000	9	...........
STARTTIMEOFFSET	QUANT	864.8721	Start Time Offset (s)
