EXPLAIN
TAG	PWR800_DISCHARGE
TITLE	LABEL	PWR Cyclic Charge Discharge (Cell) - Discharge Step	Test &Identifier
DATE	LABEL	12-7-2017	Date
TIME	LABEL	16:31:03	Time
NOTES	NOTES	2	&Notes...
	supercap test cell
	6M KOH
PSTAT	PSTAT	IFC5000-01520	Potentiostat
CAPACITY	QUANT	1.00000E-003	Capacity (A-hr)
CELLTYPE	SELECTOR	1	&Cell Type
WORKINGCONNECTION	SELECTOR	0	&Working Lead
MAXDISCHARGETIME	VARIABLEANDUNITS	1.00000E+002	s	1.00000E+002	second(s)	Max &Discharge Time
DISCHARGEMODE	MULTIPARAM	0	1.00000E-004	&Discharge Mode	Constant Current	Amp(s)
SAMPLETIME	QUANT	1.00000E-002	Sa&mple Period (s)
DISCHARGESTOPAT1	MULTIPARAM	3	0.00000E+000	Discharge Stop At &1	Voltage < Limit	V
DISCHARGESTOPAT2	MULTIPARAM	0	0.00000E+000	Discharge Stop At &2	None	N/A
AESBHCSELECTOR	TOGGLE	F	Save Both Half Cells
IRCOMP	TOGGLE	F	IR &Measure
EOC	QUANT	0	Open Circuit (V)
SEQUENCER	TOGGLE	TRUE	Run as Sequence
PSTATMODEL	IQUANT	53	Pstat Model
PSTATSECTION	LABEL	IFC5000-01520	Pstat Section
PSTATSERIALNO	LABEL	01520	Pstat Serial Number
CTRLMODE	IQUANT	0	Control Mode
ELECTROMETER	IQUANT	1	RE=0 or CS=1
IESTAB	IQUANT	0	I/E Stability
CASPEED	IQUANT	4	Control Amp Speed
CONVENTION	IQUANT	1	Current Convention
ICHRANGE	IQUANT	2	Ich Range
ICHRANGEMODE	TOGGLE	T	Ich Auto Range
ICHOFFSETENABLE	TOGGLE	F	Ich Offset Enable
ICHOFFSET	QUANT	0	Ich Offset (V)
ICHFILTER	IQUANT	1	Ich Filter
VCHRANGE	IQUANT	2	Vch Range
VCHRANGEMODE	TOGGLE	T	Vch Auto Range
VCHOFFSETENABLE	TOGGLE	F	Vch Offset Enable
VCHOFFSET	QUANT	0	Vch Offset (V)
VCHFILTER	IQUANT	1	Vch Filter
IERANGELOWERLIMIT	IQUANT	9	I/E Range Lower Limit
IERANGEMODE	TOGGLE	F	I/E AutoRange
IERANGE	IQUANT	9	I/E Range
ACHSELECT	IQUANT	1	Ach Select
ACHRANGE	IQUANT	2	Ach Range
ACHOFFSETENABLE	TOGGLE	F	Ach Offset Enable
ACHOFFSET	QUANT	0	Ach Offset (V)
ACHFILTER	IQUANT	1	Ach Filter
CABLEID	IQUANT	14	Cable ID
DCCALDATE	LABEL	5-7-2017	DC Calibration Date
ACCALDATE	LABEL	12/3/2015	AC Calibration Date
FRAMEWORKVERSION	QUANT	7.01	Framework Version
INSTRUMENTVERSION	LABEL	4.00	Instrument Version
CURVE	TABLE	71
	Pt	T	Vf	Im	Vu	Pwr	Sig	Ach	Temp	IERange	Over
	#	s	V	A	V	W	V	V	deg C	#	bits
	0	0.013333	8.42944E-001	-9.91750E-005	0.00000E+000	-8.35990E-005	-5.99601E-002	8.43269E-001	3.57680E+000	9	...........
	1	0.026667	8.29948E-001	-9.84884E-005	0.00000E+000	-8.17402E-005	-5.99601E-002	8.30242E-001	3.57680E+000	9	...........
	2	0.04	8.17544E-001	-9.99668E-005	0.00000E+000	-8.17272E-005	-5.99601E-002	8.17835E-001	3.57680E+000	9	...........
	3	0.053333	8.05487E-001	-9.82081E-005	0.00000E+000	-7.91053E-005	-5.99601E-002	8.05776E-001	3.57680E+000	9	...........
	4	0.066667	7.93751E-001	-9.84852E-005	0.00000E+000	-7.81728E-005	-5.99601E-002	7.94007E-001	3.57680E+000	9	...........
	5	0.08	7.82168E-001	-9.80570E-005	0.00000E+000	-7.66971E-005	-5.99601E-002	7.82419E-001	3.57680E+000	9	...........
	6	0.093333	7.70764E-001	-9.91854E-005	0.00000E+000	-7.64485E-005	-5.99601E-002	7.71031E-001	3.57680E+000	9	...........
	7	0.106667	7.59507E-001	-9.70464E-005	0.00000E+000	-7.37074E-005	-5.99601E-002	7.59735E-001	3.57680E+000	9	...........
	8	0.12	7.48332E-001	-9.92719E-005	0.00000E+000	-7.42883E-005	-5.99601E-002	7.48591E-001	3.57680E+000	9	...........
	9	0.133333	7.37273E-001	-9.82456E-005	0.00000E+000	-7.24338E-005	-5.99601E-002	7.37523E-001	3.57680E+000	9	...........
	10	0.146667	7.26357E-001	-1.00839E-004	0.00000E+000	-7.32450E-005	-5.99601E-002	7.26603E-001	3.57680E+000	9	...........
	11	0.16	7.15465E-001	-9.90479E-005	0.00000E+000	-7.08652E-005	-5.99601E-002	7.15720E-001	3.57680E+000	9	...........
	12	0.173333	7.04682E-001	-9.94563E-005	0.00000E+000	-7.00850E-005	-5.99601E-002	7.04931E-001	3.57680E+000	9	...........
	13	0.186667	6.93982E-001	-9.85332E-005	0.00000E+000	-6.83802E-005	-5.99601E-002	6.94243E-001	3.57680E+000	9	...........
	14	0.2	6.83313E-001	-9.78591E-005	0.00000E+000	-6.68683E-005	-5.99601E-002	6.83577E-001	3.57680E+000	9	...........
	15	0.213333	6.72661E-001	-9.79883E-005	0.00000E+000	-6.59129E-005	-5.99601E-002	6.72935E-001	3.57680E+000	9	...........
	16	0.226667	6.61997E-001	-9.86269E-005	0.00000E+000	-6.52908E-005	-5.99601E-002	6.62277E-001	3.57680E+000	9	...........
	17	0.24	6.51291E-001	-9.94990E-005	0.00000E+000	-6.48028E-005	-5.99601E-002	6.51567E-001	3.57680E+000	9	...........
	18	0.253333	6.40472E-001	-9.81602E-005	0.00000E+000	-6.28688E-005	-5.99601E-002	6.40739E-001	3.57680E+000	9	...........
	19	0.266667	6.29500E-001	-9.94834E-005	0.00000E+000	-6.26248E-005	-5.99601E-002	6.29784E-001	3.57680E+000	9	...........
	20	0.28	6.18374E-001	-9.76976E-005	0.00000E+000	-6.04136E-005	-5.99601E-002	6.18653E-001	3.57680E+000	9	...........
	21	0.293333	6.07001E-001	-9.86634E-005	0.00000E+000	-5.98888E-005	-5.99601E-002	6.07300E-001	3.57680E+000	9	...........
	22	0.306667	5.95497E-001	-9.86134E-005	0.00000E+000	-5.87239E-005	-5.99601E-002	5.95763E-001	3.57680E+000	9	...........
	23	0.32	5.83773E-001	-9.80977E-005	0.00000E+000	-5.72668E-005	-5.99601E-002	5.84063E-001	3.57680E+000	9	...........
	24	0.333333	5.71905E-001	-9.85373E-005	0.00000E+000	-5.63540E-005	-5.99601E-002	5.72155E-001	3.57680E+000	9	...........
	25	0.346667	5.59817E-001	-9.98334E-005	0.00000E+000	-5.58885E-005	-5.99601E-002	5.60057E-001	3.57680E+000	9	...........
	26	0.36	5.47618E-001	-9.97678E-005	0.00000E+000	-5.46346E-005	-5.99601E-002	5.47825E-001	3.57680E+000	9	...........
	27	0.373333	5.35264E-001	-9.87072E-005	0.00000E+000	-5.28344E-005	-5.99601E-002	5.35459E-001	3.57680E+000	9	...........
	28	0.386667	5.22746E-001	-9.88791E-005	0.00000E+000	-5.16886E-005	-5.99601E-002	5.22957E-001	3.57680E+000	9	...........
	29	0.4	5.10134E-001	-9.87926E-005	0.00000E+000	-5.03974E-005	-5.99601E-002	5.10360E-001	3.57680E+000	9	...........
	30	0.413333	4.97420E-001	-9.93229E-005	0.00000E+000	-4.94052E-005	-5.99601E-002	4.97658E-001	3.57680E+000	9	...........
	31	0.426667	4.84795E-001	-9.94479E-005	0.00000E+000	-4.82118E-005	-5.99601E-002	4.84926E-001	3.57680E+000	9	...........
	32	0.44	4.72063E-001	-9.90010E-005	0.00000E+000	-4.67347E-005	-5.99601E-002	4.72167E-001	3.57680E+000	9	...........
	33	0.453333	4.59113E-001	-9.96063E-005	0.00000E+000	-4.57305E-005	-5.99601E-002	4.59213E-001	3.57680E+000	9	...........
	34	0.466667	4.46111E-001	-9.83373E-005	0.00000E+000	-4.38693E-005	-5.99601E-002	4.46203E-001	3.57680E+000	9	...........
	35	0.48	4.33062E-001	-9.90249E-005	0.00000E+000	-4.28840E-005	-5.99601E-002	4.33154E-001	3.57680E+000	9	...........
	36	0.493333	4.19982E-001	-9.77997E-005	0.00000E+000	-4.10741E-005	-5.99601E-002	4.20080E-001	3.57680E+000	9	...........
	37	0.506667	4.06885E-001	-9.83290E-005	0.00000E+000	-4.00086E-005	-5.99601E-002	4.06974E-001	3.57680E+000	9	...........
	38	0.52	3.93775E-001	-9.80008E-005	0.00000E+000	-3.85902E-005	-5.99601E-002	3.93858E-001	3.57680E+000	9	...........
	39	0.533333	3.80663E-001	-9.81102E-005	0.00000E+000	-3.73469E-005	-5.99601E-002	3.80740E-001	3.57680E+000	9	...........
	40	0.546667	3.67570E-001	-9.74538E-005	0.00000E+000	-3.58210E-005	-5.99601E-002	3.67645E-001	3.57680E+000	9	...........
	41	0.56	3.54488E-001	-9.90624E-005	0.00000E+000	-3.51164E-005	-5.99601E-002	3.54558E-001	3.57680E+000	9	...........
	42	0.573333	3.41435E-001	-9.87228E-005	0.00000E+000	-3.37074E-005	-5.99601E-002	3.41499E-001	3.57680E+000	9	...........
	43	0.586667	3.28410E-001	-9.92521E-005	0.00000E+000	-3.25954E-005	-5.99601E-002	3.28477E-001	3.57706E+000	9	...........
	44	0.6	3.15430E-001	-9.81268E-005	0.00000E+000	-3.09521E-005	-5.99601E-002	3.15489E-001	3.57710E+000	9	...........
	45	0.613333	3.02490E-001	-9.90739E-005	0.00000E+000	-2.99688E-005	-5.99601E-002	3.02546E-001	3.57710E+000	9	...........
	46	0.626667	2.89608E-001	-9.94657E-005	0.00000E+000	-2.88060E-005	-5.99601E-002	2.89668E-001	3.57710E+000	9	...........
	47	0.64	2.76779E-001	-9.89082E-005	0.00000E+000	-2.73757E-005	-5.99601E-002	2.76841E-001	3.57710E+000	9	...........
	48	0.653333	2.63999E-001	-9.78049E-005	0.00000E+000	-2.58204E-005	-5.99601E-002	2.64057E-001	3.57710E+000	9	...........
	49	0.666667	2.51283E-001	-9.87457E-005	0.00000E+000	-2.48131E-005	-5.99601E-002	2.51341E-001	3.57710E+000	9	...........
	50	0.68	2.38625E-001	-9.82008E-005	0.00000E+000	-2.34331E-005	-5.99601E-002	2.38677E-001	3.57710E+000	9	...........
	51	0.693333	2.26009E-001	-9.87040E-005	0.00000E+000	-2.23080E-005	-5.99601E-002	2.26061E-001	3.57710E+000	9	...........
	52	0.706667	2.13459E-001	-9.83154E-005	0.00000E+000	-2.09863E-005	-5.99601E-002	2.13502E-001	3.57710E+000	9	...........
	53	0.72	2.00960E-001	-9.78393E-005	0.00000E+000	-1.96618E-005	-5.99601E-002	2.00999E-001	3.57710E+000	9	...........
	54	0.733333	1.88508E-001	-9.88238E-005	0.00000E+000	-1.86291E-005	-5.99601E-002	1.88545E-001	3.57710E+000	9	...........
	55	0.746667	1.76103E-001	-9.89624E-005	0.00000E+000	-1.74276E-005	-5.99601E-002	1.76140E-001	3.57710E+000	9	...........
	56	0.76	1.63758E-001	-9.82581E-005	0.00000E+000	-1.60906E-005	-5.99601E-002	1.63792E-001	3.57710E+000	9	...........
	57	0.773333	1.51457E-001	-9.94594E-005	0.00000E+000	-1.50638E-005	-5.99601E-002	1.51485E-001	3.57710E+000	9	...........
	58	0.786667	1.39202E-001	-9.89874E-005	0.00000E+000	-1.37792E-005	-5.99601E-002	1.39229E-001	3.57710E+000	9	...........
	59	0.8	1.27018E-001	-9.88395E-005	0.00000E+000	-1.25544E-005	-5.99601E-002	1.27038E-001	3.57710E+000	9	...........
	60	0.813333	1.14893E-001	-9.71433E-005	0.00000E+000	-1.11611E-005	-5.99601E-002	1.14913E-001	3.57710E+000	9	...........
	61	0.826667	1.02853E-001	-9.83435E-005	0.00000E+000	-1.01150E-005	-5.99601E-002	1.02874E-001	3.57710E+000	9	...........
	62	0.84	9.08923E-002	-9.92937E-005	0.00000E+000	-9.02504E-006	-5.99601E-002	9.09062E-002	3.57710E+000	9	...........
	63	0.853333	7.90258E-002	-9.88134E-005	0.00000E+000	-7.80881E-006	-5.99601E-002	7.90364E-002	3.57710E+000	9	...........
	64	0.866667	6.72528E-002	-9.92010E-005	0.00000E+000	-6.67154E-006	-5.99601E-002	6.72661E-002	3.57710E+000	9	...........
	65	0.88	5.56003E-002	-9.74454E-005	0.00000E+000	-5.41799E-006	-5.99601E-002	5.56083E-002	3.57710E+000	9	...........
	66	0.893333	4.40935E-002	-9.82842E-005	0.00000E+000	-4.33369E-006	-5.99601E-002	4.40957E-002	3.57710E+000	9	...........
	67	0.906667	3.26948E-002	-9.89030E-005	0.00000E+000	-3.23361E-006	-5.99601E-002	3.26899E-002	3.57710E+000	9	...........
	68	0.92	2.14328E-002	-9.86801E-005	0.00000E+000	-2.11499E-006	-5.99601E-002	2.14284E-002	3.57710E+000	9	...........
	69	0.933333	1.03220E-002	-9.79247E-005	0.00000E+000	-1.01078E-006	-5.99601E-002	1.03102E-002	3.57710E+000	9	...........
	70	0.941667	1.41100E-003	-9.82752E-005	0.00000E+000	-1.38666E-007	-5.99601E-002	1.38983E-003	3.57710E+000	9	...........
STARTTIMEOFFSET	QUANT	898.1287	Start Time Offset (s)
