EXPLAIN
TAG	PWR800_DISCHARGE
TITLE	LABEL	PWR Cyclic Charge Discharge (Cell) - Discharge Step	Test &Identifier
DATE	LABEL	12-7-2017	Date
TIME	LABEL	16:47:58	Time
NOTES	NOTES	2	&Notes...
	supercap test cell
	6M KOH
PSTAT	PSTAT	IFC5000-01520	Potentiostat
CAPACITY	QUANT	1.00000E-003	Capacity (A-hr)
CELLTYPE	SELECTOR	1	&Cell Type
WORKINGCONNECTION	SELECTOR	0	&Working Lead
MAXDISCHARGETIME	VARIABLEANDUNITS	1.00000E+002	s	1.00000E+002	second(s)	Max &Discharge Time
DISCHARGEMODE	MULTIPARAM	0	1.00000E-004	&Discharge Mode	Constant Current	Amp(s)
SAMPLETIME	QUANT	1.00000E-002	Sa&mple Period (s)
DISCHARGESTOPAT1	MULTIPARAM	3	0.00000E+000	Discharge Stop At &1	Voltage < Limit	V
DISCHARGESTOPAT2	MULTIPARAM	0	0.00000E+000	Discharge Stop At &2	None	N/A
AESBHCSELECTOR	TOGGLE	F	Save Both Half Cells
IRCOMP	TOGGLE	F	IR &Measure
EOC	QUANT	0	Open Circuit (V)
SEQUENCER	TOGGLE	TRUE	Run as Sequence
PSTATMODEL	IQUANT	53	Pstat Model
PSTATSECTION	LABEL	IFC5000-01520	Pstat Section
PSTATSERIALNO	LABEL	01520	Pstat Serial Number
CTRLMODE	IQUANT	0	Control Mode
ELECTROMETER	IQUANT	1	RE=0 or CS=1
IESTAB	IQUANT	0	I/E Stability
CASPEED	IQUANT	4	Control Amp Speed
CONVENTION	IQUANT	1	Current Convention
ICHRANGE	IQUANT	2	Ich Range
ICHRANGEMODE	TOGGLE	T	Ich Auto Range
ICHOFFSETENABLE	TOGGLE	F	Ich Offset Enable
ICHOFFSET	QUANT	0	Ich Offset (V)
ICHFILTER	IQUANT	1	Ich Filter
VCHRANGE	IQUANT	2	Vch Range
VCHRANGEMODE	TOGGLE	T	Vch Auto Range
VCHOFFSETENABLE	TOGGLE	F	Vch Offset Enable
VCHOFFSET	QUANT	0	Vch Offset (V)
VCHFILTER	IQUANT	1	Vch Filter
IERANGELOWERLIMIT	IQUANT	9	I/E Range Lower Limit
IERANGEMODE	TOGGLE	F	I/E AutoRange
IERANGE	IQUANT	9	I/E Range
ACHSELECT	IQUANT	1	Ach Select
ACHRANGE	IQUANT	2	Ach Range
ACHOFFSETENABLE	TOGGLE	F	Ach Offset Enable
ACHOFFSET	QUANT	0	Ach Offset (V)
ACHFILTER	IQUANT	1	Ach Filter
CABLEID	IQUANT	14	Cable ID
DCCALDATE	LABEL	5-7-2017	DC Calibration Date
ACCALDATE	LABEL	12/3/2015	AC Calibration Date
FRAMEWORKVERSION	QUANT	7.01	Framework Version
INSTRUMENTVERSION	LABEL	4.00	Instrument Version
CURVE	TABLE	70
	Pt	T	Vf	Im	Vu	Pwr	Sig	Ach	Temp	IERange	Over
	#	s	V	A	V	W	V	V	deg C	#	bits
	0	0.013333	8.45000E-001	-9.83352E-005	0.00000E+000	-8.30932E-005	-5.99601E-002	8.45292E-001	3.57730E+000	9	...........
	1	0.026667	8.31828E-001	-9.91802E-005	0.00000E+000	-8.25008E-005	-5.99601E-002	8.32110E-001	3.57730E+000	9	...........
	2	0.04	8.19259E-001	-9.76986E-005	0.00000E+000	-8.00405E-005	-5.99601E-002	8.19530E-001	3.57730E+000	9	...........
	3	0.053333	8.07035E-001	-9.91520E-005	0.00000E+000	-8.00191E-005	-5.99601E-002	8.07308E-001	3.57730E+000	9	...........
	4	0.066667	7.95097E-001	-9.96094E-005	0.00000E+000	-7.91991E-005	-5.99601E-002	7.95345E-001	3.57730E+000	9	...........
	5	0.08	7.83311E-001	-9.80049E-005	0.00000E+000	-7.67683E-005	-5.99601E-002	7.83582E-001	3.57730E+000	9	...........
	6	0.093333	7.71702E-001	-9.82289E-005	0.00000E+000	-7.58034E-005	-5.99601E-002	7.71981E-001	3.57730E+000	9	...........
	7	0.106667	7.60221E-001	-9.89510E-005	0.00000E+000	-7.52246E-005	-5.99601E-002	7.60467E-001	3.57730E+000	9	...........
	8	0.12	7.48834E-001	-9.97543E-005	0.00000E+000	-7.46994E-005	-5.99601E-002	7.49134E-001	3.57730E+000	9	...........
	9	0.133333	7.37555E-001	-9.81498E-005	0.00000E+000	-7.23909E-005	-5.99601E-002	7.37818E-001	3.57730E+000	9	...........
	10	0.146667	7.26377E-001	-9.98668E-005	0.00000E+000	-7.25410E-005	-5.99601E-002	7.26628E-001	3.57730E+000	9	...........
	11	0.16	7.15237E-001	-9.84675E-005	0.00000E+000	-7.04276E-005	-5.99601E-002	7.15505E-001	3.57730E+000	9	...........
	12	0.173333	7.04214E-001	-1.00055E-004	0.00000E+000	-7.04604E-005	-5.99601E-002	7.04502E-001	3.57730E+000	9	...........
	13	0.186667	6.93270E-001	-9.94761E-005	0.00000E+000	-6.89638E-005	-5.99601E-002	6.93559E-001	3.57730E+000	9	...........
	14	0.2	6.82400E-001	-9.92239E-005	0.00000E+000	-6.77104E-005	-5.99601E-002	6.82677E-001	3.57730E+000	9	...........
	15	0.213333	6.71618E-001	-9.79705E-005	0.00000E+000	-6.57988E-005	-5.99601E-002	6.71895E-001	3.57730E+000	9	...........
	16	0.226667	6.60843E-001	-9.83435E-005	0.00000E+000	-6.49897E-005	-5.99601E-002	6.61125E-001	3.57730E+000	9	...........
	17	0.24	6.50118E-001	-9.88322E-005	0.00000E+000	-6.42526E-005	-5.99601E-002	6.50408E-001	3.57730E+000	9	...........
	18	0.253333	6.39350E-001	-9.96959E-005	0.00000E+000	-6.37406E-005	-5.99601E-002	6.39627E-001	3.57730E+000	9	...........
	19	0.266667	6.28537E-001	-9.82279E-005	0.00000E+000	-6.17399E-005	-5.99601E-002	6.28777E-001	3.57730E+000	9	...........
	20	0.28	6.17570E-001	-9.84550E-005	0.00000E+000	-6.08028E-005	-5.99601E-002	6.17809E-001	3.57730E+000	9	...........
	21	0.293333	6.06391E-001	-9.93479E-005	0.00000E+000	-6.02436E-005	-5.99601E-002	6.06671E-001	3.57730E+000	9	...........
	22	0.306667	5.95090E-001	-9.74725E-005	0.00000E+000	-5.80049E-005	-5.99601E-002	5.95350E-001	3.57730E+000	9	...........
	23	0.32	5.83535E-001	-9.95396E-005	0.00000E+000	-5.80848E-005	-5.99601E-002	5.83780E-001	3.57730E+000	9	...........
	24	0.333333	5.71784E-001	-9.86051E-005	0.00000E+000	-5.63808E-005	-5.99601E-002	5.72020E-001	3.57730E+000	9	...........
	25	0.346667	5.59801E-001	-1.00022E-004	0.00000E+000	-5.59924E-005	-5.99601E-002	5.60032E-001	3.57730E+000	9	...........
	26	0.36	5.47655E-001	-9.92281E-005	0.00000E+000	-5.43428E-005	-5.99601E-002	5.47859E-001	3.57730E+000	9	...........
	27	0.373333	5.35290E-001	-9.90228E-005	0.00000E+000	-5.30060E-005	-5.99601E-002	5.35522E-001	3.57730E+000	9	...........
	28	0.386667	5.22772E-001	-9.92396E-005	0.00000E+000	-5.18797E-005	-5.99601E-002	5.22987E-001	3.57730E+000	9	...........
	29	0.4	5.10101E-001	-9.78559E-005	0.00000E+000	-4.99164E-005	-5.99601E-002	5.10311E-001	3.57730E+000	9	...........
	30	0.413333	4.97265E-001	-9.75819E-005	0.00000E+000	-4.85241E-005	-5.99601E-002	4.97503E-001	3.57730E+000	9	...........
	31	0.426667	4.84484E-001	-9.87634E-005	0.00000E+000	-4.78493E-005	-5.99601E-002	4.84634E-001	3.57730E+000	9	...........
	32	0.44	4.71598E-001	-9.85134E-005	0.00000E+000	-4.64587E-005	-5.99601E-002	4.71694E-001	3.57730E+000	9	...........
	33	0.453333	4.58459E-001	-9.94000E-005	0.00000E+000	-4.55709E-005	-5.99601E-002	4.58558E-001	3.57730E+000	9	...........
	34	0.466667	4.45246E-001	-9.91437E-005	0.00000E+000	-4.41433E-005	-5.99601E-002	4.45344E-001	3.57730E+000	9	...........
	35	0.48	4.31958E-001	-9.79893E-005	0.00000E+000	-4.23273E-005	-5.99601E-002	4.32053E-001	3.57730E+000	9	...........
	36	0.493333	4.18617E-001	-9.87395E-005	0.00000E+000	-4.13340E-005	-5.99601E-002	4.18714E-001	3.57730E+000	9	...........
	37	0.506667	4.05251E-001	-9.83310E-005	0.00000E+000	-3.98488E-005	-5.99601E-002	4.05334E-001	3.57730E+000	9	...........
	38	0.52	3.91850E-001	-9.86342E-005	0.00000E+000	-3.86498E-005	-5.99601E-002	3.91928E-001	3.57730E+000	9	...........
	39	0.533333	3.78439E-001	-9.91531E-005	0.00000E+000	-3.75234E-005	-5.99601E-002	3.78516E-001	3.57730E+000	9	...........
	40	0.546667	3.65024E-001	-9.82487E-005	0.00000E+000	-3.58631E-005	-5.99601E-002	3.65099E-001	3.57730E+000	9	...........
	41	0.56	3.51621E-001	-9.79132E-005	0.00000E+000	-3.44283E-005	-5.99601E-002	3.51694E-001	3.57730E+000	9	...........
	42	0.573333	3.38236E-001	-9.96969E-005	0.00000E+000	-3.37211E-005	-5.99601E-002	3.38306E-001	3.57730E+000	9	...........
	43	0.586667	3.24888E-001	-9.93125E-005	0.00000E+000	-3.22655E-005	-5.99601E-002	3.24954E-001	3.57730E+000	9	...........
	44	0.6	3.11584E-001	-9.77101E-005	0.00000E+000	-3.04449E-005	-5.99601E-002	3.11645E-001	3.57730E+000	9	...........
	45	0.613333	2.98308E-001	-9.83102E-005	0.00000E+000	-2.93267E-005	-5.99601E-002	2.98366E-001	3.57730E+000	9	...........
	46	0.626667	2.85085E-001	-9.83810E-005	0.00000E+000	-2.80470E-005	-5.99601E-002	2.85144E-001	3.57730E+000	9	...........
	47	0.64	2.71927E-001	-9.80278E-005	0.00000E+000	-2.66565E-005	-5.99601E-002	2.71984E-001	3.57730E+000	9	...........
	48	0.653333	2.58836E-001	-9.90291E-005	0.00000E+000	-2.56323E-005	-5.99601E-002	2.58890E-001	3.57730E+000	9	...........
	49	0.666667	2.45814E-001	-9.90676E-005	0.00000E+000	-2.43522E-005	-5.99601E-002	2.45864E-001	3.57730E+000	9	...........
	50	0.68	2.32862E-001	-9.68161E-005	0.00000E+000	-2.25448E-005	-5.99601E-002	2.32907E-001	3.57730E+000	9	...........
	51	0.693333	2.19975E-001	-9.81091E-005	0.00000E+000	-2.15816E-005	-5.99601E-002	2.20020E-001	3.57730E+000	9	...........
	52	0.706667	2.07154E-001	-9.86165E-005	0.00000E+000	-2.04288E-005	-5.99601E-002	2.07199E-001	3.57730E+000	9	...........
	53	0.72	1.94420E-001	-9.98355E-005	0.00000E+000	-1.94101E-005	-5.99601E-002	1.94457E-001	3.57730E+000	9	...........
	54	0.733333	1.81755E-001	-9.81070E-005	0.00000E+000	-1.78315E-005	-5.99601E-002	1.81793E-001	3.57730E+000	9	...........
	55	0.746667	1.69166E-001	-9.90697E-005	0.00000E+000	-1.67593E-005	-5.99601E-002	1.69203E-001	3.57730E+000	9	...........
	56	0.76	1.56663E-001	-9.81247E-005	0.00000E+000	-1.53725E-005	-5.99601E-002	1.56695E-001	3.57730E+000	9	...........
	57	0.773333	1.44223E-001	-9.96251E-005	0.00000E+000	-1.43682E-005	-5.99601E-002	1.44253E-001	3.57730E+000	9	...........
	58	0.786667	1.31860E-001	-9.90374E-005	0.00000E+000	-1.30591E-005	-5.99601E-002	1.31885E-001	3.57730E+000	9	...........
	59	0.8	1.19574E-001	-9.72829E-005	0.00000E+000	-1.16325E-005	-5.99601E-002	1.19594E-001	3.57730E+000	9	...........
	60	0.813333	1.07369E-001	-9.83300E-005	0.00000E+000	-1.05576E-005	-5.99601E-002	1.07391E-001	3.57730E+000	9	...........
	61	0.826667	9.52687E-002	-9.77601E-005	0.00000E+000	-9.31347E-006	-5.99601E-002	9.52852E-002	3.57730E+000	9	...........
	62	0.84	8.32656E-002	-9.86123E-005	0.00000E+000	-8.21101E-006	-5.99601E-002	8.32734E-002	3.57730E+000	9	...........
	63	0.853333	7.13750E-002	-9.93094E-005	0.00000E+000	-7.08821E-006	-5.99601E-002	7.13825E-002	3.57775E+000	9	...........
	64	0.866667	5.96140E-002	-9.90666E-005	0.00000E+000	-5.90576E-006	-5.99601E-002	5.96213E-002	3.57790E+000	9	...........
	65	0.88	4.79974E-002	-9.85603E-005	0.00000E+000	-4.73064E-006	-5.99601E-002	4.80004E-002	3.57790E+000	9	...........
	66	0.893333	3.65277E-002	-9.79414E-005	0.00000E+000	-3.57757E-006	-5.99601E-002	3.65280E-002	3.57790E+000	9	...........
	67	0.906667	2.51930E-002	-9.90666E-005	0.00000E+000	-2.49578E-006	-5.99601E-002	2.51840E-002	3.57790E+000	9	...........
	68	0.92	1.40146E-002	-9.90270E-005	0.00000E+000	-1.38783E-006	-5.99601E-002	1.39959E-002	3.57790E+000	9	...........
	69	0.931667	3.68671E-003	-9.93842E-005	0.00000E+000	-3.66401E-007	-5.99601E-002	3.67170E-003	3.57790E+000	9	...........
STARTTIMEOFFSET	QUANT	1617.07	Start Time Offset (s)
