EXPLAIN
TAG	PWR800_DISCHARGE
TITLE	LABEL	PWR Cyclic Charge Discharge (Cell) - Discharge Step	Test &Identifier
DATE	LABEL	12-7-2017	Date
TIME	LABEL	16:31:11	Time
NOTES	NOTES	2	&Notes...
	supercap test cell
	6M KOH
PSTAT	PSTAT	IFC5000-01520	Potentiostat
CAPACITY	QUANT	1.00000E-003	Capacity (A-hr)
CELLTYPE	SELECTOR	1	&Cell Type
WORKINGCONNECTION	SELECTOR	0	&Working Lead
MAXDISCHARGETIME	VARIABLEANDUNITS	1.00000E+002	s	1.00000E+002	second(s)	Max &Discharge Time
DISCHARGEMODE	MULTIPARAM	0	1.00000E-004	&Discharge Mode	Constant Current	Amp(s)
SAMPLETIME	QUANT	1.00000E-002	Sa&mple Period (s)
DISCHARGESTOPAT1	MULTIPARAM	3	0.00000E+000	Discharge Stop At &1	Voltage < Limit	V
DISCHARGESTOPAT2	MULTIPARAM	0	0.00000E+000	Discharge Stop At &2	None	N/A
AESBHCSELECTOR	TOGGLE	F	Save Both Half Cells
IRCOMP	TOGGLE	F	IR &Measure
EOC	QUANT	0	Open Circuit (V)
SEQUENCER	TOGGLE	TRUE	Run as Sequence
PSTATMODEL	IQUANT	53	Pstat Model
PSTATSECTION	LABEL	IFC5000-01520	Pstat Section
PSTATSERIALNO	LABEL	01520	Pstat Serial Number
CTRLMODE	IQUANT	0	Control Mode
ELECTROMETER	IQUANT	1	RE=0 or CS=1
IESTAB	IQUANT	0	I/E Stability
CASPEED	IQUANT	4	Control Amp Speed
CONVENTION	IQUANT	1	Current Convention
ICHRANGE	IQUANT	2	Ich Range
ICHRANGEMODE	TOGGLE	T	Ich Auto Range
ICHOFFSETENABLE	TOGGLE	F	Ich Offset Enable
ICHOFFSET	QUANT	0	Ich Offset (V)
ICHFILTER	IQUANT	1	Ich Filter
VCHRANGE	IQUANT	2	Vch Range
VCHRANGEMODE	TOGGLE	T	Vch Auto Range
VCHOFFSETENABLE	TOGGLE	F	Vch Offset Enable
VCHOFFSET	QUANT	0	Vch Offset (V)
VCHFILTER	IQUANT	1	Vch Filter
IERANGELOWERLIMIT	IQUANT	9	I/E Range Lower Limit
IERANGEMODE	TOGGLE	F	I/E AutoRange
IERANGE	IQUANT	9	I/E Range
ACHSELECT	IQUANT	1	Ach Select
ACHRANGE	IQUANT	2	Ach Range
ACHOFFSETENABLE	TOGGLE	F	Ach Offset Enable
ACHOFFSET	QUANT	0	Ach Offset (V)
ACHFILTER	IQUANT	1	Ach Filter
CABLEID	IQUANT	14	Cable ID
DCCALDATE	LABEL	5-7-2017	DC Calibration Date
ACCALDATE	LABEL	12/3/2015	AC Calibration Date
FRAMEWORKVERSION	QUANT	7.01	Framework Version
INSTRUMENTVERSION	LABEL	4.00	Instrument Version
CURVE	TABLE	71
	Pt	T	Vf	Im	Vu	Pwr	Sig	Ach	Temp	IERange	Over
	#	s	V	A	V	W	V	V	deg C	#	bits
	0	0.013333	8.46168E-001	-9.84248E-005	0.00000E+000	-8.32839E-005	-5.99601E-002	8.46484E-001	3.57810E+000	9	...........
	1	0.026667	8.33148E-001	-9.83623E-005	0.00000E+000	-8.19504E-005	-5.99601E-002	8.33473E-001	3.57810E+000	9	...........
	2	0.04	8.20764E-001	-9.79424E-005	0.00000E+000	-8.03876E-005	-5.99601E-002	8.21048E-001	3.57810E+000	9	...........
	3	0.053333	8.08714E-001	-9.87301E-005	0.00000E+000	-7.98444E-005	-5.99601E-002	8.09011E-001	3.57810E+000	9	...........
	4	0.066667	7.96973E-001	-9.99647E-005	0.00000E+000	-7.96692E-005	-5.99601E-002	7.97231E-001	3.57810E+000	9	...........
	5	0.08	7.85390E-001	-9.82018E-005	0.00000E+000	-7.71268E-005	-5.99601E-002	7.85651E-001	3.57810E+000	9	...........
	6	0.093333	7.73955E-001	-9.84186E-005	0.00000E+000	-7.61715E-005	-5.99601E-002	7.74257E-001	3.57810E+000	9	...........
	7	0.106667	7.62681E-001	-9.76840E-005	0.00000E+000	-7.45017E-005	-5.99601E-002	7.62944E-001	3.57810E+000	9	...........
	8	0.12	7.51518E-001	-9.84644E-005	0.00000E+000	-7.39978E-005	-5.99601E-002	7.51784E-001	3.57810E+000	9	...........
	9	0.133333	7.40435E-001	-9.80654E-005	0.00000E+000	-7.26110E-005	-5.99601E-002	7.40719E-001	3.57810E+000	9	...........
	10	0.146667	7.29481E-001	-9.93406E-005	0.00000E+000	-7.24671E-005	-5.99601E-002	7.29749E-001	3.57810E+000	9	...........
	11	0.16	7.18611E-001	-9.92000E-005	0.00000E+000	-7.12862E-005	-5.99601E-002	7.18871E-001	3.57810E+000	9	...........
	12	0.173333	7.07803E-001	-9.91802E-005	0.00000E+000	-7.02000E-005	-5.99601E-002	7.08066E-001	3.57810E+000	9	...........
	13	0.186667	6.97100E-001	-9.88593E-005	0.00000E+000	-6.89148E-005	-5.99601E-002	6.97347E-001	3.57810E+000	9	...........
	14	0.2	6.86381E-001	-9.87895E-005	0.00000E+000	-6.78072E-005	-5.99601E-002	6.86670E-001	3.57810E+000	9	...........
	15	0.213333	6.75767E-001	-9.81727E-005	0.00000E+000	-6.63419E-005	-5.99601E-002	6.76029E-001	3.57810E+000	9	...........
	16	0.226667	6.65118E-001	-9.91541E-005	0.00000E+000	-6.59492E-005	-5.99601E-002	6.65394E-001	3.57810E+000	9	...........
	17	0.24	6.54415E-001	-9.91010E-005	0.00000E+000	-6.48531E-005	-5.99601E-002	6.54683E-001	3.57810E+000	9	...........
	18	0.253333	6.43612E-001	-9.88978E-005	0.00000E+000	-6.36518E-005	-5.99601E-002	6.43913E-001	3.57810E+000	9	...........
	19	0.266667	6.32685E-001	-9.80862E-005	0.00000E+000	-6.20577E-005	-5.99601E-002	6.32952E-001	3.57810E+000	9	...........
	20	0.28	6.21605E-001	-9.82175E-005	0.00000E+000	-6.10525E-005	-5.99601E-002	6.21864E-001	3.57810E+000	9	...........
	21	0.293333	6.10302E-001	-9.97834E-005	0.00000E+000	-6.08980E-005	-5.99601E-002	6.10572E-001	3.57810E+000	9	...........
	22	0.306667	5.98824E-001	-9.89405E-005	0.00000E+000	-5.92480E-005	-5.99601E-002	5.99116E-001	3.57810E+000	9	...........
	23	0.32	5.87166E-001	-9.84852E-005	0.00000E+000	-5.78272E-005	-5.99601E-002	5.87426E-001	3.57810E+000	9	...........
	24	0.333333	5.75307E-001	-9.93052E-005	0.00000E+000	-5.71309E-005	-5.99601E-002	5.75578E-001	3.57804E+000	9	...........
	25	0.346667	5.63305E-001	-9.94927E-005	0.00000E+000	-5.60447E-005	-5.99601E-002	5.63538E-001	3.57760E+000	9	...........
	26	0.36	5.51110E-001	-9.86436E-005	0.00000E+000	-5.43635E-005	-5.99601E-002	5.51351E-001	3.57760E+000	9	...........
	27	0.373333	5.38776E-001	-9.86967E-005	0.00000E+000	-5.31754E-005	-5.99601E-002	5.39019E-001	3.57760E+000	9	...........
	28	0.386667	5.26305E-001	-9.87582E-005	0.00000E+000	-5.19769E-005	-5.99601E-002	5.26525E-001	3.57760E+000	9	...........
	29	0.4	5.13724E-001	-9.85227E-005	0.00000E+000	-5.06135E-005	-5.99601E-002	5.13940E-001	3.57760E+000	9	...........
	30	0.413333	5.00999E-001	-9.84717E-005	0.00000E+000	-4.93342E-005	-5.99601E-002	5.01239E-001	3.57760E+000	9	...........
	31	0.426667	4.88271E-001	-9.97167E-005	0.00000E+000	-4.86888E-005	-5.99601E-002	4.88491E-001	3.57760E+000	9	...........
	32	0.44	4.75661E-001	-9.93240E-005	0.00000E+000	-4.72446E-005	-5.99601E-002	4.75767E-001	3.57760E+000	9	...........
	33	0.453333	4.62713E-001	-9.80320E-005	0.00000E+000	-4.53607E-005	-5.99601E-002	4.62813E-001	3.57760E+000	9	...........
	34	0.466667	4.49710E-001	-9.81164E-005	0.00000E+000	-4.41240E-005	-5.99601E-002	4.49807E-001	3.57760E+000	9	...........
	35	0.48	4.36649E-001	-9.93187E-005	0.00000E+000	-4.33674E-005	-5.99601E-002	4.36749E-001	3.57760E+000	9	...........
	36	0.493333	4.23558E-001	-9.94021E-005	0.00000E+000	-4.21025E-005	-5.99601E-002	4.23650E-001	3.57760E+000	9	...........
	37	0.506667	4.10456E-001	-9.88572E-005	0.00000E+000	-4.05765E-005	-5.99601E-002	4.10543E-001	3.57760E+000	9	...........
	38	0.52	3.97338E-001	-9.90812E-005	0.00000E+000	-3.93687E-005	-5.99601E-002	3.97414E-001	3.57760E+000	9	...........
	39	0.533333	3.84215E-001	-9.82904E-005	0.00000E+000	-3.77646E-005	-5.99601E-002	3.84297E-001	3.57760E+000	9	...........
	40	0.546667	3.71098E-001	-9.89885E-005	0.00000E+000	-3.67344E-005	-5.99601E-002	3.71170E-001	3.57760E+000	9	...........
	41	0.56	3.57998E-001	-9.91010E-005	0.00000E+000	-3.54780E-005	-5.99601E-002	3.58069E-001	3.57760E+000	9	...........
	42	0.573333	3.44917E-001	-9.86259E-005	0.00000E+000	-3.40177E-005	-5.99601E-002	3.44995E-001	3.57760E+000	9	...........
	43	0.586667	3.31872E-001	-9.91771E-005	0.00000E+000	-3.29140E-005	-5.99601E-002	3.31940E-001	3.57760E+000	9	...........
	44	0.6	3.18867E-001	-9.89520E-005	0.00000E+000	-3.15526E-005	-5.99601E-002	3.18936E-001	3.57760E+000	9	...........
	45	0.613333	3.05903E-001	-9.86822E-005	0.00000E+000	-3.01872E-005	-5.99601E-002	3.05966E-001	3.57760E+000	9	...........
	46	0.626667	2.92992E-001	-9.82612E-005	0.00000E+000	-2.87897E-005	-5.99601E-002	2.93049E-001	3.57760E+000	9	...........
	47	0.64	2.80127E-001	-9.90843E-005	0.00000E+000	-2.77562E-005	-5.99601E-002	2.80191E-001	3.57760E+000	9	...........
	48	0.653333	2.67312E-001	-9.94563E-005	0.00000E+000	-2.65859E-005	-5.99601E-002	2.67374E-001	3.57760E+000	9	...........
	49	0.666667	2.54562E-001	-9.95792E-005	0.00000E+000	-2.53491E-005	-5.99601E-002	2.54619E-001	3.57760E+000	9	...........
	50	0.68	2.41873E-001	-9.87488E-005	0.00000E+000	-2.38847E-005	-5.99601E-002	2.41922E-001	3.57760E+000	9	...........
	51	0.693333	2.29226E-001	-9.85134E-005	0.00000E+000	-2.25818E-005	-5.99601E-002	2.29277E-001	3.57760E+000	9	...........
	52	0.706667	2.16636E-001	-9.81841E-005	0.00000E+000	-2.12702E-005	-5.99601E-002	2.16684E-001	3.57760E+000	9	...........
	53	0.72	2.04103E-001	-9.89905E-005	0.00000E+000	-2.02043E-005	-5.99601E-002	2.04144E-001	3.57760E+000	9	...........
	54	0.733333	1.91618E-001	-9.91864E-005	0.00000E+000	-1.90059E-005	-5.99601E-002	1.91659E-001	3.57760E+000	9	...........
	55	0.746667	1.79185E-001	-9.92771E-005	0.00000E+000	-1.77890E-005	-5.99601E-002	1.79224E-001	3.57760E+000	9	...........
	56	0.76	1.66807E-001	-9.80831E-005	0.00000E+000	-1.63609E-005	-5.99601E-002	1.66843E-001	3.57760E+000	9	...........
	57	0.773333	1.54481E-001	-9.96886E-005	0.00000E+000	-1.54000E-005	-5.99601E-002	1.54512E-001	3.57760E+000	9	...........
	58	0.786667	1.42211E-001	-9.76340E-005	0.00000E+000	-1.38846E-005	-5.99601E-002	1.42240E-001	3.57760E+000	9	...........
	59	0.8	1.29983E-001	-9.84644E-005	0.00000E+000	-1.27987E-005	-5.99601E-002	1.30015E-001	3.57760E+000	9	...........
	60	0.813333	1.17838E-001	-9.90489E-005	0.00000E+000	-1.16717E-005	-5.99601E-002	1.17867E-001	3.57760E+000	9	...........
	61	0.826667	1.05761E-001	-9.81477E-005	0.00000E+000	-1.03802E-005	-5.99601E-002	1.05782E-001	3.57760E+000	9	...........
	62	0.84	9.37488E-002	-9.97032E-005	0.00000E+000	-9.34705E-006	-5.99601E-002	9.37740E-002	3.57760E+000	9	...........
	63	0.853333	8.18527E-002	-9.89093E-005	0.00000E+000	-8.09600E-006	-5.99601E-002	8.18659E-002	3.57760E+000	9	...........
	64	0.866667	7.00402E-002	-9.90489E-005	0.00000E+000	-6.93740E-006	-5.99601E-002	7.00496E-002	3.57760E+000	9	...........
	65	0.88	5.83371E-002	-9.91500E-005	0.00000E+000	-5.78412E-006	-5.99601E-002	5.83462E-002	3.57760E+000	9	...........
	66	0.893333	4.67695E-002	-9.77642E-005	0.00000E+000	-4.57239E-006	-5.99601E-002	4.67729E-002	3.57760E+000	9	...........
	67	0.906667	3.53347E-002	-9.92677E-005	0.00000E+000	-3.50759E-006	-5.99601E-002	3.53313E-002	3.57760E+000	9	...........
	68	0.92	2.40221E-002	-9.95948E-005	0.00000E+000	-2.39248E-006	-5.99601E-002	2.40145E-002	3.57760E+000	9	...........
	69	0.933333	1.28648E-002	-9.86988E-005	0.00000E+000	-1.26974E-006	-5.99601E-002	1.28527E-002	3.57760E+000	9	...........
	70	0.943333	3.22919E-003	-9.76781E-005	0.00000E+000	-3.15421E-007	-5.99601E-002	3.21638E-003	3.57760E+000	9	...........
STARTTIMEOFFSET	QUANT	903.9969	Start Time Offset (s)
