EXPLAIN
TAG	PWR800_DISCHARGE
TITLE	LABEL	PWR Cyclic Charge Discharge (Cell) - Discharge Step	Test &Identifier
DATE	LABEL	12-7-2017	Date
TIME	LABEL	16:15:32	Time
NOTES	NOTES	2	&Notes...
	supercap test cell
	6M KOH
PSTAT	PSTAT	IFC5000-01520	Potentiostat
CAPACITY	QUANT	1.00000E-003	Capacity (A-hr)
CELLTYPE	SELECTOR	1	&Cell Type
WORKINGCONNECTION	SELECTOR	0	&Working Lead
MAXDISCHARGETIME	VARIABLEANDUNITS	1.00000E+002	s	1.00000E+002	second(s)	Max &Discharge Time
DISCHARGEMODE	MULTIPARAM	0	1.00000E-004	&Discharge Mode	Constant Current	Amp(s)
SAMPLETIME	QUANT	1.00000E-002	Sa&mple Period (s)
DISCHARGESTOPAT1	MULTIPARAM	3	0.00000E+000	Discharge Stop At &1	Voltage < Limit	V
DISCHARGESTOPAT2	MULTIPARAM	0	0.00000E+000	Discharge Stop At &2	None	N/A
AESBHCSELECTOR	TOGGLE	F	Save Both Half Cells
IRCOMP	TOGGLE	F	IR &Measure
EOC	QUANT	0	Open Circuit (V)
SEQUENCER	TOGGLE	TRUE	Run as Sequence
PSTATMODEL	IQUANT	53	Pstat Model
PSTATSECTION	LABEL	IFC5000-01520	Pstat Section
PSTATSERIALNO	LABEL	01520	Pstat Serial Number
CTRLMODE	IQUANT	0	Control Mode
ELECTROMETER	IQUANT	1	RE=0 or CS=1
IESTAB	IQUANT	0	I/E Stability
CASPEED	IQUANT	4	Control Amp Speed
CONVENTION	IQUANT	1	Current Convention
ICHRANGE	IQUANT	2	Ich Range
ICHRANGEMODE	TOGGLE	T	Ich Auto Range
ICHOFFSETENABLE	TOGGLE	F	Ich Offset Enable
ICHOFFSET	QUANT	0	Ich Offset (V)
ICHFILTER	IQUANT	1	Ich Filter
VCHRANGE	IQUANT	2	Vch Range
VCHRANGEMODE	TOGGLE	T	Vch Auto Range
VCHOFFSETENABLE	TOGGLE	F	Vch Offset Enable
VCHOFFSET	QUANT	0	Vch Offset (V)
VCHFILTER	IQUANT	1	Vch Filter
IERANGELOWERLIMIT	IQUANT	9	I/E Range Lower Limit
IERANGEMODE	TOGGLE	F	I/E AutoRange
IERANGE	IQUANT	9	I/E Range
ACHSELECT	IQUANT	1	Ach Select
ACHRANGE	IQUANT	2	Ach Range
ACHOFFSETENABLE	TOGGLE	F	Ach Offset Enable
ACHOFFSET	QUANT	0	Ach Offset (V)
ACHFILTER	IQUANT	1	Ach Filter
CABLEID	IQUANT	14	Cable ID
DCCALDATE	LABEL	5-7-2017	DC Calibration Date
ACCALDATE	LABEL	12/3/2015	AC Calibration Date
FRAMEWORKVERSION	QUANT	7.01	Framework Version
INSTRUMENTVERSION	LABEL	4.00	Instrument Version
CURVE	TABLE	72
	Pt	T	Vf	Im	Vu	Pwr	Sig	Ach	Temp	IERange	Over
	#	s	V	A	V	W	V	V	deg C	#	bits
	0	0.013333	8.41511E-001	-9.78163E-005	0.00000E+000	-8.23135E-005	-5.99601E-002	8.41848E-001	3.57730E+000	9	...........
	1	0.026667	8.28554E-001	-9.89405E-005	0.00000E+000	-8.19776E-005	-5.99601E-002	8.28893E-001	3.57730E+000	9	...........
	2	0.04	8.16198E-001	-9.90749E-005	0.00000E+000	-8.08648E-005	-5.99601E-002	8.16521E-001	3.57730E+000	9	...........
	3	0.053333	8.04209E-001	-9.84227E-005	0.00000E+000	-7.91524E-005	-5.99601E-002	8.04516E-001	3.57730E+000	9	...........
	4	0.066667	7.92498E-001	-9.83092E-005	0.00000E+000	-7.79098E-005	-5.99601E-002	7.92796E-001	3.57730E+000	9	...........
	5	0.08	7.80986E-001	-9.90739E-005	0.00000E+000	-7.73754E-005	-5.99601E-002	7.81271E-001	3.57730E+000	9	...........
	6	0.093333	7.69621E-001	-9.84842E-005	0.00000E+000	-7.57955E-005	-5.99601E-002	7.69917E-001	3.57730E+000	9	...........
	7	0.106667	7.58394E-001	-9.86144E-005	0.00000E+000	-7.47886E-005	-5.99601E-002	7.58677E-001	3.57730E+000	9	...........
	8	0.12	7.47268E-001	-9.88614E-005	0.00000E+000	-7.38759E-005	-5.99601E-002	7.47556E-001	3.57730E+000	9	...........
	9	0.133333	7.36157E-001	-9.88238E-005	0.00000E+000	-7.27499E-005	-5.99601E-002	7.36439E-001	3.57730E+000	9	...........
	10	0.146667	7.25102E-001	-9.91500E-005	0.00000E+000	-7.18938E-005	-5.99601E-002	7.25364E-001	3.57730E+000	9	...........
	11	0.16	7.13964E-001	-9.87613E-005	0.00000E+000	-7.05120E-005	-5.99601E-002	7.14218E-001	3.57730E+000	9	...........
	12	0.173333	7.02759E-001	-9.97834E-005	0.00000E+000	-7.01237E-005	-5.99601E-002	7.03024E-001	3.57730E+000	9	...........
	13	0.186667	6.91463E-001	-9.91677E-005	0.00000E+000	-6.85708E-005	-5.99601E-002	6.91752E-001	3.57730E+000	9	...........
	14	0.2	6.80057E-001	-9.93760E-005	0.00000E+000	-6.75813E-005	-5.99601E-002	6.80324E-001	3.57730E+000	9	...........
	15	0.213333	6.68518E-001	-9.85519E-005	0.00000E+000	-6.58838E-005	-5.99601E-002	6.68793E-001	3.57730E+000	9	...........
	16	0.226667	6.56859E-001	-9.83988E-005	0.00000E+000	-6.46341E-005	-5.99601E-002	6.57119E-001	3.57730E+000	9	...........
	17	0.24	6.45099E-001	-9.87478E-005	0.00000E+000	-6.37021E-005	-5.99601E-002	6.45391E-001	3.57730E+000	9	...........
	18	0.253333	6.33244E-001	-9.86676E-005	0.00000E+000	-6.24807E-005	-5.99601E-002	6.33516E-001	3.57730E+000	9	...........
	19	0.266667	6.21346E-001	-9.85905E-005	0.00000E+000	-6.12588E-005	-5.99601E-002	6.21602E-001	3.57730E+000	9	...........
	20	0.28	6.09290E-001	-9.88332E-005	0.00000E+000	-6.02181E-005	-5.99601E-002	6.09583E-001	3.57730E+000	9	...........
	21	0.293333	5.97262E-001	-9.86603E-005	0.00000E+000	-5.89260E-005	-5.99601E-002	5.97501E-001	3.57730E+000	9	...........
	22	0.306667	5.85106E-001	-9.81091E-005	0.00000E+000	-5.74043E-005	-5.99601E-002	5.85378E-001	3.57730E+000	9	...........
	23	0.32	5.72961E-001	-9.90520E-005	0.00000E+000	-5.67529E-005	-5.99601E-002	5.73213E-001	3.57730E+000	9	...........
	24	0.333333	5.60754E-001	-9.88155E-005	0.00000E+000	-5.54112E-005	-5.99601E-002	5.61010E-001	3.57730E+000	9	...........
	25	0.346667	5.48517E-001	-9.90864E-005	0.00000E+000	-5.43505E-005	-5.99601E-002	5.48762E-001	3.57730E+000	9	...........
	26	0.36	5.36293E-001	-9.93385E-005	0.00000E+000	-5.32746E-005	-5.99601E-002	5.36529E-001	3.57730E+000	9	...........
	27	0.373333	5.24031E-001	-9.85467E-005	0.00000E+000	-5.16416E-005	-5.99601E-002	5.24240E-001	3.57730E+000	9	...........
	28	0.386667	5.11748E-001	-9.87384E-005	0.00000E+000	-5.05292E-005	-5.99601E-002	5.11984E-001	3.57730E+000	9	...........
	29	0.4	4.99456E-001	-9.85550E-005	0.00000E+000	-4.92239E-005	-5.99601E-002	4.99711E-001	3.57730E+000	9	...........
	30	0.413333	4.87299E-001	-9.96355E-005	0.00000E+000	-4.85522E-005	-5.99601E-002	4.87500E-001	3.57730E+000	9	...........
	31	0.426667	4.75299E-001	-9.91072E-005	0.00000E+000	-4.71056E-005	-5.99601E-002	4.75404E-001	3.57730E+000	9	...........
	32	0.44	4.63070E-001	-9.85801E-005	0.00000E+000	-4.56495E-005	-5.99601E-002	4.63166E-001	3.57730E+000	9	...........
	33	0.453333	4.50855E-001	-9.86248E-005	0.00000E+000	-4.44655E-005	-5.99601E-002	4.50955E-001	3.57730E+000	9	...........
	34	0.466667	4.38666E-001	-9.90520E-005	0.00000E+000	-4.34508E-005	-5.99601E-002	4.38758E-001	3.57730E+000	9	...........
	35	0.48	4.26491E-001	-9.86436E-005	0.00000E+000	-4.20706E-005	-5.99601E-002	4.26589E-001	3.57730E+000	9	...........
	36	0.493333	4.14345E-001	-9.82394E-005	0.00000E+000	-4.07050E-005	-5.99601E-002	4.14434E-001	3.57730E+000	9	...........
	37	0.506667	4.02218E-001	-9.85144E-005	0.00000E+000	-3.96243E-005	-5.99601E-002	4.02300E-001	3.57730E+000	9	...........
	38	0.52	3.90122E-001	-9.86707E-005	0.00000E+000	-3.84936E-005	-5.99601E-002	3.90196E-001	3.57730E+000	9	...........
	39	0.533333	3.78041E-001	-9.88624E-005	0.00000E+000	-3.73740E-005	-5.99601E-002	3.78122E-001	3.57730E+000	9	...........
	40	0.546667	3.65979E-001	-9.85623E-005	0.00000E+000	-3.60718E-005	-5.99601E-002	3.66059E-001	3.57735E+000	9	...........
	41	0.56	3.53939E-001	-9.94073E-005	0.00000E+000	-3.51841E-005	-5.99601E-002	3.54017E-001	3.57740E+000	9	...........
	42	0.573333	3.41906E-001	-9.80810E-005	0.00000E+000	-3.35345E-005	-5.99601E-002	3.41982E-001	3.57740E+000	9	...........
	43	0.586667	3.29898E-001	-9.85707E-005	0.00000E+000	-3.25182E-005	-5.99601E-002	3.29962E-001	3.57740E+000	9	...........
	44	0.6	3.17884E-001	-9.82029E-005	0.00000E+000	-3.12171E-005	-5.99601E-002	3.17953E-001	3.57740E+000	9	...........
	45	0.613333	3.05870E-001	-9.86696E-005	0.00000E+000	-3.01801E-005	-5.99601E-002	3.05939E-001	3.57740E+000	9	...........
	46	0.626667	2.93862E-001	-9.87530E-005	0.00000E+000	-2.90198E-005	-5.99601E-002	2.93924E-001	3.57740E+000	9	...........
	47	0.64	2.81850E-001	-9.88874E-005	0.00000E+000	-2.78714E-005	-5.99601E-002	2.81906E-001	3.57740E+000	9	...........
	48	0.653333	2.69827E-001	-9.81206E-005	0.00000E+000	-2.64756E-005	-5.99601E-002	2.69889E-001	3.57740E+000	9	...........
	49	0.666667	2.57799E-001	-9.94646E-005	0.00000E+000	-2.56418E-005	-5.99601E-002	2.57859E-001	3.57740E+000	9	...........
	50	0.68	2.45768E-001	-9.84936E-005	0.00000E+000	-2.42066E-005	-5.99601E-002	2.45826E-001	3.57740E+000	9	...........
	51	0.693333	2.33740E-001	-9.78382E-005	0.00000E+000	-2.28687E-005	-5.99601E-002	2.33787E-001	3.57740E+000	9	...........
	52	0.706667	2.21696E-001	-9.93292E-005	0.00000E+000	-2.20209E-005	-5.99601E-002	2.21739E-001	3.57740E+000	9	...........
	53	0.72	2.09664E-001	-9.94521E-005	0.00000E+000	-2.08515E-005	-5.99601E-002	2.09706E-001	3.57740E+000	9	...........
	54	0.733333	1.97635E-001	-9.94250E-005	0.00000E+000	-1.96499E-005	-5.99601E-002	1.97676E-001	3.57740E+000	9	...........
	55	0.746667	1.85608E-001	-9.93250E-005	0.00000E+000	-1.84355E-005	-5.99601E-002	1.85645E-001	3.57740E+000	9	...........
	56	0.76	1.73583E-001	-9.82685E-005	0.00000E+000	-1.70578E-005	-5.99601E-002	1.73623E-001	3.57740E+000	9	...........
	57	0.773333	1.61589E-001	-9.76517E-005	0.00000E+000	-1.57795E-005	-5.99601E-002	1.61621E-001	3.57740E+000	9	...........
	58	0.786667	1.49611E-001	-9.82196E-005	0.00000E+000	-1.46947E-005	-5.99601E-002	1.49638E-001	3.57740E+000	9	...........
	59	0.8	1.37652E-001	-9.92385E-005	0.00000E+000	-1.36604E-005	-5.99601E-002	1.37676E-001	3.57740E+000	9	...........
	60	0.813333	1.25730E-001	-9.83748E-005	0.00000E+000	-1.23687E-005	-5.99601E-002	1.25751E-001	3.57740E+000	9	...........
	61	0.826667	1.13859E-001	-9.79831E-005	0.00000E+000	-1.11562E-005	-5.99601E-002	1.13875E-001	3.57740E+000	9	...........
	62	0.84	1.02033E-001	-9.91906E-005	0.00000E+000	-1.01207E-005	-5.99601E-002	1.02047E-001	3.57740E+000	9	...........
	63	0.853333	9.02662E-002	-9.93229E-005	0.00000E+000	-8.96550E-006	-5.99601E-002	9.02756E-002	3.57740E+000	9	...........
	64	0.866667	7.85687E-002	-9.91083E-005	0.00000E+000	-7.78680E-006	-5.99601E-002	7.85736E-002	3.57740E+000	9	...........
	65	0.88	6.69463E-002	-9.89728E-005	0.00000E+000	-6.62587E-006	-5.99601E-002	6.69554E-002	3.57740E+000	9	...........
	66	0.893333	5.54189E-002	-9.90166E-005	0.00000E+000	-5.48739E-006	-5.99601E-002	5.54226E-002	3.57740E+000	9	...........
	67	0.906667	4.40141E-002	-9.85884E-005	0.00000E+000	-4.33928E-006	-5.99601E-002	4.40128E-002	3.57740E+000	9	...........
	68	0.92	3.27121E-002	-9.83039E-005	0.00000E+000	-3.21573E-006	-5.99601E-002	3.27134E-002	3.57740E+000	9	...........
	69	0.933333	2.15299E-002	-9.89812E-005	0.00000E+000	-2.13105E-006	-5.99601E-002	2.15180E-002	3.57740E+000	9	...........
	70	0.946667	1.04819E-002	-9.95500E-005	0.00000E+000	-1.04347E-006	-5.99601E-002	1.04638E-002	3.57740E+000	9	...........
	71	0.955	1.61491E-003	-9.76084E-005	0.00000E+000	-1.57628E-007	-5.99601E-002	1.59325E-003	3.57740E+000	9	...........
STARTTIMEOFFSET	QUANT	233.635	Start Time Offset (s)
