EXPLAIN
TAG	PWR800_DISCHARGE
TITLE	LABEL	PWR Cyclic Charge Discharge (Cell) - Discharge Step	Test &Identifier
DATE	LABEL	12-7-2017	Date
TIME	LABEL	16:41:26	Time
NOTES	NOTES	2	&Notes...
	supercap test cell
	6M KOH
PSTAT	PSTAT	IFC5000-01520	Potentiostat
CAPACITY	QUANT	1.00000E-003	Capacity (A-hr)
CELLTYPE	SELECTOR	1	&Cell Type
WORKINGCONNECTION	SELECTOR	0	&Working Lead
MAXDISCHARGETIME	VARIABLEANDUNITS	1.00000E+002	s	1.00000E+002	second(s)	Max &Discharge Time
DISCHARGEMODE	MULTIPARAM	0	1.00000E-004	&Discharge Mode	Constant Current	Amp(s)
SAMPLETIME	QUANT	1.00000E-002	Sa&mple Period (s)
DISCHARGESTOPAT1	MULTIPARAM	3	0.00000E+000	Discharge Stop At &1	Voltage < Limit	V
DISCHARGESTOPAT2	MULTIPARAM	0	0.00000E+000	Discharge Stop At &2	None	N/A
AESBHCSELECTOR	TOGGLE	F	Save Both Half Cells
IRCOMP	TOGGLE	F	IR &Measure
EOC	QUANT	0	Open Circuit (V)
SEQUENCER	TOGGLE	TRUE	Run as Sequence
PSTATMODEL	IQUANT	53	Pstat Model
PSTATSECTION	LABEL	IFC5000-01520	Pstat Section
PSTATSERIALNO	LABEL	01520	Pstat Serial Number
CTRLMODE	IQUANT	0	Control Mode
ELECTROMETER	IQUANT	1	RE=0 or CS=1
IESTAB	IQUANT	0	I/E Stability
CASPEED	IQUANT	4	Control Amp Speed
CONVENTION	IQUANT	1	Current Convention
ICHRANGE	IQUANT	2	Ich Range
ICHRANGEMODE	TOGGLE	T	Ich Auto Range
ICHOFFSETENABLE	TOGGLE	F	Ich Offset Enable
ICHOFFSET	QUANT	0	Ich Offset (V)
ICHFILTER	IQUANT	1	Ich Filter
VCHRANGE	IQUANT	2	Vch Range
VCHRANGEMODE	TOGGLE	T	Vch Auto Range
VCHOFFSETENABLE	TOGGLE	F	Vch Offset Enable
VCHOFFSET	QUANT	0	Vch Offset (V)
VCHFILTER	IQUANT	1	Vch Filter
IERANGELOWERLIMIT	IQUANT	9	I/E Range Lower Limit
IERANGEMODE	TOGGLE	F	I/E AutoRange
IERANGE	IQUANT	9	I/E Range
ACHSELECT	IQUANT	1	Ach Select
ACHRANGE	IQUANT	2	Ach Range
ACHOFFSETENABLE	TOGGLE	F	Ach Offset Enable
ACHOFFSET	QUANT	0	Ach Offset (V)
ACHFILTER	IQUANT	1	Ach Filter
CABLEID	IQUANT	14	Cable ID
DCCALDATE	LABEL	5-7-2017	DC Calibration Date
ACCALDATE	LABEL	12/3/2015	AC Calibration Date
FRAMEWORKVERSION	QUANT	7.01	Framework Version
INSTRUMENTVERSION	LABEL	4.00	Instrument Version
CURVE	TABLE	71
	Pt	T	Vf	Im	Vu	Pwr	Sig	Ach	Temp	IERange	Over
	#	s	V	A	V	W	V	V	deg C	#	bits
	0	0.013333	8.46393E-001	-9.91010E-005	0.00000E+000	-8.38784E-005	-5.99601E-002	8.46669E-001	3.57680E+000	9	...........
	1	0.026667	8.33277E-001	-9.87363E-005	0.00000E+000	-8.22747E-005	-5.99601E-002	8.33560E-001	3.57680E+000	9	...........
	2	0.04	8.20729E-001	-9.89166E-005	0.00000E+000	-8.11837E-005	-5.99601E-002	8.21028E-001	3.57680E+000	9	...........
	3	0.053333	8.08582E-001	-9.91687E-005	0.00000E+000	-8.01860E-005	-5.99601E-002	8.08847E-001	3.57680E+000	9	...........
	4	0.066667	7.96707E-001	-9.91687E-005	0.00000E+000	-7.90084E-005	-5.99601E-002	7.96946E-001	3.57680E+000	9	...........
	5	0.08	7.84977E-001	-9.87363E-005	0.00000E+000	-7.75057E-005	-5.99601E-002	7.85259E-001	3.57680E+000	9	...........
	6	0.093333	7.73434E-001	-9.87072E-005	0.00000E+000	-7.63434E-005	-5.99601E-002	7.73717E-001	3.57680E+000	9	...........
	7	0.106667	7.62032E-001	-9.97032E-005	0.00000E+000	-7.59770E-005	-5.99601E-002	7.62297E-001	3.57680E+000	9	...........
	8	0.12	7.50743E-001	-9.81425E-005	0.00000E+000	-7.36797E-005	-5.99601E-002	7.50991E-001	3.57670E+000	9	...........
	9	0.133333	7.39529E-001	-9.73913E-005	0.00000E+000	-7.20236E-005	-5.99601E-002	7.39800E-001	3.57660E+000	9	...........
	10	0.146667	7.28442E-001	-9.82237E-005	0.00000E+000	-7.15503E-005	-5.99601E-002	7.28679E-001	3.57660E+000	9	...........
	11	0.16	7.17414E-001	-9.89968E-005	0.00000E+000	-7.10217E-005	-5.99601E-002	7.17661E-001	3.57660E+000	9	...........
	12	0.173333	7.06456E-001	-9.95344E-005	0.00000E+000	-7.03167E-005	-5.99601E-002	7.06723E-001	3.57660E+000	9	...........
	13	0.186667	6.95605E-001	-1.00004E-004	0.00000E+000	-6.95635E-005	-5.99601E-002	6.95852E-001	3.57660E+000	9	...........
	14	0.2	6.84808E-001	-9.90510E-005	0.00000E+000	-6.78309E-005	-5.99601E-002	6.85077E-001	3.57660E+000	9	...........
	15	0.213333	6.74101E-001	-9.83623E-005	0.00000E+000	-6.63061E-005	-5.99601E-002	6.74337E-001	3.57660E+000	9	...........
	16	0.226667	6.63378E-001	-9.96532E-005	0.00000E+000	-6.61077E-005	-5.99601E-002	6.63634E-001	3.57660E+000	9	...........
	17	0.24	6.52705E-001	-9.87551E-005	0.00000E+000	-6.44580E-005	-5.99601E-002	6.52937E-001	3.57660E+000	9	...........
	18	0.253333	6.41981E-001	-9.82873E-005	0.00000E+000	-6.30986E-005	-5.99601E-002	6.42219E-001	3.57660E+000	9	...........
	19	0.266667	6.31146E-001	-9.91802E-005	0.00000E+000	-6.25972E-005	-5.99601E-002	6.31406E-001	3.57660E+000	9	...........
	20	0.28	6.20212E-001	-1.00911E-004	0.00000E+000	-6.25860E-005	-5.99601E-002	6.20448E-001	3.57660E+000	9	...........
	21	0.293333	6.09038E-001	-9.88280E-005	0.00000E+000	-6.01900E-005	-5.99601E-002	6.09313E-001	3.57660E+000	9	...........
	22	0.306667	5.97725E-001	-9.85530E-005	0.00000E+000	-5.89076E-005	-5.99601E-002	5.98001E-001	3.57660E+000	9	...........
	23	0.32	5.86184E-001	-9.79549E-005	0.00000E+000	-5.74196E-005	-5.99601E-002	5.86455E-001	3.57660E+000	9	...........
	24	0.333333	5.74457E-001	-9.74892E-005	0.00000E+000	-5.60034E-005	-5.99601E-002	5.74707E-001	3.57660E+000	9	...........
	25	0.346667	5.62499E-001	-9.76642E-005	0.00000E+000	-5.49361E-005	-5.99601E-002	5.62766E-001	3.57660E+000	9	...........
	26	0.36	5.50364E-001	-9.97209E-005	0.00000E+000	-5.48828E-005	-5.99601E-002	5.50611E-001	3.57660E+000	9	...........
	27	0.373333	5.38055E-001	-9.88822E-005	0.00000E+000	-5.32041E-005	-5.99601E-002	5.38310E-001	3.57660E+000	9	...........
	28	0.386667	5.25554E-001	-9.85300E-005	0.00000E+000	-5.17829E-005	-5.99601E-002	5.25822E-001	3.57660E+000	9	...........
	29	0.4	5.12949E-001	-9.72902E-005	0.00000E+000	-4.99049E-005	-5.99601E-002	5.13198E-001	3.57660E+000	9	...........
	30	0.413333	5.00179E-001	-9.90364E-005	0.00000E+000	-4.95359E-005	-5.99601E-002	5.00438E-001	3.57660E+000	9	...........
	31	0.426667	4.87413E-001	-9.95907E-005	0.00000E+000	-4.85418E-005	-5.99601E-002	4.87631E-001	3.57660E+000	9	...........
	32	0.44	4.74686E-001	-9.92385E-005	0.00000E+000	-4.71072E-005	-5.99601E-002	4.74794E-001	3.57660E+000	9	...........
	33	0.453333	4.61633E-001	-9.71422E-005	0.00000E+000	-4.48440E-005	-5.99601E-002	4.61730E-001	3.57660E+000	9	...........
	34	0.466667	4.48495E-001	-9.86780E-005	0.00000E+000	-4.42566E-005	-5.99601E-002	4.48591E-001	3.57660E+000	9	...........
	35	0.48	4.35299E-001	-9.84581E-005	0.00000E+000	-4.28587E-005	-5.99601E-002	4.35393E-001	3.57660E+000	9	...........
	36	0.493333	4.22055E-001	-9.89926E-005	0.00000E+000	-4.17803E-005	-5.99601E-002	4.22139E-001	3.57660E+000	9	...........
	37	0.506667	4.08768E-001	-9.89958E-005	0.00000E+000	-4.04663E-005	-5.99601E-002	4.08857E-001	3.57660E+000	9	...........
	38	0.52	3.95451E-001	-9.83873E-005	0.00000E+000	-3.89073E-005	-5.99601E-002	3.95532E-001	3.57660E+000	9	...........
	39	0.533333	3.82118E-001	-9.85832E-005	0.00000E+000	-3.76704E-005	-5.99601E-002	3.82202E-001	3.57660E+000	9	...........
	40	0.546667	3.68794E-001	-9.80977E-005	0.00000E+000	-3.61779E-005	-5.99601E-002	3.68871E-001	3.57660E+000	9	...........
	41	0.56	3.55476E-001	-9.87728E-005	0.00000E+000	-3.51114E-005	-5.99601E-002	3.55548E-001	3.57660E+000	9	...........
	42	0.573333	3.42181E-001	-9.87436E-005	0.00000E+000	-3.37882E-005	-5.99601E-002	3.42251E-001	3.57660E+000	9	...........
	43	0.586667	3.28908E-001	-9.89770E-005	0.00000E+000	-3.25543E-005	-5.99601E-002	3.28978E-001	3.57660E+000	9	...........
	44	0.6	3.15679E-001	-9.86842E-005	0.00000E+000	-3.11525E-005	-5.99601E-002	3.15745E-001	3.57660E+000	9	...........
	45	0.613333	3.02499E-001	-9.81039E-005	0.00000E+000	-2.96763E-005	-5.99601E-002	3.02563E-001	3.57660E+000	9	...........
	46	0.626667	2.89371E-001	-9.78528E-005	0.00000E+000	-2.83158E-005	-5.99601E-002	2.89434E-001	3.57660E+000	9	...........
	47	0.64	2.76304E-001	-9.79164E-005	0.00000E+000	-2.70546E-005	-5.99601E-002	2.76357E-001	3.57660E+000	9	...........
	48	0.653333	2.63295E-001	-9.97449E-005	0.00000E+000	-2.62623E-005	-5.99601E-002	2.63350E-001	3.57660E+000	9	...........
	49	0.666667	2.50354E-001	-9.84581E-005	0.00000E+000	-2.46494E-005	-5.99601E-002	2.50399E-001	3.57660E+000	9	...........
	50	0.68	2.37473E-001	-9.86915E-005	0.00000E+000	-2.34366E-005	-5.99601E-002	2.37517E-001	3.57660E+000	9	...........
	51	0.693333	2.24662E-001	-9.72402E-005	0.00000E+000	-2.18461E-005	-5.99601E-002	2.24700E-001	3.57660E+000	9	...........
	52	0.706667	2.11914E-001	-9.87197E-005	0.00000E+000	-2.09201E-005	-5.99601E-002	2.11954E-001	3.57660E+000	9	...........
	53	0.72	1.99238E-001	-9.87915E-005	0.00000E+000	-1.96831E-005	-5.99601E-002	1.99280E-001	3.57660E+000	9	...........
	54	0.733333	1.86633E-001	-9.83810E-005	0.00000E+000	-1.83611E-005	-5.99601E-002	1.86666E-001	3.57660E+000	9	...........
	55	0.746667	1.74095E-001	-9.85061E-005	0.00000E+000	-1.71494E-005	-5.99601E-002	1.74130E-001	3.57660E+000	9	...........
	56	0.76	1.61629E-001	-9.89082E-005	0.00000E+000	-1.59865E-005	-5.99601E-002	1.61653E-001	3.57660E+000	9	...........
	57	0.773333	1.49234E-001	-9.88124E-005	0.00000E+000	-1.47462E-005	-5.99601E-002	1.49257E-001	3.57660E+000	9	...........
	58	0.786667	1.36900E-001	-9.72996E-005	0.00000E+000	-1.33203E-005	-5.99601E-002	1.36924E-001	3.57660E+000	9	...........
	59	0.8	1.24638E-001	-9.83362E-005	0.00000E+000	-1.22565E-005	-5.99601E-002	1.24661E-001	3.57660E+000	9	...........
	60	0.813333	1.12454E-001	-9.86248E-005	0.00000E+000	-1.10907E-005	-5.99601E-002	1.12475E-001	3.57660E+000	9	...........
	61	0.826667	1.00356E-001	-9.94615E-005	0.00000E+000	-9.98159E-006	-5.99601E-002	1.00370E-001	3.57660E+000	9	...........
	62	0.84	8.83472E-002	-9.87322E-005	0.00000E+000	-8.72271E-006	-5.99601E-002	8.83604E-002	3.57660E+000	9	...........
	63	0.853333	7.64495E-002	-9.86624E-005	0.00000E+000	-7.54268E-006	-5.99601E-002	7.64577E-002	3.57660E+000	9	...........
	64	0.866667	6.46589E-002	-9.81831E-005	0.00000E+000	-6.34841E-006	-5.99601E-002	6.46619E-002	3.57660E+000	9	...........
	65	0.88	5.29923E-002	-9.94511E-005	0.00000E+000	-5.27014E-006	-5.99601E-002	5.29957E-002	3.57660E+000	9	...........
	66	0.893333	4.14925E-002	-9.81987E-005	0.00000E+000	-4.07451E-006	-5.99601E-002	4.15000E-002	3.57660E+000	9	...........
	67	0.906667	3.01129E-002	-9.78111E-005	0.00000E+000	-2.94537E-006	-5.99601E-002	3.01083E-002	3.57660E+000	9	...........
	68	0.92	1.88783E-002	-9.90572E-005	0.00000E+000	-1.87003E-006	-5.99601E-002	1.88738E-002	3.57660E+000	9	...........
	69	0.933333	7.81299E-003	-9.89207E-005	0.00000E+000	-7.72867E-007	-5.99601E-002	7.79748E-003	3.57660E+000	9	...........
	70	0.938333	3.00530E-004	-9.94299E-005	0.00000E+000	-2.98817E-008	-5.99601E-002	2.75775E-004	3.57660E+000	9	...........
STARTTIMEOFFSET	QUANT	1339.432	Start Time Offset (s)
