EXPLAIN
TAG	PWR800_DISCHARGE
TITLE	LABEL	PWR Cyclic Charge Discharge (Cell) - Discharge Step	Test &Identifier
DATE	LABEL	12-7-2017	Date
TIME	LABEL	16:43:02	Time
NOTES	NOTES	2	&Notes...
	supercap test cell
	6M KOH
PSTAT	PSTAT	IFC5000-01520	Potentiostat
CAPACITY	QUANT	1.00000E-003	Capacity (A-hr)
CELLTYPE	SELECTOR	1	&Cell Type
WORKINGCONNECTION	SELECTOR	0	&Working Lead
MAXDISCHARGETIME	VARIABLEANDUNITS	1.00000E+002	s	1.00000E+002	second(s)	Max &Discharge Time
DISCHARGEMODE	MULTIPARAM	0	1.00000E-004	&Discharge Mode	Constant Current	Amp(s)
SAMPLETIME	QUANT	1.00000E-002	Sa&mple Period (s)
DISCHARGESTOPAT1	MULTIPARAM	3	0.00000E+000	Discharge Stop At &1	Voltage < Limit	V
DISCHARGESTOPAT2	MULTIPARAM	0	0.00000E+000	Discharge Stop At &2	None	N/A
AESBHCSELECTOR	TOGGLE	F	Save Both Half Cells
IRCOMP	TOGGLE	F	IR &Measure
EOC	QUANT	0	Open Circuit (V)
SEQUENCER	TOGGLE	TRUE	Run as Sequence
PSTATMODEL	IQUANT	53	Pstat Model
PSTATSECTION	LABEL	IFC5000-01520	Pstat Section
PSTATSERIALNO	LABEL	01520	Pstat Serial Number
CTRLMODE	IQUANT	0	Control Mode
ELECTROMETER	IQUANT	1	RE=0 or CS=1
IESTAB	IQUANT	0	I/E Stability
CASPEED	IQUANT	4	Control Amp Speed
CONVENTION	IQUANT	1	Current Convention
ICHRANGE	IQUANT	2	Ich Range
ICHRANGEMODE	TOGGLE	T	Ich Auto Range
ICHOFFSETENABLE	TOGGLE	F	Ich Offset Enable
ICHOFFSET	QUANT	0	Ich Offset (V)
ICHFILTER	IQUANT	1	Ich Filter
VCHRANGE	IQUANT	2	Vch Range
VCHRANGEMODE	TOGGLE	T	Vch Auto Range
VCHOFFSETENABLE	TOGGLE	F	Vch Offset Enable
VCHOFFSET	QUANT	0	Vch Offset (V)
VCHFILTER	IQUANT	1	Vch Filter
IERANGELOWERLIMIT	IQUANT	9	I/E Range Lower Limit
IERANGEMODE	TOGGLE	F	I/E AutoRange
IERANGE	IQUANT	9	I/E Range
ACHSELECT	IQUANT	1	Ach Select
ACHRANGE	IQUANT	2	Ach Range
ACHOFFSETENABLE	TOGGLE	F	Ach Offset Enable
ACHOFFSET	QUANT	0	Ach Offset (V)
ACHFILTER	IQUANT	1	Ach Filter
CABLEID	IQUANT	14	Cable ID
DCCALDATE	LABEL	5-7-2017	DC Calibration Date
ACCALDATE	LABEL	12/3/2015	AC Calibration Date
FRAMEWORKVERSION	QUANT	7.01	Framework Version
INSTRUMENTVERSION	LABEL	4.00	Instrument Version
CURVE	TABLE	71
	Pt	T	Vf	Im	Vu	Pwr	Sig	Ach	Temp	IERange	Over
	#	s	V	A	V	W	V	V	deg C	#	bits
	0	0.013333	8.44777E-001	-9.88895E-005	0.00000E+000	-8.35396E-005	-5.99601E-002	8.45104E-001	3.57680E+000	9	...........
	1	0.026667	8.31664E-001	-1.00253E-004	0.00000E+000	-8.33771E-005	-5.99601E-002	8.31971E-001	3.57680E+000	9	...........
	2	0.04	8.19114E-001	-9.88061E-005	0.00000E+000	-8.09335E-005	-5.99601E-002	8.19416E-001	3.57680E+000	9	...........
	3	0.053333	8.06951E-001	-9.80560E-005	0.00000E+000	-7.91264E-005	-5.99601E-002	8.07235E-001	3.57680E+000	9	...........
	4	0.066667	7.95050E-001	-9.97313E-005	0.00000E+000	-7.92914E-005	-5.99601E-002	7.95352E-001	3.57680E+000	9	...........
	5	0.08	7.83358E-001	-9.91281E-005	0.00000E+000	-7.76528E-005	-5.99601E-002	7.83635E-001	3.57680E+000	9	...........
	6	0.093333	7.71794E-001	-9.94646E-005	0.00000E+000	-7.67662E-005	-5.99601E-002	7.72081E-001	3.57680E+000	9	...........
	7	0.106667	7.60379E-001	-9.96449E-005	0.00000E+000	-7.57678E-005	-5.99601E-002	7.60622E-001	3.57665E+000	9	...........
	8	0.12	7.49057E-001	-9.84613E-005	0.00000E+000	-7.37531E-005	-5.99601E-002	7.49319E-001	3.57650E+000	9	...........
	9	0.133333	7.37837E-001	-9.89114E-005	0.00000E+000	-7.29804E-005	-5.99601E-002	7.38088E-001	3.57650E+000	9	...........
	10	0.146667	7.26745E-001	-9.88989E-005	0.00000E+000	-7.18743E-005	-5.99601E-002	7.26953E-001	3.57650E+000	9	...........
	11	0.16	7.15675E-001	-9.85530E-005	0.00000E+000	-7.05319E-005	-5.99601E-002	7.15924E-001	3.57650E+000	9	...........
	12	0.173333	7.04712E-001	-9.82258E-005	0.00000E+000	-6.92209E-005	-5.99601E-002	7.04979E-001	3.57650E+000	9	...........
	13	0.186667	6.93852E-001	-9.71693E-005	0.00000E+000	-6.74211E-005	-5.99601E-002	6.94095E-001	3.57650E+000	9	...........
	14	0.2	6.83058E-001	-9.80914E-005	0.00000E+000	-6.70021E-005	-5.99601E-002	6.83304E-001	3.57650E+000	9	...........
	15	0.213333	6.72317E-001	-9.86530E-005	0.00000E+000	-6.63261E-005	-5.99601E-002	6.72553E-001	3.57650E+000	9	...........
	16	0.226667	6.61593E-001	-9.81070E-005	0.00000E+000	-6.49070E-005	-5.99601E-002	6.61859E-001	3.57650E+000	9	...........
	17	0.24	6.50907E-001	-9.88603E-005	0.00000E+000	-6.43489E-005	-5.99601E-002	6.51156E-001	3.57650E+000	9	...........
	18	0.253333	6.40177E-001	-9.91364E-005	0.00000E+000	-6.34648E-005	-5.99601E-002	6.40399E-001	3.57650E+000	9	...........
	19	0.266667	6.29350E-001	-9.94188E-005	0.00000E+000	-6.25692E-005	-5.99601E-002	6.29608E-001	3.57650E+000	9	...........
	20	0.28	6.18404E-001	-9.82425E-005	0.00000E+000	-6.07535E-005	-5.99601E-002	6.18631E-001	3.57650E+000	9	...........
	21	0.293333	6.07202E-001	-9.97688E-005	0.00000E+000	-6.05798E-005	-5.99601E-002	6.07475E-001	3.57650E+000	9	...........
	22	0.306667	5.95899E-001	-9.92250E-005	0.00000E+000	-5.91281E-005	-5.99601E-002	5.96128E-001	3.57650E+000	9	...........
	23	0.32	5.84352E-001	-9.87759E-005	0.00000E+000	-5.77199E-005	-5.99601E-002	5.84577E-001	3.57650E+000	9	...........
	24	0.333333	5.72599E-001	-9.86665E-005	0.00000E+000	-5.64964E-005	-5.99601E-002	5.72825E-001	3.57650E+000	9	...........
	25	0.346667	5.60632E-001	-9.98449E-005	0.00000E+000	-5.59763E-005	-5.99601E-002	5.60879E-001	3.57650E+000	9	...........
	26	0.36	5.48475E-001	-9.85415E-005	0.00000E+000	-5.40476E-005	-5.99601E-002	5.48715E-001	3.57650E+000	9	...........
	27	0.373333	5.36141E-001	-9.89207E-005	0.00000E+000	-5.30354E-005	-5.99601E-002	5.36400E-001	3.57650E+000	9	...........
	28	0.386667	5.23649E-001	-9.84967E-005	0.00000E+000	-5.15777E-005	-5.99601E-002	5.23906E-001	3.57650E+000	9	...........
	29	0.4	5.10992E-001	-9.85259E-005	0.00000E+000	-5.03459E-005	-5.99601E-002	5.11244E-001	3.57650E+000	9	...........
	30	0.413333	4.98196E-001	-9.97011E-005	0.00000E+000	-4.96707E-005	-5.99601E-002	4.98444E-001	3.57650E+000	9	...........
	31	0.426667	4.85446E-001	-9.83873E-005	0.00000E+000	-4.77617E-005	-5.99601E-002	4.85618E-001	3.57650E+000	9	...........
	32	0.44	4.72658E-001	-9.75403E-005	0.00000E+000	-4.61031E-005	-5.99601E-002	4.72757E-001	3.57650E+000	9	...........
	33	0.453333	4.59581E-001	-9.90104E-005	0.00000E+000	-4.55032E-005	-5.99601E-002	4.59674E-001	3.57650E+000	9	...........
	34	0.466667	4.46419E-001	-9.87332E-005	0.00000E+000	-4.40764E-005	-5.99601E-002	4.46518E-001	3.57650E+000	9	...........
	35	0.48	4.33201E-001	-9.91625E-005	0.00000E+000	-4.29573E-005	-5.99601E-002	4.33296E-001	3.57650E+000	9	...........
	36	0.493333	4.19934E-001	-9.95750E-005	0.00000E+000	-4.18149E-005	-5.99601E-002	4.20028E-001	3.57650E+000	9	...........
	37	0.506667	4.06638E-001	-9.97136E-005	0.00000E+000	-4.05473E-005	-5.99601E-002	4.06718E-001	3.57650E+000	9	...........
	38	0.52	3.93308E-001	-9.79872E-005	0.00000E+000	-3.85391E-005	-5.99601E-002	3.93393E-001	3.57650E+000	9	...........
	39	0.533333	3.79973E-001	-9.70631E-005	0.00000E+000	-3.68813E-005	-5.99601E-002	3.80054E-001	3.57650E+000	9	...........
	40	0.546667	3.66634E-001	-9.85978E-005	0.00000E+000	-3.61493E-005	-5.99601E-002	3.66710E-001	3.57650E+000	9	...........
	41	0.56	3.53301E-001	-9.92521E-005	0.00000E+000	-3.50658E-005	-5.99601E-002	3.53374E-001	3.57650E+000	9	...........
	42	0.573333	3.39995E-001	-9.93031E-005	0.00000E+000	-3.37626E-005	-5.99601E-002	3.40065E-001	3.57650E+000	9	...........
	43	0.586667	3.26721E-001	-9.91562E-005	0.00000E+000	-3.23964E-005	-5.99601E-002	3.26790E-001	3.57650E+000	9	...........
	44	0.6	3.13476E-001	-9.92125E-005	0.00000E+000	-3.11007E-005	-5.99601E-002	3.13550E-001	3.57650E+000	9	...........
	45	0.613333	3.00282E-001	-9.79164E-005	0.00000E+000	-2.94026E-005	-5.99601E-002	3.00348E-001	3.57650E+000	9	...........
	46	0.626667	2.87143E-001	-9.79956E-005	0.00000E+000	-2.81388E-005	-5.99601E-002	2.87206E-001	3.57650E+000	9	...........
	47	0.64	2.74060E-001	-9.77799E-005	0.00000E+000	-2.67975E-005	-5.99601E-002	2.74122E-001	3.57650E+000	9	...........
	48	0.653333	2.61028E-001	-9.80987E-005	0.00000E+000	-2.56065E-005	-5.99601E-002	2.61090E-001	3.57650E+000	9	...........
	49	0.666667	2.48069E-001	-9.89770E-005	0.00000E+000	-2.45532E-005	-5.99601E-002	2.48121E-001	3.57650E+000	9	...........
	50	0.68	2.35185E-001	-9.80987E-005	0.00000E+000	-2.30714E-005	-5.99601E-002	2.35233E-001	3.57650E+000	9	...........
	51	0.693333	2.22364E-001	-9.83665E-005	0.00000E+000	-2.18732E-005	-5.99601E-002	2.22410E-001	3.57650E+000	9	...........
	52	0.706667	2.09614E-001	-9.91989E-005	0.00000E+000	-2.07935E-005	-5.99601E-002	2.09661E-001	3.57650E+000	9	...........
	53	0.72	1.96932E-001	-9.86186E-005	0.00000E+000	-1.94212E-005	-5.99601E-002	1.96974E-001	3.57650E+000	9	...........
	54	0.733333	1.84319E-001	-9.89166E-005	0.00000E+000	-1.82322E-005	-5.99601E-002	1.84358E-001	3.57650E+000	9	...........
	55	0.746667	1.71781E-001	-9.87384E-005	0.00000E+000	-1.69614E-005	-5.99601E-002	1.71811E-001	3.57650E+000	9	...........
	56	0.76	1.59304E-001	-9.86915E-005	0.00000E+000	-1.57219E-005	-5.99601E-002	1.59333E-001	3.57650E+000	9	...........
	57	0.773333	1.46895E-001	-9.81873E-005	0.00000E+000	-1.44232E-005	-5.99601E-002	1.46924E-001	3.57650E+000	9	...........
	58	0.786667	1.34556E-001	-9.87051E-005	0.00000E+000	-1.32813E-005	-5.99601E-002	1.34584E-001	3.57650E+000	9	...........
	59	0.8	1.22291E-001	-9.80810E-005	0.00000E+000	-1.19945E-005	-5.99601E-002	1.22312E-001	3.57650E+000	9	...........
	60	0.813333	1.10103E-001	-9.97991E-005	0.00000E+000	-1.09882E-005	-5.99601E-002	1.10130E-001	3.57650E+000	9	...........
	61	0.826667	9.80074E-002	-9.94063E-005	0.00000E+000	-9.74255E-006	-5.99601E-002	9.80242E-002	3.57650E+000	9	...........
	62	0.84	8.60113E-002	-9.80028E-005	0.00000E+000	-8.42935E-006	-5.99601E-002	8.60277E-002	3.57650E+000	9	...........
	63	0.853333	7.41211E-002	-9.86613E-005	0.00000E+000	-7.31289E-006	-5.99601E-002	7.41295E-002	3.57650E+000	9	...........
	64	0.866667	6.23467E-002	-9.89103E-005	0.00000E+000	-6.16673E-006	-5.99601E-002	6.23517E-002	3.57650E+000	9	...........
	65	0.88	5.07067E-002	-9.98001E-005	0.00000E+000	-5.06053E-006	-5.99601E-002	5.07057E-002	3.57650E+000	9	...........
	66	0.893333	3.92252E-002	-9.96740E-005	0.00000E+000	-3.90973E-006	-5.99601E-002	3.92245E-002	3.57650E+000	9	...........
	67	0.906667	2.78614E-002	-9.96376E-005	0.00000E+000	-2.77604E-006	-5.99601E-002	2.78556E-002	3.57650E+000	9	...........
	68	0.92	1.66538E-002	-9.80747E-005	0.00000E+000	-1.63331E-006	-5.99601E-002	1.66453E-002	3.57650E+000	9	...........
	69	0.933333	5.61966E-003	-9.78122E-005	0.00000E+000	-5.49671E-007	-5.99601E-002	5.60276E-003	3.57650E+000	9	...........
	70	0.935	-5.21509E-004	-9.67932E-005	0.00000E+000	5.04785E-008	-5.99601E-002	-5.52700E-004	3.57650E+000	9	...........
STARTTIMEOFFSET	QUANT	1407.03	Start Time Offset (s)
