EXPLAIN
TAG	PWR800_DISCHARGE
TITLE	LABEL	PWR Cyclic Charge Discharge (Cell) - Discharge Step	Test &Identifier
DATE	LABEL	12-7-2017	Date
TIME	LABEL	16:22:28	Time
NOTES	NOTES	2	&Notes...
	supercap test cell
	6M KOH
PSTAT	PSTAT	IFC5000-01520	Potentiostat
CAPACITY	QUANT	1.00000E-003	Capacity (A-hr)
CELLTYPE	SELECTOR	1	&Cell Type
WORKINGCONNECTION	SELECTOR	0	&Working Lead
MAXDISCHARGETIME	VARIABLEANDUNITS	1.00000E+002	s	1.00000E+002	second(s)	Max &Discharge Time
DISCHARGEMODE	MULTIPARAM	0	1.00000E-004	&Discharge Mode	Constant Current	Amp(s)
SAMPLETIME	QUANT	1.00000E-002	Sa&mple Period (s)
DISCHARGESTOPAT1	MULTIPARAM	3	0.00000E+000	Discharge Stop At &1	Voltage < Limit	V
DISCHARGESTOPAT2	MULTIPARAM	0	0.00000E+000	Discharge Stop At &2	None	N/A
AESBHCSELECTOR	TOGGLE	F	Save Both Half Cells
IRCOMP	TOGGLE	F	IR &Measure
EOC	QUANT	0	Open Circuit (V)
SEQUENCER	TOGGLE	TRUE	Run as Sequence
PSTATMODEL	IQUANT	53	Pstat Model
PSTATSECTION	LABEL	IFC5000-01520	Pstat Section
PSTATSERIALNO	LABEL	01520	Pstat Serial Number
CTRLMODE	IQUANT	0	Control Mode
ELECTROMETER	IQUANT	1	RE=0 or CS=1
IESTAB	IQUANT	0	I/E Stability
CASPEED	IQUANT	4	Control Amp Speed
CONVENTION	IQUANT	1	Current Convention
ICHRANGE	IQUANT	2	Ich Range
ICHRANGEMODE	TOGGLE	T	Ich Auto Range
ICHOFFSETENABLE	TOGGLE	F	Ich Offset Enable
ICHOFFSET	QUANT	0	Ich Offset (V)
ICHFILTER	IQUANT	1	Ich Filter
VCHRANGE	IQUANT	2	Vch Range
VCHRANGEMODE	TOGGLE	T	Vch Auto Range
VCHOFFSETENABLE	TOGGLE	F	Vch Offset Enable
VCHOFFSET	QUANT	0	Vch Offset (V)
VCHFILTER	IQUANT	1	Vch Filter
IERANGELOWERLIMIT	IQUANT	9	I/E Range Lower Limit
IERANGEMODE	TOGGLE	F	I/E AutoRange
IERANGE	IQUANT	9	I/E Range
ACHSELECT	IQUANT	1	Ach Select
ACHRANGE	IQUANT	2	Ach Range
ACHOFFSETENABLE	TOGGLE	F	Ach Offset Enable
ACHOFFSET	QUANT	0	Ach Offset (V)
ACHFILTER	IQUANT	1	Ach Filter
CABLEID	IQUANT	14	Cable ID
DCCALDATE	LABEL	5-7-2017	DC Calibration Date
ACCALDATE	LABEL	12/3/2015	AC Calibration Date
FRAMEWORKVERSION	QUANT	7.01	Framework Version
INSTRUMENTVERSION	LABEL	4.00	Instrument Version
CURVE	TABLE	72
	Pt	T	Vf	Im	Vu	Pwr	Sig	Ach	Temp	IERange	Over
	#	s	V	A	V	W	V	V	deg C	#	bits
	0	0.013333	8.46318E-001	-9.83863E-005	0.00000E+000	-8.32661E-005	-5.99601E-002	8.46638E-001	3.57980E+000	9	...........
	1	0.026667	8.33352E-001	-9.93458E-005	0.00000E+000	-8.27900E-005	-5.99601E-002	8.33672E-001	3.57980E+000	9	...........
	2	0.04	8.21015E-001	-9.93760E-005	0.00000E+000	-8.15892E-005	-5.99601E-002	8.21308E-001	3.57980E+000	9	...........
	3	0.053333	8.09010E-001	-9.88676E-005	0.00000E+000	-7.99849E-005	-5.99601E-002	8.09321E-001	3.57980E+000	9	...........
	4	0.066667	7.97349E-001	-9.91635E-005	0.00000E+000	-7.90679E-005	-5.99601E-002	7.97605E-001	3.57980E+000	9	...........
	5	0.08	7.85838E-001	-9.85280E-005	0.00000E+000	-7.74270E-005	-5.99601E-002	7.86094E-001	3.57980E+000	9	...........
	6	0.093333	7.74520E-001	-9.92135E-005	0.00000E+000	-7.68429E-005	-5.99601E-002	7.74797E-001	3.57980E+000	9	...........
	7	0.106667	7.63310E-001	-9.81445E-005	0.00000E+000	-7.49147E-005	-5.99601E-002	7.63592E-001	3.57980E+000	9	...........
	8	0.12	7.52261E-001	-9.87884E-005	0.00000E+000	-7.43147E-005	-5.99601E-002	7.52520E-001	3.57980E+000	9	...........
	9	0.133333	7.41299E-001	-9.91156E-005	0.00000E+000	-7.34743E-005	-5.99601E-002	7.41554E-001	3.57980E+000	9	...........
	10	0.146667	7.30421E-001	-9.97397E-005	0.00000E+000	-7.28520E-005	-5.99601E-002	7.30681E-001	3.57980E+000	9	...........
	11	0.16	7.19624E-001	-9.94740E-005	0.00000E+000	-7.15838E-005	-5.99601E-002	7.19895E-001	3.57980E+000	9	...........
	12	0.173333	7.08855E-001	-9.86988E-005	0.00000E+000	-6.99631E-005	-5.99601E-002	7.09134E-001	3.57980E+000	9	...........
	13	0.186667	6.98152E-001	-9.86697E-005	0.00000E+000	-6.88864E-005	-5.99601E-002	6.98418E-001	3.57980E+000	9	...........
	14	0.2	6.87419E-001	-9.91114E-005	0.00000E+000	-6.81311E-005	-5.99601E-002	6.87687E-001	3.57980E+000	9	...........
	15	0.213333	6.76655E-001	-9.81956E-005	0.00000E+000	-6.64446E-005	-5.99601E-002	6.76900E-001	3.57980E+000	9	...........
	16	0.226667	6.65762E-001	-9.84727E-005	0.00000E+000	-6.55594E-005	-5.99601E-002	6.66008E-001	3.57809E+000	9	...........
	17	0.24	6.54740E-001	-9.90062E-005	0.00000E+000	-6.48233E-005	-5.99601E-002	6.54971E-001	3.57790E+000	9	...........
	18	0.253333	6.43557E-001	-9.90614E-005	0.00000E+000	-6.37516E-005	-5.99601E-002	6.43793E-001	3.57790E+000	9	...........
	19	0.266667	6.32200E-001	-9.86697E-005	0.00000E+000	-6.23790E-005	-5.99601E-002	6.32419E-001	3.57790E+000	9	...........
	20	0.28	6.20710E-001	-9.87863E-005	0.00000E+000	-6.13176E-005	-5.99601E-002	6.20922E-001	3.57790E+000	9	...........
	21	0.293333	6.08951E-001	-9.92667E-005	0.00000E+000	-6.04486E-005	-5.99601E-002	6.09241E-001	3.57790E+000	9	...........
	22	0.306667	5.97136E-001	-9.89937E-005	0.00000E+000	-5.91127E-005	-5.99601E-002	5.97418E-001	3.57790E+000	9	...........
	23	0.32	5.85179E-001	-9.89301E-005	0.00000E+000	-5.78918E-005	-5.99601E-002	5.85457E-001	3.57790E+000	9	...........
	24	0.333333	5.73074E-001	-9.92250E-005	0.00000E+000	-5.68633E-005	-5.99601E-002	5.73322E-001	3.57790E+000	9	...........
	25	0.346667	5.60860E-001	-9.82039E-005	0.00000E+000	-5.50786E-005	-5.99601E-002	5.61089E-001	3.57790E+000	9	...........
	26	0.36	5.48523E-001	-9.88551E-005	0.00000E+000	-5.42243E-005	-5.99601E-002	5.48774E-001	3.57790E+000	9	...........
	27	0.373333	5.36126E-001	-9.91989E-005	0.00000E+000	-5.31831E-005	-5.99601E-002	5.36361E-001	3.57790E+000	9	...........
	28	0.386667	5.23624E-001	-9.94584E-005	0.00000E+000	-5.20788E-005	-5.99601E-002	5.23847E-001	3.57790E+000	9	...........
	29	0.4	5.11032E-001	-9.94073E-005	0.00000E+000	-5.08003E-005	-5.99601E-002	5.11269E-001	3.57790E+000	9	...........
	30	0.413333	4.98383E-001	-9.95396E-005	0.00000E+000	-4.96089E-005	-5.99601E-002	4.98640E-001	3.57790E+000	9	...........
	31	0.426667	4.85837E-001	-9.89124E-005	0.00000E+000	-4.80554E-005	-5.99601E-002	4.86058E-001	3.57790E+000	9	...........
	32	0.44	4.73321E-001	-9.91479E-005	0.00000E+000	-4.69287E-005	-5.99601E-002	4.73422E-001	3.57790E+000	9	...........
	33	0.453333	4.60553E-001	-9.83883E-005	0.00000E+000	-4.53131E-005	-5.99601E-002	4.60658E-001	3.57790E+000	9	...........
	34	0.466667	4.47768E-001	-9.89812E-005	0.00000E+000	-4.43206E-005	-5.99601E-002	4.47869E-001	3.57790E+000	9	...........
	35	0.48	4.34958E-001	-9.82071E-005	0.00000E+000	-4.27160E-005	-5.99601E-002	4.35058E-001	3.57790E+000	9	...........
	36	0.493333	4.22141E-001	-9.83342E-005	0.00000E+000	-4.15109E-005	-5.99601E-002	4.22239E-001	3.57790E+000	9	...........
	37	0.506667	4.09327E-001	-9.86176E-005	0.00000E+000	-4.03668E-005	-5.99601E-002	4.09416E-001	3.57790E+000	9	...........
	38	0.52	3.96519E-001	-9.93240E-005	0.00000E+000	-3.93838E-005	-5.99601E-002	3.96606E-001	3.57790E+000	9	...........
	39	0.533333	3.83724E-001	-9.88447E-005	0.00000E+000	-3.79291E-005	-5.99601E-002	3.83804E-001	3.57790E+000	9	...........
	40	0.546667	3.70963E-001	-9.91281E-005	0.00000E+000	-3.67728E-005	-5.99601E-002	3.71039E-001	3.57790E+000	9	...........
	41	0.56	3.58215E-001	-9.87103E-005	0.00000E+000	-3.53595E-005	-5.99601E-002	3.58293E-001	3.57790E+000	9	...........
	42	0.573333	3.45500E-001	-9.76048E-005	0.00000E+000	-3.37225E-005	-5.99601E-002	3.45576E-001	3.57790E+000	9	...........
	43	0.586667	3.32812E-001	-9.90729E-005	0.00000E+000	-3.29727E-005	-5.99601E-002	3.32887E-001	3.57790E+000	9	...........
	44	0.6	3.20164E-001	-9.81591E-005	0.00000E+000	-3.14270E-005	-5.99601E-002	3.20230E-001	3.57790E+000	9	...........
	45	0.613333	3.07546E-001	-9.86822E-005	0.00000E+000	-3.03493E-005	-5.99601E-002	3.07611E-001	3.57790E+000	9	...........
	46	0.626667	2.94968E-001	-9.88447E-005	0.00000E+000	-2.91560E-005	-5.99601E-002	2.95031E-001	3.57790E+000	9	...........
	47	0.64	2.82431E-001	-9.86665E-005	0.00000E+000	-2.78665E-005	-5.99601E-002	2.82491E-001	3.57790E+000	9	...........
	48	0.653333	2.69923E-001	-9.83310E-005	0.00000E+000	-2.65418E-005	-5.99601E-002	2.69985E-001	3.57790E+000	9	...........
	49	0.666667	2.57451E-001	-9.87832E-005	0.00000E+000	-2.54318E-005	-5.99601E-002	2.57509E-001	3.57790E+000	9	...........
	50	0.68	2.45020E-001	-9.93844E-005	0.00000E+000	-2.43512E-005	-5.99601E-002	2.45070E-001	3.57790E+000	9	...........
	51	0.693333	2.32611E-001	-9.85665E-005	0.00000E+000	-2.29277E-005	-5.99601E-002	2.32657E-001	3.57790E+000	9	...........
	52	0.706667	2.20225E-001	-9.73840E-005	0.00000E+000	-2.14464E-005	-5.99601E-002	2.20270E-001	3.57790E+000	9	...........
	53	0.72	2.07870E-001	-9.92302E-005	0.00000E+000	-2.06269E-005	-5.99601E-002	2.07913E-001	3.57790E+000	9	...........
	54	0.733333	1.95545E-001	-9.88197E-005	0.00000E+000	-1.93237E-005	-5.99601E-002	1.95585E-001	3.57790E+000	9	...........
	55	0.746667	1.83242E-001	-9.88280E-005	0.00000E+000	-1.81095E-005	-5.99601E-002	1.83280E-001	3.57790E+000	9	...........
	56	0.76	1.70971E-001	-9.87593E-005	0.00000E+000	-1.68849E-005	-5.99601E-002	1.71000E-001	3.57790E+000	9	...........
	57	0.773333	1.58729E-001	-9.80258E-005	0.00000E+000	-1.55595E-005	-5.99601E-002	1.58762E-001	3.57790E+000	9	...........
	58	0.786667	1.46532E-001	-9.89499E-005	0.00000E+000	-1.44993E-005	-5.99601E-002	1.46555E-001	3.57790E+000	9	...........
	59	0.8	1.34372E-001	-9.96678E-005	0.00000E+000	-1.33926E-005	-5.99601E-002	1.34401E-001	3.57790E+000	9	...........
	60	0.813333	1.22266E-001	-9.88082E-005	0.00000E+000	-1.20809E-005	-5.99601E-002	1.22290E-001	3.57790E+000	9	...........
	61	0.826667	1.10217E-001	-9.85957E-005	0.00000E+000	-1.08670E-005	-5.99601E-002	1.10239E-001	3.57790E+000	9	...........
	62	0.84	9.82304E-002	-9.86196E-005	0.00000E+000	-9.68745E-006	-5.99601E-002	9.82564E-002	3.57790E+000	9	...........
	63	0.853333	8.63212E-002	-9.82904E-005	0.00000E+000	-8.48455E-006	-5.99601E-002	8.63374E-002	3.57790E+000	9	...........
	64	0.866667	7.44818E-002	-9.88447E-005	0.00000E+000	-7.36213E-006	-5.99601E-002	7.44994E-002	3.57790E+000	9	...........
	65	0.88	6.27414E-002	-9.92062E-005	0.00000E+000	-6.22433E-006	-5.99601E-002	6.27514E-002	3.57790E+000	9	...........
	66	0.893333	5.11118E-002	-9.85186E-005	0.00000E+000	-5.03546E-006	-5.99601E-002	5.11262E-002	3.57790E+000	9	...........
	67	0.906667	3.96359E-002	-9.86717E-005	0.00000E+000	-3.91094E-006	-5.99601E-002	3.96397E-002	3.57790E+000	9	...........
	68	0.92	2.82489E-002	-9.99168E-005	0.00000E+000	-2.82254E-006	-5.99601E-002	2.82495E-002	3.57790E+000	9	...........
	69	0.933333	1.69990E-002	-9.85415E-005	0.00000E+000	-1.67511E-006	-5.99601E-002	1.69875E-002	3.57790E+000	9	...........
	70	0.946667	5.89528E-003	-9.90301E-005	0.00000E+000	-5.83810E-007	-5.99601E-002	5.87816E-003	3.57790E+000	9	...........
	71	0.948333	-2.84248E-004	-9.89603E-005	0.00000E+000	2.81292E-008	-5.99601E-002	-3.16341E-004	3.57790E+000	9	...........
STARTTIMEOFFSET	QUANT	530.5751	Start Time Offset (s)
