EXPLAIN
TAG	PWR800_DISCHARGE
TITLE	LABEL	PWR Cyclic Charge Discharge (Cell) - Discharge Step	Test &Identifier
DATE	LABEL	12-7-2017	Date
TIME	LABEL	16:32:15	Time
NOTES	NOTES	2	&Notes...
	supercap test cell
	6M KOH
PSTAT	PSTAT	IFC5000-01520	Potentiostat
CAPACITY	QUANT	1.00000E-003	Capacity (A-hr)
CELLTYPE	SELECTOR	1	&Cell Type
WORKINGCONNECTION	SELECTOR	0	&Working Lead
MAXDISCHARGETIME	VARIABLEANDUNITS	1.00000E+002	s	1.00000E+002	second(s)	Max &Discharge Time
DISCHARGEMODE	MULTIPARAM	0	1.00000E-004	&Discharge Mode	Constant Current	Amp(s)
SAMPLETIME	QUANT	1.00000E-002	Sa&mple Period (s)
DISCHARGESTOPAT1	MULTIPARAM	3	0.00000E+000	Discharge Stop At &1	Voltage < Limit	V
DISCHARGESTOPAT2	MULTIPARAM	0	0.00000E+000	Discharge Stop At &2	None	N/A
AESBHCSELECTOR	TOGGLE	F	Save Both Half Cells
IRCOMP	TOGGLE	F	IR &Measure
EOC	QUANT	0	Open Circuit (V)
SEQUENCER	TOGGLE	TRUE	Run as Sequence
PSTATMODEL	IQUANT	53	Pstat Model
PSTATSECTION	LABEL	IFC5000-01520	Pstat Section
PSTATSERIALNO	LABEL	01520	Pstat Serial Number
CTRLMODE	IQUANT	0	Control Mode
ELECTROMETER	IQUANT	1	RE=0 or CS=1
IESTAB	IQUANT	0	I/E Stability
CASPEED	IQUANT	4	Control Amp Speed
CONVENTION	IQUANT	1	Current Convention
ICHRANGE	IQUANT	2	Ich Range
ICHRANGEMODE	TOGGLE	T	Ich Auto Range
ICHOFFSETENABLE	TOGGLE	F	Ich Offset Enable
ICHOFFSET	QUANT	0	Ich Offset (V)
ICHFILTER	IQUANT	1	Ich Filter
VCHRANGE	IQUANT	2	Vch Range
VCHRANGEMODE	TOGGLE	T	Vch Auto Range
VCHOFFSETENABLE	TOGGLE	F	Vch Offset Enable
VCHOFFSET	QUANT	0	Vch Offset (V)
VCHFILTER	IQUANT	1	Vch Filter
IERANGELOWERLIMIT	IQUANT	9	I/E Range Lower Limit
IERANGEMODE	TOGGLE	F	I/E AutoRange
IERANGE	IQUANT	9	I/E Range
ACHSELECT	IQUANT	1	Ach Select
ACHRANGE	IQUANT	2	Ach Range
ACHOFFSETENABLE	TOGGLE	F	Ach Offset Enable
ACHOFFSET	QUANT	0	Ach Offset (V)
ACHFILTER	IQUANT	1	Ach Filter
CABLEID	IQUANT	14	Cable ID
DCCALDATE	LABEL	5-7-2017	DC Calibration Date
ACCALDATE	LABEL	12/3/2015	AC Calibration Date
FRAMEWORKVERSION	QUANT	7.01	Framework Version
INSTRUMENTVERSION	LABEL	4.00	Instrument Version
CURVE	TABLE	71
	Pt	T	Vf	Im	Vu	Pwr	Sig	Ach	Temp	IERange	Over
	#	s	V	A	V	W	V	V	deg C	#	bits
	0	0.013333	8.44485E-001	-9.92156E-005	0.00000E+000	-8.37861E-005	-5.99601E-002	8.44832E-001	3.57690E+000	9	...........
	1	0.026667	8.31432E-001	-9.91135E-005	0.00000E+000	-8.24062E-005	-5.99601E-002	8.31766E-001	3.57690E+000	9	...........
	2	0.04	8.18992E-001	-9.65452E-005	0.00000E+000	-7.90697E-005	-5.99601E-002	8.19306E-001	3.57690E+000	9	...........
	3	0.053333	8.06945E-001	-9.87197E-005	0.00000E+000	-7.96613E-005	-5.99601E-002	8.07223E-001	3.57690E+000	9	...........
	4	0.066667	7.95150E-001	-9.72902E-005	0.00000E+000	-7.73603E-005	-5.99601E-002	7.95425E-001	3.57690E+000	9	...........
	5	0.08	7.83527E-001	-9.89124E-005	0.00000E+000	-7.75006E-005	-5.99601E-002	7.83810E-001	3.57690E+000	9	...........
	6	0.093333	7.72083E-001	-9.92531E-005	0.00000E+000	-7.66316E-005	-5.99601E-002	7.72370E-001	3.57690E+000	9	...........
	7	0.106667	7.60770E-001	-9.76476E-005	0.00000E+000	-7.42873E-005	-5.99601E-002	7.61052E-001	3.57690E+000	9	...........
	8	0.12	7.49565E-001	-9.79382E-005	0.00000E+000	-7.34111E-005	-5.99601E-002	7.49870E-001	3.57690E+000	9	...........
	9	0.133333	7.38488E-001	-9.90624E-005	0.00000E+000	-7.31564E-005	-5.99601E-002	7.38765E-001	3.57690E+000	9	...........
	10	0.146667	7.27517E-001	-9.82852E-005	0.00000E+000	-7.15041E-005	-5.99601E-002	7.27780E-001	3.57690E+000	9	...........
	11	0.16	7.16597E-001	-9.86519E-005	0.00000E+000	-7.06937E-005	-5.99601E-002	7.16873E-001	3.57690E+000	9	...........
	12	0.173333	7.05781E-001	-9.93667E-005	0.00000E+000	-7.01311E-005	-5.99601E-002	7.06065E-001	3.57690E+000	9	...........
	13	0.186667	6.95032E-001	-9.91781E-005	0.00000E+000	-6.89319E-005	-5.99601E-002	6.95314E-001	3.57690E+000	9	...........
	14	0.2	6.84357E-001	-9.88416E-005	0.00000E+000	-6.76429E-005	-5.99601E-002	6.84622E-001	3.57690E+000	9	...........
	15	0.213333	6.73734E-001	-9.86717E-005	0.00000E+000	-6.64785E-005	-5.99601E-002	6.73997E-001	3.57690E+000	9	...........
	16	0.226667	6.63050E-001	-9.95469E-005	0.00000E+000	-6.60046E-005	-5.99601E-002	6.63338E-001	3.57690E+000	9	...........
	17	0.24	6.52360E-001	-9.82081E-005	0.00000E+000	-6.40670E-005	-5.99601E-002	6.52636E-001	3.57690E+000	9	...........
	18	0.253333	6.41554E-001	-9.89312E-005	0.00000E+000	-6.34696E-005	-5.99601E-002	6.41818E-001	3.57690E+000	9	...........
	19	0.266667	6.30623E-001	-9.80143E-005	0.00000E+000	-6.18101E-005	-5.99601E-002	6.30873E-001	3.57690E+000	9	...........
	20	0.28	6.19555E-001	-9.95063E-005	0.00000E+000	-6.16497E-005	-5.99601E-002	6.19779E-001	3.57690E+000	9	...........
	21	0.293333	6.08187E-001	-9.84727E-005	0.00000E+000	-5.98899E-005	-5.99601E-002	6.08472E-001	3.57690E+000	9	...........
	22	0.306667	5.96733E-001	-9.82487E-005	0.00000E+000	-5.86283E-005	-5.99601E-002	5.96996E-001	3.57690E+000	9	...........
	23	0.32	5.85021E-001	-9.85894E-005	0.00000E+000	-5.76769E-005	-5.99601E-002	5.85296E-001	3.57690E+000	9	...........
	24	0.333333	5.73183E-001	-9.81643E-005	0.00000E+000	-5.62662E-005	-5.99601E-002	5.73420E-001	3.57690E+000	9	...........
	25	0.346667	5.61118E-001	-9.90312E-005	0.00000E+000	-5.55681E-005	-5.99601E-002	5.61364E-001	3.57690E+000	9	...........
	26	0.36	5.48907E-001	-9.91135E-005	0.00000E+000	-5.44041E-005	-5.99601E-002	5.49162E-001	3.57690E+000	9	...........
	27	0.373333	5.36541E-001	-9.91343E-005	0.00000E+000	-5.31896E-005	-5.99601E-002	5.36805E-001	3.57690E+000	9	...........
	28	0.386667	5.24055E-001	-9.89249E-005	0.00000E+000	-5.18421E-005	-5.99601E-002	5.24302E-001	3.57690E+000	9	...........
	29	0.4	5.11429E-001	-9.88780E-005	0.00000E+000	-5.05691E-005	-5.99601E-002	5.11678E-001	3.57690E+000	9	...........
	30	0.413333	4.98703E-001	-9.90999E-005	0.00000E+000	-4.94215E-005	-5.99601E-002	4.98966E-001	3.57690E+000	9	...........
	31	0.426667	4.86024E-001	-9.92917E-005	0.00000E+000	-4.82581E-005	-5.99601E-002	4.86194E-001	3.57690E+000	9	...........
	32	0.44	4.73313E-001	-9.89926E-005	0.00000E+000	-4.68545E-005	-5.99601E-002	4.73420E-001	3.57690E+000	9	...........
	33	0.453333	4.60330E-001	-9.83675E-005	0.00000E+000	-4.52815E-005	-5.99601E-002	4.60431E-001	3.57690E+000	9	...........
	34	0.466667	4.47283E-001	-9.87832E-005	0.00000E+000	-4.41841E-005	-5.99601E-002	4.47384E-001	3.57690E+000	9	...........
	35	0.48	4.34205E-001	-9.85738E-005	0.00000E+000	-4.28012E-005	-5.99601E-002	4.34305E-001	3.57690E+000	9	...........
	36	0.493333	4.21077E-001	-9.84790E-005	0.00000E+000	-4.14673E-005	-5.99601E-002	4.21177E-001	3.57690E+000	9	...........
	37	0.506667	4.07932E-001	-9.95219E-005	0.00000E+000	-4.05982E-005	-5.99601E-002	4.08028E-001	3.57690E+000	9	...........
	38	0.52	3.94782E-001	-9.88447E-005	0.00000E+000	-3.90221E-005	-5.99601E-002	3.94870E-001	3.57690E+000	9	...........
	39	0.533333	3.81625E-001	-9.89082E-005	0.00000E+000	-3.77458E-005	-5.99601E-002	3.81707E-001	3.57690E+000	9	...........
	40	0.546667	3.68477E-001	-9.77966E-005	0.00000E+000	-3.60358E-005	-5.99601E-002	3.68560E-001	3.57690E+000	9	...........
	41	0.56	3.55346E-001	-9.92041E-005	0.00000E+000	-3.52518E-005	-5.99601E-002	3.55422E-001	3.57690E+000	9	...........
	42	0.573333	3.42238E-001	-9.81862E-005	0.00000E+000	-3.36031E-005	-5.99601E-002	3.42313E-001	3.57690E+000	9	...........
	43	0.586667	3.29170E-001	-9.88218E-005	0.00000E+000	-3.25291E-005	-5.99601E-002	3.29244E-001	3.57690E+000	9	...........
	44	0.6	3.16138E-001	-9.82727E-005	0.00000E+000	-3.10677E-005	-5.99601E-002	3.16207E-001	3.57675E+000	9	...........
	45	0.613333	3.03145E-001	-9.90864E-005	0.00000E+000	-3.00376E-005	-5.99601E-002	3.03217E-001	3.57670E+000	9	...........
	46	0.626667	2.90200E-001	-9.95427E-005	0.00000E+000	-2.88873E-005	-5.99601E-002	2.90265E-001	3.57670E+000	9	...........
	47	0.64	2.77315E-001	-9.95375E-005	0.00000E+000	-2.76032E-005	-5.99601E-002	2.77377E-001	3.57670E+000	9	...........
	48	0.653333	2.64481E-001	-9.97782E-005	0.00000E+000	-2.63895E-005	-5.99601E-002	2.64541E-001	3.57670E+000	9	...........
	49	0.666667	2.51712E-001	-9.91635E-005	0.00000E+000	-2.49606E-005	-5.99601E-002	2.51768E-001	3.57670E+000	9	...........
	50	0.68	2.39012E-001	-9.77841E-005	0.00000E+000	-2.33716E-005	-5.99601E-002	2.39059E-001	3.57670E+000	9	...........
	51	0.693333	2.26352E-001	-9.89791E-005	0.00000E+000	-2.24041E-005	-5.99601E-002	2.26399E-001	3.57670E+000	9	...........
	52	0.706667	2.13748E-001	-9.94552E-005	0.00000E+000	-2.12583E-005	-5.99601E-002	2.13795E-001	3.57670E+000	9	...........
	53	0.72	2.01194E-001	-9.98136E-005	0.00000E+000	-2.00819E-005	-5.99601E-002	2.01236E-001	3.57670E+000	9	...........
	54	0.733333	1.88705E-001	-9.95313E-005	0.00000E+000	-1.87821E-005	-5.99601E-002	1.88741E-001	3.57670E+000	9	...........
	55	0.746667	1.76272E-001	-9.88384E-005	0.00000E+000	-1.74224E-005	-5.99601E-002	1.76302E-001	3.57670E+000	9	...........
	56	0.76	1.63885E-001	-9.85144E-005	0.00000E+000	-1.61450E-005	-5.99601E-002	1.63912E-001	3.57670E+000	9	...........
	57	0.773333	1.51544E-001	-9.85759E-005	0.00000E+000	-1.49386E-005	-5.99601E-002	1.51568E-001	3.57670E+000	9	...........
	58	0.786667	1.39269E-001	-9.91083E-005	0.00000E+000	-1.38027E-005	-5.99601E-002	1.39288E-001	3.57670E+000	9	...........
	59	0.8	1.27054E-001	-9.94000E-005	0.00000E+000	-1.26291E-005	-5.99601E-002	1.27073E-001	3.57670E+000	9	...........
	60	0.813333	1.14906E-001	-9.87332E-005	0.00000E+000	-1.13450E-005	-5.99601E-002	1.14929E-001	3.57670E+000	9	...........
	61	0.826667	1.02836E-001	-9.82081E-005	0.00000E+000	-1.00994E-005	-5.99601E-002	1.02856E-001	3.57670E+000	9	...........
	62	0.84	9.08577E-002	-9.93354E-005	0.00000E+000	-9.02539E-006	-5.99601E-002	9.08711E-002	3.57670E+000	9	...........
	63	0.853333	7.89599E-002	-9.90541E-005	0.00000E+000	-7.82130E-006	-5.99601E-002	7.89755E-002	3.57670E+000	9	...........
	64	0.866667	6.71713E-002	-9.93354E-005	0.00000E+000	-6.67249E-006	-5.99601E-002	6.71789E-002	3.57670E+000	9	...........
	65	0.88	5.54981E-002	-9.80799E-005	0.00000E+000	-5.44325E-006	-5.99601E-002	5.55008E-002	3.57670E+000	9	...........
	66	0.893333	4.39723E-002	-9.96219E-005	0.00000E+000	-4.38060E-006	-5.99601E-002	4.39754E-002	3.57670E+000	9	...........
	67	0.906667	3.25690E-002	-9.76997E-005	0.00000E+000	-3.18198E-006	-5.99601E-002	3.25681E-002	3.57670E+000	9	...........
	68	0.92	2.13022E-002	-9.78257E-005	0.00000E+000	-2.08390E-006	-5.99601E-002	2.12953E-002	3.57670E+000	9	...........
	69	0.933333	1.01816E-002	-9.94115E-005	0.00000E+000	-1.01217E-006	-5.99601E-002	1.01671E-002	3.57670E+000	9	...........
	70	0.94	1.94156E-003	-9.88311E-005	0.00000E+000	-1.91886E-007	-5.99601E-002	1.92404E-003	3.57670E+000	9	...........
STARTTIMEOFFSET	QUANT	948.9236	Start Time Offset (s)
