EXPLAIN
TAG	CV
TITLE	LABEL	Cyclic Voltammetry	Test Identifier
DATE	LABEL	11-7-2017	Date
TIME	LABEL	13:38:24	Time
NOTES	NOTES	1	Notes...
	0.8mg

PSTAT	PSTAT	IFC5000-01520	Potentiostat
VINIT	POTEN	0.00000E+000	F	Initial E (V)
VLIMIT1	POTEN	-8.00000E-001	F	Scan Limit 1 (V)
VLIMIT2	POTEN	8.00000E-001	F	Scan Limit 2 (V)
VFINAL	POTEN	0.00000E+000	F	Final E (V)
SCANRATE	QUANT	3.99999E+002	A Real Number
STEPSIZE	QUANT	1.00000E+001	Step Size (mV)
CYCLES	IQUANT	3	Cycles (#)
IMODE	SELECTOR	0	I/E Range Mode
IRANGE	QUANT	2.50000E+002	Max Current (mA)
AREA	QUANT	3.84800E-001	A Real Number
EQDELAY	QUANT	1.00000E+000	Equil. Time (s)
IRCOMP	SELECTOR	0	IRComp
PFCOR	QUANT	2.50000E+002	PF Corr. (ohm)
SAMPLINGMODE	SELECTOR	0	Sampling Mode
EOC	QUANT	0	Open Circuit (V)
SEQUENCER	TOGGLE	TRUE	Run as Sequence
PSTATMODEL	IQUANT	53	Pstat Model
PSTATSECTION	LABEL	IFC5000-01520	Pstat Section
PSTATSERIALNO	LABEL	01520	Pstat Serial Number
CTRLMODE	IQUANT	1	Control Mode
ELECTROMETER	IQUANT	0	RE=0 or CS=1
IESTAB	IQUANT	2	I/E Stability
CASPEED	IQUANT	4	Control Amp Speed
CONVENTION	IQUANT	1	Current Convention
ICHRANGE	IQUANT	2	Ich Range
ICHRANGEMODE	TOGGLE	F	Ich Auto Range
ICHOFFSETENABLE	TOGGLE	F	Ich Offset Enable
ICHOFFSET	QUANT	0	Ich Offset (V)
ICHFILTER	IQUANT	3	Ich Filter
VCHRANGE	IQUANT	2	Vch Range
VCHRANGEMODE	TOGGLE	F	Vch Auto Range
VCHOFFSETENABLE	TOGGLE	F	Vch Offset Enable
VCHOFFSET	QUANT	0	Vch Offset (V)
VCHFILTER	IQUANT	3	Vch Filter
IERANGELOWERLIMIT	IQUANT	7	I/E Range Lower Limit
IERANGEMODE	TOGGLE	T	I/E AutoRange
IERANGE	IQUANT	11	I/E Range
ACHSELECT	IQUANT	1	Ach Select
ACHRANGE	IQUANT	2	Ach Range
ACHOFFSETENABLE	TOGGLE	F	Ach Offset Enable
ACHOFFSET	QUANT	0	Ach Offset (V)
ACHFILTER	IQUANT	1	Ach Filter
CABLEID	IQUANT	14	Cable ID
DCCALDATE	LABEL	5-7-2017	DC Calibration Date
ACCALDATE	LABEL	12/3/2015	AC Calibration Date
FRAMEWORKVERSION	QUANT	7.01	Framework Version
INSTRUMENTVERSION	LABEL	4.00	Instrument Version
CURVE1	TABLE
	Pt	T	Vf	Im	Vu	Sig	Ach	IERange	Over
	#	s	V vs. Ref.	A	V	V	V	#	bits
	0	0.025	-1.65120E-004	-8.86577E-005	0.00000E+000	0.00000E+000	-1.33649E-004	11	...........
	1	0.05	-1.01651E-002	-1.02337E-004	0.00000E+000	-9.99874E-003	-1.01373E-002	10	...........
	2	0.075	-2.01651E-002	-1.14411E-004	0.00000E+000	-1.99975E-002	-2.01410E-002	9	...........
	3	0.1	-3.01651E-002	-1.25700E-004	0.00000E+000	-2.99962E-002	-3.01447E-002	8	...........
	4	0.125	-4.01651E-002	-1.37069E-004	0.00000E+000	-3.99949E-002	-4.01484E-002	8	...........
	5	0.15	-5.01651E-002	-1.46368E-004	0.00000E+000	-4.99937E-002	-5.03522E-002	8	...........
	6	0.175	-6.01651E-002	-1.55984E-004	0.00000E+000	-5.99924E-002	-5.99558E-002	8	...........
	7	0.2	-6.99651E-002	-1.64515E-004	0.00000E+000	-6.99912E-002	-7.01595E-002	8	...........
	8	0.225	-8.01651E-002	-1.74365E-004	0.00000E+000	-7.99899E-002	-8.01632E-002	8	...........
	9	0.25	-8.99651E-002	-1.82545E-004	0.00000E+000	-8.99886E-002	-8.99668E-002	8	...........
	10	0.275	-9.99651E-002	-1.90775E-004	0.00000E+000	-9.99874E-002	-9.99706E-002	8	...........
	11	0.3	-1.09965E-001	-1.98438E-004	0.00000E+000	-1.09986E-001	-1.10174E-001	8	...........
	12	0.325	-1.20165E-001	-2.07570E-004	0.00000E+000	-1.19985E-001	-1.19978E-001	8	...........
	13	0.35	-1.30165E-001	-2.14482E-004	0.00000E+000	-1.29984E-001	-1.29982E-001	8	...........
	14	0.375	-1.39965E-001	-2.22779E-004	0.00000E+000	-1.39982E-001	-1.39985E-001	8	...........
	15	0.4	-1.49965E-001	-2.31076E-004	0.00000E+000	-1.49981E-001	-1.49989E-001	8	...........
	16	0.425	-1.59965E-001	-2.38389E-004	0.00000E+000	-1.59980E-001	-1.59993E-001	8	...........
	17	0.45	-1.69965E-001	-2.46586E-004	0.00000E+000	-1.69979E-001	-1.69996E-001	8	...........
	18	0.475	-1.79965E-001	-2.54566E-004	0.00000E+000	-1.79977E-001	-1.80000E-001	8	...........
	19	0.5	-1.90165E-001	-2.61377E-004	0.00000E+000	-1.89976E-001	-1.90204E-001	8	...........
	20	0.525	-1.99965E-001	-2.69224E-004	0.00000E+000	-1.99975E-001	-2.00008E-001	8	...........
	21	0.55	-2.10165E-001	-2.77554E-004	0.00000E+000	-2.10023E-001	-2.10011E-001	8	...........
	22	0.575	-2.19965E-001	-2.84633E-004	0.00000E+000	-2.20022E-001	-2.20015E-001	8	...........
	23	0.6	-2.29965E-001	-2.91544E-004	0.00000E+000	-2.30021E-001	-2.29819E-001	8	...........
	24	0.625	-2.39765E-001	-3.00292E-004	0.00000E+000	-2.40020E-001	-2.39822E-001	8	...........
	25	0.65	-2.49965E-001	-3.07555E-004	0.00000E+000	-2.50018E-001	-2.49826E-001	8	...........
	26	0.675	-2.59965E-001	-3.16119E-004	0.00000E+000	-2.60017E-001	-2.59830E-001	8	...........
	27	0.7	-2.70165E-001	-3.23832E-004	0.00000E+000	-2.70016E-001	-2.69833E-001	8	...........
	28	0.725	-2.79765E-001	-3.31495E-004	0.00000E+000	-2.80015E-001	-2.79837E-001	8	...........
	29	0.75	-2.89965E-001	-3.39742E-004	0.00000E+000	-2.90013E-001	-2.89841E-001	8	...........
	30	0.775	-2.99965E-001	-3.46954E-004	0.00000E+000	-3.00012E-001	-2.99644E-001	8	...........
	31	0.8	-3.09965E-001	-3.55685E-004	0.00000E+000	-3.10011E-001	-3.09848E-001	8	...........
	32	0.825	-3.19965E-001	-3.62914E-004	0.00000E+000	-3.20010E-001	-3.19852E-001	8	...........
	33	0.85	-3.29965E-001	-3.70594E-004	0.00000E+000	-3.30008E-001	-3.30056E-001	8	...........
	34	0.875	-3.39765E-001	-3.77739E-004	0.00000E+000	-3.40007E-001	-3.39659E-001	8	...........
	35	0.9	-3.49965E-001	-3.86003E-004	0.00000E+000	-3.50006E-001	-3.49663E-001	8	...........
	36	0.925	-3.59765E-001	-3.94567E-004	0.00000E+000	-3.60005E-001	-3.59867E-001	8	...........
	37	0.95	-3.69965E-001	-4.01579E-004	0.00000E+000	-3.70003E-001	-3.69670E-001	8	...........
	38	0.975	-3.79765E-001	-4.09075E-004	0.00000E+000	-3.80002E-001	-3.79674E-001	8	...........
	39	1	-3.89765E-001	-4.17205E-004	0.00000E+000	-3.90001E-001	-3.89678E-001	8	...........
	40	1.025	-3.99765E-001	-4.24985E-004	0.00000E+000	-3.99999E-001	-3.99681E-001	8	...........
	41	1.05	-4.09765E-001	-4.32781E-004	0.00000E+000	-4.09998E-001	-4.09685E-001	8	...........
	42	1.075	-4.19765E-001	-4.39943E-004	0.00000E+000	-4.19997E-001	-4.19889E-001	8	...........
	43	1.1	-4.29765E-001	-4.47289E-004	0.00000E+000	-4.29996E-001	-4.29893E-001	8	...........
	44	1.125	-4.39765E-001	-4.55316E-004	0.00000E+000	-4.39994E-001	-4.39696E-001	9	...........
	45	1.15	-4.49765E-001	-4.62984E-004	0.00000E+000	-4.49993E-001	-4.49700E-001	9	...........
	46	1.175	-4.59765E-001	-4.71152E-004	0.00000E+000	-4.59992E-001	-4.59503E-001	9	...........
	47	1.2	-4.69765E-001	-4.77987E-004	0.00000E+000	-4.69991E-001	-4.69707E-001	9	...........
	48	1.225	-4.79765E-001	-4.85989E-004	0.00000E+000	-4.79989E-001	-4.79711E-001	9	...........
	49	1.25	-4.89965E-001	-4.93657E-004	0.00000E+000	-4.89988E-001	-4.89715E-001	9	...........
	50	1.275	-4.99565E-001	-5.01325E-004	0.00000E+000	-4.99987E-001	-4.99518E-001	9	...........
	51	1.3	-5.09765E-001	-5.08827E-004	0.00000E+000	-5.09986E-001	-5.09522E-001	9	...........
	52	1.325	-5.19765E-001	-5.16829E-004	0.00000E+000	-5.19984E-001	-5.19726E-001	9	...........
	53	1.35	-5.29565E-001	-5.24830E-004	0.00000E+000	-5.29983E-001	-5.29529E-001	9	...........
	54	1.375	-5.39765E-001	-5.31998E-004	0.00000E+000	-5.39982E-001	-5.39733E-001	9	...........
	55	1.4	-5.49565E-001	-5.39667E-004	0.00000E+000	-5.49981E-001	-5.49537E-001	9	...........
	56	1.425	-5.59765E-001	-5.47335E-004	0.00000E+000	-5.59979E-001	-5.59540E-001	9	...........
	57	1.45	-5.69565E-001	-5.55170E-004	0.00000E+000	-5.69978E-001	-5.69544E-001	9	...........
	58	1.475	-5.79565E-001	-5.63005E-004	0.00000E+000	-5.79977E-001	-5.79548E-001	9	...........
	59	1.5	-5.89565E-001	-5.70673E-004	0.00000E+000	-5.89975E-001	-5.89552E-001	9	...........
	60	1.525	-5.99565E-001	-5.79508E-004	0.00000E+000	-5.99974E-001	-5.99755E-001	9	...........
	61	1.55	-6.09765E-001	-5.87844E-004	0.00000E+000	-6.10023E-001	-6.09559E-001	9	...........
	62	1.575	-6.19765E-001	-5.95845E-004	0.00000E+000	-6.20022E-001	-6.19563E-001	9	...........
	63	1.6	-6.29765E-001	-6.03847E-004	0.00000E+000	-6.30020E-001	-6.29566E-001	9	...........
	64	1.625	-6.39765E-001	-6.12682E-004	0.00000E+000	-6.40019E-001	-6.39570E-001	9	...........
	65	1.65	-6.49565E-001	-6.21184E-004	0.00000E+000	-6.50018E-001	-6.49574E-001	9	...........
	66	1.675	-6.59765E-001	-6.30019E-004	0.00000E+000	-6.60017E-001	-6.59577E-001	9	...........
	67	1.7	-6.69765E-001	-6.39188E-004	0.00000E+000	-6.70015E-001	-6.69581E-001	9	...........
	68	1.725	-6.79565E-001	-6.48023E-004	0.00000E+000	-6.80014E-001	-6.79785E-001	9	...........
	69	1.75	-6.89565E-001	-6.57192E-004	0.00000E+000	-6.90013E-001	-6.89588E-001	9	...........
	70	1.775	-6.99765E-001	-6.66860E-004	0.00000E+000	-7.00012E-001	-6.99392E-001	9	...........
	71	1.8	-7.09565E-001	-6.76862E-004	0.00000E+000	-7.10010E-001	-7.09396E-001	9	...........
	72	1.825	-7.19765E-001	-6.86531E-004	0.00000E+000	-7.20009E-001	-7.19600E-001	9	...........
	73	1.85	-7.29565E-001	-6.96533E-004	0.00000E+000	-7.30008E-001	-7.29803E-001	9	...........
	74	1.875	-7.39565E-001	-7.06535E-004	0.00000E+000	-7.40007E-001	-7.39407E-001	9	...........
	75	1.9	-7.49565E-001	-7.17537E-004	0.00000E+000	-7.50005E-001	-7.49411E-001	9	...........
	76	1.925	-7.59365E-001	-7.28707E-004	0.00000E+000	-7.60004E-001	-7.59414E-001	9	...........
	77	1.95	-7.69565E-001	-7.39709E-004	0.00000E+000	-7.70003E-001	-7.69418E-001	9	...........
	78	1.975	-7.79765E-001	-7.51378E-004	0.00000E+000	-7.80001E-001	-7.79422E-001	9	...........
	79	2	-7.89365E-001	-7.62214E-004	0.00000E+000	-7.90000E-001	-7.89625E-001	9	...........
	80	2.025	-7.99565E-001	-7.74883E-004	0.00000E+000	-7.99999E-001	-7.99429E-001	9	...........
	81	2.05	-7.89565E-001	-7.02201E-004	0.00000E+000	-7.90000E-001	-7.89225E-001	9	...........
	82	2.075	-7.79565E-001	-6.45189E-004	0.00000E+000	-7.80001E-001	-7.79422E-001	9	...........
	83	2.1	-7.69565E-001	-6.00680E-004	0.00000E+000	-7.70003E-001	-7.69418E-001	9	...........
	84	2.125	-7.59565E-001	-5.60338E-004	0.00000E+000	-7.60004E-001	-7.59414E-001	9	...........
	85	2.15	-7.49565E-001	-5.24997E-004	0.00000E+000	-7.50005E-001	-7.49411E-001	9	...........
	86	2.175	-7.39765E-001	-4.91823E-004	0.00000E+000	-7.40007E-001	-7.39607E-001	9	...........
	87	2.2	-7.29565E-001	-4.63317E-004	0.00000E+000	-7.30008E-001	-7.29603E-001	9	...........
	88	2.225	-7.19565E-001	-4.35812E-004	0.00000E+000	-7.20009E-001	-7.19400E-001	9	...........
	89	2.25	-7.09565E-001	-4.09473E-004	0.00000E+000	-7.10010E-001	-7.09396E-001	9	...........
	90	2.275	-6.99565E-001	-3.87135E-004	0.00000E+000	-7.00012E-001	-6.99592E-001	9	...........
	91	2.3	-6.89565E-001	-3.65685E-004	0.00000E+000	-6.90013E-001	-6.89388E-001	8	...........
	92	2.325	-6.79565E-001	-3.44784E-004	0.00000E+000	-6.80014E-001	-6.79585E-001	8	...........
	93	2.35	-6.69565E-001	-3.24516E-004	0.00000E+000	-6.70015E-001	-6.69581E-001	8	...........
	94	2.375	-6.59565E-001	-3.06419E-004	0.00000E+000	-6.60017E-001	-6.59577E-001	8	...........
	95	2.4	-6.49765E-001	-2.88840E-004	0.00000E+000	-6.50018E-001	-6.49574E-001	8	...........
	96	2.425	-6.39765E-001	-2.71678E-004	0.00000E+000	-6.40019E-001	-6.39570E-001	8	...........
	97	2.45	-6.29565E-001	-2.56536E-004	0.00000E+000	-6.30020E-001	-6.29566E-001	8	...........
	98	2.475	-6.19765E-001	-2.41460E-004	0.00000E+000	-6.20022E-001	-6.19563E-001	8	...........
	99	2.5	-6.09365E-001	-2.26736E-004	0.00000E+000	-6.10023E-001	-6.09559E-001	8	...........
	100	2.525	-5.99565E-001	-2.12996E-004	0.00000E+000	-5.99974E-001	-5.99755E-001	8	...........
	101	2.55	-5.89565E-001	-1.99807E-004	0.00000E+000	-5.89975E-001	-5.89752E-001	8	...........
	102	2.575	-5.79565E-001	-1.87002E-004	0.00000E+000	-5.79977E-001	-5.79748E-001	8	...........
	103	2.6	-5.69565E-001	-1.75717E-004	0.00000E+000	-5.69978E-001	-5.69544E-001	8	...........
	104	2.625	-5.59765E-001	-1.63580E-004	0.00000E+000	-5.59979E-001	-5.59540E-001	8	...........
	105	2.65	-5.49565E-001	-1.51843E-004	0.00000E+000	-5.49981E-001	-5.49537E-001	8	...........
	106	2.675	-5.39765E-001	-1.41042E-004	0.00000E+000	-5.39982E-001	-5.39533E-001	8	...........
	107	2.7	-5.29565E-001	-1.30458E-004	0.00000E+000	-5.29983E-001	-5.29729E-001	8	...........
	108	2.725	-5.19565E-001	-1.20240E-004	0.00000E+000	-5.19984E-001	-5.19726E-001	8	...........
	109	2.75	-5.09565E-001	-1.10307E-004	0.00000E+000	-5.09986E-001	-5.09722E-001	8	...........
	110	2.775	-4.99765E-001	-1.00941E-004	0.00000E+000	-4.99987E-001	-4.99718E-001	8	...........
	111	2.8	-4.89765E-001	-9.14421E-005	0.00000E+000	-4.89988E-001	-4.89715E-001	8	...........
	112	2.825	-4.79765E-001	-8.24603E-005	0.00000E+000	-4.79989E-001	-4.79711E-001	8	...........
	113	2.85	-4.69765E-001	-7.32783E-005	0.00000E+000	-4.69991E-001	-4.69707E-001	8	...........
	114	2.875	-4.59565E-001	-6.47974E-005	0.00000E+000	-4.59992E-001	-4.59704E-001	8	...........
	115	2.9	-4.49765E-001	-5.69342E-005	0.00000E+000	-4.49993E-001	-4.49700E-001	8	...........
	116	2.925	-4.39765E-001	-4.97221E-005	0.00000E+000	-4.39994E-001	-4.39896E-001	8	...........
	117	2.95	-4.29565E-001	-4.15751E-005	0.00000E+000	-4.29996E-001	-4.29692E-001	8	...........
	118	2.975	-4.19765E-001	-3.34114E-005	0.00000E+000	-4.19997E-001	-4.19689E-001	8	...........
	119	3	-4.09765E-001	-2.61740E-005	0.00000E+000	-4.09998E-001	-4.09685E-001	7	...........
	120	3.025	-3.99765E-001	-1.85162E-005	0.00000E+000	-3.99999E-001	-3.99481E-001	7	...........
	121	3.05	-3.89765E-001	-1.18104E-005	0.00000E+000	-3.90001E-001	-3.89678E-001	7	...........
	122	3.075	-3.79965E-001	-4.99606E-006	0.00000E+000	-3.80002E-001	-3.79674E-001	7	...........
	123	3.1	-3.69765E-001	2.25922E-006	0.00000E+000	-3.70003E-001	-3.69670E-001	7	...........
	124	3.125	-3.59765E-001	9.08360E-006	0.00000E+000	-3.60005E-001	-3.59867E-001	7	...........
	125	3.15	-3.49765E-001	1.56808E-005	0.00000E+000	-3.50006E-001	-3.49663E-001	7	...........
	126	3.175	-3.39765E-001	2.20676E-005	0.00000E+000	-3.40007E-001	-3.39859E-001	7	...........
	127	3.2	-3.29765E-001	2.84477E-005	0.00000E+000	-3.30008E-001	-3.29856E-001	7	...........
	128	3.225	-3.19965E-001	3.46892E-005	0.00000E+000	-3.20010E-001	-3.19852E-001	7	...........
	129	3.25	-3.09965E-001	4.07420E-005	0.00000E+000	-3.10011E-001	-3.09848E-001	7	...........
	130	3.275	-2.99765E-001	4.66110E-005	0.00000E+000	-3.00012E-001	-3.00045E-001	7	...........
	131	3.3	-2.89965E-001	5.26830E-005	0.00000E+000	-2.90013E-001	-2.89841E-001	8	...........
	132	3.325	-2.79765E-001	5.82257E-005	0.00000E+000	-2.80015E-001	-2.79837E-001	8	...........
	133	3.35	-2.69965E-001	6.42525E-005	0.00000E+000	-2.70016E-001	-2.69833E-001	8	...........
	134	3.375	-2.59965E-001	6.93276E-005	0.00000E+000	-2.60017E-001	-2.60030E-001	8	...........
	135	3.4	-2.49765E-001	7.58886E-005	0.00000E+000	-2.50018E-001	-2.50026E-001	8	...........
	136	3.425	-2.39965E-001	8.10640E-005	0.00000E+000	-2.40020E-001	-2.39822E-001	8	...........
	137	3.45	-2.29965E-001	8.60724E-005	0.00000E+000	-2.30021E-001	-2.30019E-001	8	...........
	138	3.475	-2.19965E-001	9.15482E-005	0.00000E+000	-2.20022E-001	-2.20015E-001	8	...........
	139	3.5	-2.10165E-001	9.62061E-005	0.00000E+000	-2.10023E-001	-2.10211E-001	8	...........
	140	3.525	-1.99965E-001	1.01832E-004	0.00000E+000	-1.99975E-001	-1.99807E-001	8	...........
	141	3.55	-1.89965E-001	1.06841E-004	0.00000E+000	-1.89976E-001	-1.90004E-001	8	...........
	142	3.575	-1.80165E-001	1.11315E-004	0.00000E+000	-1.79977E-001	-1.80000E-001	8	...........
	143	3.6	-1.69965E-001	1.16290E-004	0.00000E+000	-1.69979E-001	-1.70197E-001	8	...........
	144	3.625	-1.60165E-001	1.21114E-004	0.00000E+000	-1.59980E-001	-1.59993E-001	8	...........
	145	3.65	-1.49965E-001	1.26273E-004	0.00000E+000	-1.49981E-001	-1.49989E-001	8	...........
	146	3.675	-1.39765E-001	1.30430E-004	0.00000E+000	-1.39982E-001	-1.39985E-001	8	...........
	147	3.7	-1.29965E-001	1.35722E-004	0.00000E+000	-1.29984E-001	-1.29982E-001	8	...........
	148	3.725	-1.20165E-001	1.39813E-004	0.00000E+000	-1.19985E-001	-1.19978E-001	8	...........
	149	3.75	-1.09965E-001	1.44187E-004	0.00000E+000	-1.09986E-001	-1.10174E-001	8	...........
	150	3.775	-9.99651E-002	1.48761E-004	0.00000E+000	-9.99874E-002	-9.99706E-002	8	...........
	151	3.8	-8.97651E-002	1.53285E-004	0.00000E+000	-8.99886E-002	-9.01669E-002	8	...........
	152	3.825	-8.01651E-002	1.59228E-004	0.00000E+000	-7.99899E-002	-7.99632E-002	8	...........
	153	3.85	-6.99651E-002	1.63719E-004	0.00000E+000	-6.99912E-002	-6.99595E-002	8	...........
	154	3.875	-6.01651E-002	1.68027E-004	0.00000E+000	-5.99924E-002	-5.99558E-002	8	...........
	155	3.9	-4.99651E-002	1.73002E-004	0.00000E+000	-4.99937E-002	-4.99521E-002	8	...........
	156	3.925	-4.01651E-002	1.77392E-004	0.00000E+000	-3.99949E-002	-4.01484E-002	8	...........
	157	3.95	-3.01651E-002	1.81716E-004	0.00000E+000	-2.99962E-002	-3.01447E-002	8	...........
	158	3.975	-1.99651E-002	1.86942E-004	0.00000E+000	-1.99975E-002	-2.01410E-002	8	...........
	159	4	-1.01651E-002	1.91783E-004	0.00000E+000	-9.99874E-003	-1.01373E-002	8	...........
	160	4.025	3.48799E-005	1.96124E-004	0.00000E+000	0.00000E+000	-1.33649E-004	8	...........
	161	4.05	9.83488E-003	2.01149E-004	0.00000E+000	9.99874E-003	9.66997E-003	8	...........
	162	4.075	1.98349E-002	2.06408E-004	0.00000E+000	1.99975E-002	1.98737E-002	8	...........
	163	4.1	2.98349E-002	2.11333E-004	0.00000E+000	2.99962E-002	2.98774E-002	8	...........
	164	4.125	4.00349E-002	2.15974E-004	0.00000E+000	3.99949E-002	3.98811E-002	8	...........
	165	4.15	4.98349E-002	2.20715E-004	0.00000E+000	4.99937E-002	4.98848E-002	8	...........
	166	4.175	5.98349E-002	2.27009E-004	0.00000E+000	5.99924E-002	5.98885E-002	8	...........
	167	4.2	6.98349E-002	2.31299E-004	0.00000E+000	6.99912E-002	6.96922E-002	8	...........
	168	4.225	8.00349E-002	2.37159E-004	0.00000E+000	7.99899E-002	7.98959E-002	8	...........
	169	4.25	8.98349E-002	2.41116E-004	0.00000E+000	8.99886E-002	8.98996E-002	8	...........
	170	4.275	9.98349E-002	2.46575E-004	0.00000E+000	9.99874E-002	9.97033E-002	8	...........
	171	4.3	1.09835E-001	2.52151E-004	0.00000E+000	1.09986E-001	1.09707E-001	8	...........
	172	4.325	1.19835E-001	2.58395E-004	0.00000E+000	1.19985E-001	1.19711E-001	8	...........
	173	4.35	1.29835E-001	2.63687E-004	0.00000E+000	1.29984E-001	1.29714E-001	8	...........
	174	4.375	1.39835E-001	2.69564E-004	0.00000E+000	1.39982E-001	1.39718E-001	8	...........
	175	4.4	1.49635E-001	2.75106E-004	0.00000E+000	1.49981E-001	1.49722E-001	8	...........
	176	4.425	1.59835E-001	2.80465E-004	0.00000E+000	1.59980E-001	1.59725E-001	8	...........
	177	4.45	1.69835E-001	2.87009E-004	0.00000E+000	1.69979E-001	1.69929E-001	8	...........
	178	4.475	1.79635E-001	2.93253E-004	0.00000E+000	1.79977E-001	1.79733E-001	8	...........
	179	4.5	1.89835E-001	2.99948E-004	0.00000E+000	1.89976E-001	1.89536E-001	8	...........
	180	4.525	1.99635E-001	3.06425E-004	0.00000E+000	1.99975E-001	1.99340E-001	8	...........
	181	4.55	2.09835E-001	3.13437E-004	0.00000E+000	2.10023E-001	2.09944E-001	8	...........
	182	4.575	2.19635E-001	3.19748E-004	0.00000E+000	2.20022E-001	2.19548E-001	8	...........
	183	4.6	2.29635E-001	3.26993E-004	0.00000E+000	2.30021E-001	2.29751E-001	8	...........
	184	4.625	2.39835E-001	3.34506E-004	0.00000E+000	2.40020E-001	2.39755E-001	8	...........
	185	4.65	2.49835E-001	3.41234E-004	0.00000E+000	2.50018E-001	2.49759E-001	8	...........
	186	4.675	2.59635E-001	3.48613E-004	0.00000E+000	2.60017E-001	2.59762E-001	8	...........
	187	4.7	2.69835E-001	3.55424E-004	0.00000E+000	2.70016E-001	2.69766E-001	8	...........
	188	4.725	2.79635E-001	3.62887E-004	0.00000E+000	2.80015E-001	2.79570E-001	8	...........
	189	4.75	2.89835E-001	3.70800E-004	0.00000E+000	2.90013E-001	2.89573E-001	8	...........
	190	4.775	2.99835E-001	3.77712E-004	0.00000E+000	3.00012E-001	2.99777E-001	8	...........
	191	4.8	3.09635E-001	3.85825E-004	0.00000E+000	3.10011E-001	3.09581E-001	8	...........
	192	4.825	3.19435E-001	3.92770E-004	0.00000E+000	3.20010E-001	3.19585E-001	8	...........
	193	4.85	3.29435E-001	4.00517E-004	0.00000E+000	3.30008E-001	3.29588E-001	8	...........
	194	4.875	3.39435E-001	4.07245E-004	0.00000E+000	3.40007E-001	3.39592E-001	8	...........
	195	4.9	3.49435E-001	4.15291E-004	0.00000E+000	3.50006E-001	3.49596E-001	8	...........
	196	4.925	3.59635E-001	4.21535E-004	0.00000E+000	3.60005E-001	3.59599E-001	8	...........
	197	4.95	3.69435E-001	4.29181E-004	0.00000E+000	3.70003E-001	3.69603E-001	8	...........
	198	4.975	3.79435E-001	4.36694E-004	0.00000E+000	3.80002E-001	3.79407E-001	8	...........
	199	5	3.89635E-001	4.42704E-004	0.00000E+000	3.90001E-001	3.89410E-001	8	...........
	200	5.025	3.99835E-001	4.49916E-004	0.00000E+000	3.99999E-001	3.99414E-001	8	...........
	201	5.05	4.09435E-001	4.57543E-004	0.00000E+000	4.09998E-001	4.09618E-001	9	...........
	202	5.075	4.19835E-001	4.64211E-004	0.00000E+000	4.19997E-001	4.19421E-001	9	...........
	203	5.1	4.29635E-001	4.71212E-004	0.00000E+000	4.29996E-001	4.29625E-001	9	...........
	204	5.125	4.39635E-001	4.77880E-004	0.00000E+000	4.39994E-001	4.39629E-001	9	...........
	205	5.15	4.49635E-001	4.85048E-004	0.00000E+000	4.49993E-001	4.49633E-001	9	...........
	206	5.175	4.59435E-001	4.91550E-004	0.00000E+000	4.59992E-001	4.59436E-001	9	...........
	207	5.2	4.69635E-001	4.98718E-004	0.00000E+000	4.69991E-001	4.69440E-001	9	...........
	208	5.225	4.79435E-001	5.04886E-004	0.00000E+000	4.79989E-001	4.79444E-001	9	...........
	209	5.25	4.89435E-001	5.12054E-004	0.00000E+000	4.89988E-001	4.89447E-001	9	...........
	210	5.275	4.99635E-001	5.19056E-004	0.00000E+000	4.99987E-001	4.99451E-001	9	...........
	211	5.3	5.09435E-001	5.25890E-004	0.00000E+000	5.09986E-001	5.09255E-001	9	...........
	212	5.325	5.19635E-001	5.33059E-004	0.00000E+000	5.19984E-001	5.19458E-001	9	...........
	213	5.35	5.29435E-001	5.39893E-004	0.00000E+000	5.29983E-001	5.29462E-001	9	...........
	214	5.375	5.39435E-001	5.47395E-004	0.00000E+000	5.39982E-001	5.39466E-001	9	...........
	215	5.4	5.49435E-001	5.54396E-004	0.00000E+000	5.49981E-001	5.49269E-001	9	...........
	216	5.425	5.59635E-001	5.62231E-004	0.00000E+000	5.59979E-001	5.59473E-001	9	...........
	217	5.45	5.69435E-001	5.69400E-004	0.00000E+000	5.69978E-001	5.69477E-001	9	...........
	218	5.475	5.79435E-001	5.76568E-004	0.00000E+000	5.79977E-001	5.79280E-001	9	...........
	219	5.5	5.89435E-001	5.83903E-004	0.00000E+000	5.89975E-001	5.89284E-001	9	...........
	220	5.525	5.99435E-001	5.91571E-004	0.00000E+000	5.99974E-001	5.99488E-001	9	...........
	221	5.55	6.09435E-001	6.00073E-004	0.00000E+000	6.10023E-001	6.09492E-001	9	...........
	222	5.575	6.19635E-001	6.07574E-004	0.00000E+000	6.20022E-001	6.19495E-001	9	...........
	223	5.6	6.29635E-001	6.15909E-004	0.00000E+000	6.30020E-001	6.29299E-001	9	...........
	224	5.625	6.39435E-001	6.23911E-004	0.00000E+000	6.40019E-001	6.39303E-001	9	...........
	225	5.65	6.49435E-001	6.32246E-004	0.00000E+000	6.50018E-001	6.49306E-001	9	...........
	226	5.675	6.59435E-001	6.40915E-004	0.00000E+000	6.60017E-001	6.59310E-001	9	...........
	227	5.7	6.69435E-001	6.49416E-004	0.00000E+000	6.70015E-001	6.69314E-001	9	...........
	228	5.725	6.79635E-001	6.58418E-004	0.00000E+000	6.80014E-001	6.79318E-001	9	...........
	229	5.75	6.89235E-001	6.67920E-004	0.00000E+000	6.90013E-001	6.89321E-001	9	...........
	230	5.775	6.99235E-001	6.76589E-004	0.00000E+000	7.00012E-001	6.99525E-001	9	...........
	231	5.8	7.09235E-001	6.86591E-004	0.00000E+000	7.10010E-001	7.09329E-001	9	...........
	232	5.825	7.19435E-001	6.95093E-004	0.00000E+000	7.20009E-001	7.19132E-001	9	...........
	233	5.85	7.29435E-001	7.05095E-004	0.00000E+000	7.30008E-001	7.29336E-001	9	...........
	234	5.875	7.39435E-001	7.15097E-004	0.00000E+000	7.40007E-001	7.39340E-001	9	...........
	235	5.9	7.49435E-001	7.25599E-004	0.00000E+000	7.50005E-001	7.49343E-001	9	...........
	236	5.925	7.59435E-001	7.35601E-004	0.00000E+000	7.60004E-001	7.59347E-001	9	...........
	237	5.95	7.69435E-001	7.46437E-004	0.00000E+000	7.70003E-001	7.69151E-001	9	...........
	238	5.975	7.79435E-001	7.57106E-004	0.00000E+000	7.80001E-001	7.79354E-001	9	...........
	239	6	7.89435E-001	7.68108E-004	0.00000E+000	7.90000E-001	7.89358E-001	9	...........
	240	6.025	7.99235E-001	7.79110E-004	0.00000E+000	7.99999E-001	7.99362E-001	9	...........
CURVE2	TABLE
	Pt	T	Vf	Im	Vu	Sig	Ach	IERange	Over
	#	s	V vs. Ref.	A	V	V	V	#	bits
	241	6.05	7.89435E-001	7.10929E-004	0.00000E+000	7.90000E-001	7.89358E-001	9	...........
	242	6.075	7.79235E-001	6.58752E-004	0.00000E+000	7.80001E-001	7.79354E-001	9	...........
	243	6.1	7.69435E-001	6.14576E-004	0.00000E+000	7.70003E-001	7.69351E-001	9	...........
	244	6.125	7.59435E-001	5.75401E-004	0.00000E+000	7.60004E-001	7.59347E-001	9	...........
	245	6.15	7.49435E-001	5.39060E-004	0.00000E+000	7.50005E-001	7.49343E-001	9	...........
	246	6.175	7.39435E-001	5.06386E-004	0.00000E+000	7.40007E-001	7.39140E-001	9	...........
	247	6.2	7.29435E-001	4.76547E-004	0.00000E+000	7.30008E-001	7.29136E-001	9	...........
	248	6.225	7.19435E-001	4.49041E-004	0.00000E+000	7.20009E-001	7.19332E-001	9	...........
	249	6.25	7.09635E-001	4.21702E-004	0.00000E+000	7.10010E-001	7.09329E-001	9	...........
	250	6.275	6.99435E-001	3.97697E-004	0.00000E+000	7.00012E-001	6.99125E-001	9	...........
	251	6.3	6.89435E-001	3.74323E-004	0.00000E+000	6.90013E-001	6.89321E-001	8	...........
	252	6.325	6.79435E-001	3.51601E-004	0.00000E+000	6.80014E-001	6.79518E-001	8	...........
	253	6.35	6.69435E-001	3.31334E-004	0.00000E+000	6.70015E-001	6.69314E-001	8	...........
	254	6.375	6.59435E-001	3.11918E-004	0.00000E+000	6.60017E-001	6.59510E-001	8	...........
	255	6.4	6.49435E-001	2.92519E-004	0.00000E+000	6.50018E-001	6.49507E-001	8	...........
	256	6.425	6.39435E-001	2.74605E-004	0.00000E+000	6.40019E-001	6.39303E-001	8	...........
	257	6.45	6.29635E-001	2.57760E-004	0.00000E+000	6.30020E-001	6.29299E-001	8	...........
	258	6.475	6.19435E-001	2.40865E-004	0.00000E+000	6.20022E-001	6.19295E-001	8	...........
	259	6.5	6.09435E-001	2.25590E-004	0.00000E+000	6.10023E-001	6.09492E-001	8	...........
	260	6.525	5.99435E-001	2.10164E-004	0.00000E+000	6.00024E-001	5.99288E-001	8	...........
	261	6.55	5.89435E-001	1.95940E-004	0.00000E+000	5.89975E-001	5.89484E-001	8	...........
	262	6.575	5.79435E-001	1.82484E-004	0.00000E+000	5.79977E-001	5.79481E-001	8	...........
	263	6.6	5.69635E-001	1.69345E-004	0.00000E+000	5.69978E-001	5.69477E-001	8	...........
	264	6.625	5.59435E-001	1.56140E-004	0.00000E+000	5.59979E-001	5.59273E-001	8	...........
	265	6.65	5.49435E-001	1.43786E-004	0.00000E+000	5.49981E-001	5.49269E-001	8	...........
	266	6.675	5.39435E-001	1.31582E-004	0.00000E+000	5.39982E-001	5.39266E-001	8	...........
	267	6.7	5.29435E-001	1.20263E-004	0.00000E+000	5.29983E-001	5.29462E-001	8	...........
	268	6.725	5.19635E-001	1.08844E-004	0.00000E+000	5.19984E-001	5.19659E-001	8	...........
	269	6.75	5.09835E-001	9.87937E-005	0.00000E+000	5.09986E-001	5.09455E-001	8	...........
	270	6.775	4.99635E-001	8.71075E-005	0.00000E+000	4.99987E-001	4.99451E-001	8	...........
	271	6.8	4.89635E-001	7.73745E-005	0.00000E+000	4.89988E-001	4.89447E-001	8	...........
	272	6.825	4.79435E-001	6.76582E-005	0.00000E+000	4.79989E-001	4.79644E-001	8	...........
	273	6.85	4.69635E-001	5.89602E-005	0.00000E+000	4.69991E-001	4.69640E-001	8	...........
	274	6.875	4.59635E-001	4.85428E-005	0.00000E+000	4.59992E-001	4.59436E-001	8	...........
	275	6.9	4.49635E-001	4.05627E-005	0.00000E+000	4.49993E-001	4.49633E-001	8	...........
	276	6.925	4.39635E-001	3.16144E-005	0.00000E+000	4.39994E-001	4.39429E-001	8	...........
	277	6.95	4.29435E-001	2.28893E-005	0.00000E+000	4.29996E-001	4.29425E-001	7	...........
	278	6.975	4.19635E-001	1.45267E-005	0.00000E+000	4.19997E-001	4.19621E-001	7	...........
	279	7	4.09635E-001	6.56162E-006	0.00000E+000	4.09998E-001	4.09618E-001	7	...........
	280	7.025	3.99635E-001	-1.43522E-006	0.00000E+000	3.99999E-001	3.99414E-001	7	...........
	281	7.05	3.89635E-001	-8.69051E-006	0.00000E+000	3.90001E-001	3.89610E-001	7	...........
	282	7.075	3.79635E-001	-1.64118E-005	0.00000E+000	3.80002E-001	3.79607E-001	7	...........
	283	7.1	3.69635E-001	-2.33046E-005	0.00000E+000	3.70003E-001	3.69603E-001	7	...........
	284	7.125	3.59635E-001	-3.05816E-005	0.00000E+000	3.60005E-001	3.59599E-001	7	...........
	285	7.15	3.49635E-001	-3.74411E-005	0.00000E+000	3.50006E-001	3.49796E-001	7	...........
	286	7.175	3.39635E-001	-4.44909E-005	0.00000E+000	3.40007E-001	3.39792E-001	7	...........
	287	7.2	3.29635E-001	-5.08740E-005	0.00000E+000	3.30008E-001	3.29588E-001	8	...........
	288	7.225	3.19635E-001	-5.66671E-005	0.00000E+000	3.20010E-001	3.19585E-001	8	...........
	289	7.25	3.09835E-001	-6.28608E-005	0.00000E+000	3.10011E-001	3.09781E-001	8	...........
	290	7.275	2.99835E-001	-6.97557E-005	0.00000E+000	3.00012E-001	2.99777E-001	8	...........
	291	7.3	2.89635E-001	-7.55487E-005	0.00000E+000	2.90013E-001	2.89774E-001	8	...........
	292	7.325	2.79635E-001	-8.18259E-005	0.00000E+000	2.80015E-001	2.79770E-001	8	...........
	293	7.35	2.69835E-001	-8.76524E-005	0.00000E+000	2.70016E-001	2.69766E-001	8	...........
	294	7.375	2.59835E-001	-9.37960E-005	0.00000E+000	2.60017E-001	2.59762E-001	8	...........
	295	7.4	2.49835E-001	-9.87209E-005	0.00000E+000	2.50018E-001	2.49559E-001	8	...........
	296	7.425	2.39835E-001	-1.04113E-004	0.00000E+000	2.40020E-001	2.39755E-001	8	...........
	297	7.45	2.29635E-001	-1.10324E-004	0.00000E+000	2.30021E-001	2.29751E-001	8	...........
	298	7.475	2.19835E-001	-1.16083E-004	0.00000E+000	2.20022E-001	2.19748E-001	8	...........
	299	7.5	2.09835E-001	-1.21593E-004	0.00000E+000	2.10023E-001	2.09944E-001	8	...........
	300	7.525	1.99835E-001	-1.25917E-004	0.00000E+000	2.00025E-001	1.99740E-001	8	...........
	301	7.55	1.89835E-001	-1.31543E-004	0.00000E+000	1.90026E-001	1.89737E-001	8	...........
	302	7.575	1.79835E-001	-1.36868E-004	0.00000E+000	1.79977E-001	1.79533E-001	8	...........
	303	7.6	1.70035E-001	-1.42244E-004	0.00000E+000	1.69979E-001	1.69729E-001	8	...........
	304	7.625	1.59835E-001	-1.47536E-004	0.00000E+000	1.59980E-001	1.59725E-001	8	...........
	305	7.65	1.49835E-001	-1.53112E-004	0.00000E+000	1.49981E-001	1.49722E-001	8	...........
	306	7.675	1.39835E-001	-1.57419E-004	0.00000E+000	1.39982E-001	1.39718E-001	8	...........
	307	7.7	1.29835E-001	-1.62962E-004	0.00000E+000	1.29984E-001	1.29714E-001	8	...........
	308	7.725	1.19835E-001	-1.68204E-004	0.00000E+000	1.19985E-001	1.19711E-001	8	...........
	309	7.75	1.09835E-001	-1.72194E-004	0.00000E+000	1.09986E-001	1.09707E-001	8	...........
	310	7.775	9.98349E-002	-1.78021E-004	0.00000E+000	9.99874E-002	9.97033E-002	8	...........
	311	7.8	8.98349E-002	-1.82528E-004	0.00000E+000	8.99886E-002	8.98996E-002	8	...........
	312	7.825	8.00349E-002	-1.87787E-004	0.00000E+000	7.99899E-002	7.98959E-002	8	...........
	313	7.85	6.98349E-002	-1.91694E-004	0.00000E+000	6.99912E-002	6.96922E-002	8	...........
	314	7.875	5.96349E-002	-1.96418E-004	0.00000E+000	5.99924E-002	5.96885E-002	8	...........
	315	7.9	5.00349E-002	-2.01093E-004	0.00000E+000	4.99937E-002	4.94847E-002	8	...........
	316	7.925	4.00349E-002	-2.05968E-004	0.00000E+000	3.99949E-002	3.96811E-002	8	...........
	317	7.95	2.98349E-002	-2.09690E-004	0.00000E+000	2.99962E-002	2.98774E-002	8	...........
	318	7.975	1.98349E-002	-2.15517E-004	0.00000E+000	1.99975E-002	1.98737E-002	8	...........
	319	8	9.83488E-003	-2.19540E-004	0.00000E+000	9.99874E-003	9.66997E-003	8	...........
	320	8.025	-1.65120E-004	-2.23230E-004	0.00000E+000	0.00000E+000	-1.33649E-004	8	...........
	321	8.05	-9.96512E-003	-2.27787E-004	0.00000E+000	-9.99874E-003	-1.01373E-002	8	...........
	322	8.075	-2.01651E-002	-2.32095E-004	0.00000E+000	-1.99975E-002	-2.01410E-002	8	...........
	323	8.1	-2.99651E-002	-2.35784E-004	0.00000E+000	-2.99962E-002	-3.01447E-002	8	...........
	324	8.125	-3.99651E-002	-2.40659E-004	0.00000E+000	-3.99949E-002	-4.01484E-002	8	...........
	325	8.15	-4.99651E-002	-2.45150E-004	0.00000E+000	-4.99937E-002	-4.99521E-002	8	...........
	326	8.175	-5.99651E-002	-2.48522E-004	0.00000E+000	-5.99924E-002	-5.99558E-002	8	...........
	327	8.2	-7.01651E-002	-2.53347E-004	0.00000E+000	-6.99912E-002	-6.99595E-002	8	...........
	328	8.225	-7.99651E-002	-2.57370E-004	0.00000E+000	-7.99899E-002	-7.99632E-002	8	...........
	329	8.25	-8.99651E-002	-2.62128E-004	0.00000E+000	-8.99886E-002	-8.99668E-002	8	...........
	330	8.275	-9.99651E-002	-2.66202E-004	0.00000E+000	-9.99874E-002	-1.00171E-001	8	...........
	331	8.3	-1.09965E-001	-2.70392E-004	0.00000E+000	-1.09986E-001	-1.09974E-001	8	...........
	332	8.325	-1.19965E-001	-2.74950E-004	0.00000E+000	-1.19985E-001	-1.19978E-001	8	...........
	333	8.35	-1.30165E-001	-2.79741E-004	0.00000E+000	-1.29984E-001	-1.29782E-001	8	...........
	334	8.375	-1.39965E-001	-2.83381E-004	0.00000E+000	-1.39982E-001	-1.39985E-001	8	...........
	335	8.4	-1.49965E-001	-2.88222E-004	0.00000E+000	-1.49981E-001	-1.49989E-001	8	...........
	336	8.425	-1.59965E-001	-2.93180E-004	0.00000E+000	-1.59980E-001	-1.59993E-001	8	...........
	337	8.45	-1.69965E-001	-2.97788E-004	0.00000E+000	-1.69979E-001	-1.69996E-001	8	...........
	338	8.475	-1.79765E-001	-3.03281E-004	0.00000E+000	-1.79977E-001	-1.80000E-001	8	...........
	339	8.5	-1.89965E-001	-3.09374E-004	0.00000E+000	-1.89976E-001	-1.90004E-001	8	...........
	340	8.525	-1.99765E-001	-3.13164E-004	0.00000E+000	-1.99975E-001	-1.99807E-001	8	...........
	341	8.55	-2.09965E-001	-3.18974E-004	0.00000E+000	-2.09973E-001	-2.10011E-001	8	...........
	342	8.575	-2.20165E-001	-3.24834E-004	0.00000E+000	-2.20022E-001	-2.20015E-001	8	...........
	343	8.6	-2.29965E-001	-3.29909E-004	0.00000E+000	-2.30021E-001	-2.30019E-001	8	...........
	344	8.625	-2.39765E-001	-3.36002E-004	0.00000E+000	-2.40020E-001	-2.39822E-001	8	...........
	345	8.65	-2.49965E-001	-3.42046E-004	0.00000E+000	-2.50018E-001	-2.50026E-001	8	...........
	346	8.675	-2.60165E-001	-3.48123E-004	0.00000E+000	-2.60017E-001	-2.59830E-001	8	...........
	347	8.7	-2.69765E-001	-3.54166E-004	0.00000E+000	-2.70016E-001	-2.69833E-001	8	...........
	348	8.725	-2.79965E-001	-3.60377E-004	0.00000E+000	-2.80015E-001	-2.80037E-001	8	...........
	349	8.75	-2.89965E-001	-3.66236E-004	0.00000E+000	-2.90013E-001	-2.89841E-001	8	...........
	350	8.775	-2.99965E-001	-3.72547E-004	0.00000E+000	-3.00012E-001	-3.00045E-001	8	...........
	351	8.8	-3.09965E-001	-3.78807E-004	0.00000E+000	-3.10011E-001	-3.10048E-001	8	...........
	352	8.825	-3.19765E-001	-3.86103E-004	0.00000E+000	-3.20010E-001	-3.20052E-001	8	...........
	353	8.85	-3.29765E-001	-3.91929E-004	0.00000E+000	-3.30008E-001	-3.30056E-001	8	...........
	354	8.875	-3.39765E-001	-3.98090E-004	0.00000E+000	-3.40007E-001	-3.39859E-001	8	...........
	355	8.9	-3.49965E-001	-4.04567E-004	0.00000E+000	-3.50006E-001	-3.49863E-001	8	...........
	356	8.925	-3.59965E-001	-4.11095E-004	0.00000E+000	-3.60005E-001	-3.59867E-001	8	...........
	357	8.95	-3.69965E-001	-4.17940E-004	0.00000E+000	-3.70003E-001	-3.69670E-001	8	...........
	358	8.975	-3.79565E-001	-4.23916E-004	0.00000E+000	-3.80002E-001	-3.79874E-001	8	...........
	359	9	-3.89765E-001	-4.30260E-004	0.00000E+000	-3.90001E-001	-3.89878E-001	8	...........
	360	9.025	-3.99765E-001	-4.37456E-004	0.00000E+000	-3.99999E-001	-3.99681E-001	8	...........
	361	9.05	-4.09765E-001	-4.43883E-004	0.00000E+000	-4.09998E-001	-4.09685E-001	8	...........
	362	9.075	-4.19965E-001	-4.50928E-004	0.00000E+000	-4.19997E-001	-4.19889E-001	8	...........
	363	9.1	-4.29765E-001	-4.57650E-004	0.00000E+000	-4.29996E-001	-4.29893E-001	9	...........
	364	9.125	-4.39765E-001	-4.64318E-004	0.00000E+000	-4.39994E-001	-4.39696E-001	9	...........
	365	9.15	-4.49565E-001	-4.70819E-004	0.00000E+000	-4.49993E-001	-4.49700E-001	9	...........
	366	9.175	-4.59765E-001	-4.77154E-004	0.00000E+000	-4.59992E-001	-4.59503E-001	9	...........
	367	9.2	-4.69765E-001	-4.84822E-004	0.00000E+000	-4.69991E-001	-4.69907E-001	9	...........
	368	9.225	-4.79565E-001	-4.90990E-004	0.00000E+000	-4.79989E-001	-4.79511E-001	9	...........
	369	9.25	-4.89765E-001	-4.97825E-004	0.00000E+000	-4.89988E-001	-4.89715E-001	9	...........
	370	9.275	-4.99565E-001	-5.05160E-004	0.00000E+000	-4.99987E-001	-4.99718E-001	9	...........
	371	9.3	-5.09765E-001	-5.11494E-004	0.00000E+000	-5.09986E-001	-5.09722E-001	9	...........
	372	9.325	-5.19765E-001	-5.18496E-004	0.00000E+000	-5.19984E-001	-5.19726E-001	9	...........
	373	9.35	-5.29565E-001	-5.25497E-004	0.00000E+000	-5.29983E-001	-5.29529E-001	9	...........
	374	9.375	-5.39565E-001	-5.31998E-004	0.00000E+000	-5.39982E-001	-5.39733E-001	9	...........
	375	9.4	-5.49565E-001	-5.39167E-004	0.00000E+000	-5.49981E-001	-5.49537E-001	9	...........
	376	9.425	-5.59765E-001	-5.46502E-004	0.00000E+000	-5.59979E-001	-5.59741E-001	9	...........
	377	9.45	-5.69565E-001	-5.53503E-004	0.00000E+000	-5.69978E-001	-5.69544E-001	9	...........
	378	9.475	-5.79565E-001	-5.60838E-004	0.00000E+000	-5.79977E-001	-5.79548E-001	9	...........
	379	9.5	-5.89565E-001	-5.67839E-004	0.00000E+000	-5.89975E-001	-5.89552E-001	9	...........
	380	9.525	-5.99565E-001	-5.75508E-004	0.00000E+000	-5.99974E-001	-5.99555E-001	9	...........
	381	9.55	-6.09365E-001	-5.84009E-004	0.00000E+000	-6.09973E-001	-6.09759E-001	9	...........
	382	9.575	-6.19765E-001	-5.91178E-004	0.00000E+000	-6.20022E-001	-6.19563E-001	9	...........
	383	9.6	-6.29565E-001	-5.99513E-004	0.00000E+000	-6.30020E-001	-6.29766E-001	9	...........
	384	9.625	-6.39765E-001	-6.07014E-004	0.00000E+000	-6.40019E-001	-6.39570E-001	9	...........
	385	9.65	-6.49565E-001	-6.15183E-004	0.00000E+000	-6.50018E-001	-6.49774E-001	9	...........
	386	9.675	-6.59565E-001	-6.23184E-004	0.00000E+000	-6.60017E-001	-6.59577E-001	9	...........
	387	9.7	-6.69565E-001	-6.32353E-004	0.00000E+000	-6.70015E-001	-6.69581E-001	9	...........
	388	9.725	-6.79565E-001	-6.40188E-004	0.00000E+000	-6.80014E-001	-6.79785E-001	9	...........
	389	9.75	-6.89765E-001	-6.49857E-004	0.00000E+000	-6.90013E-001	-6.89588E-001	9	...........
	390	9.775	-6.99765E-001	-6.59025E-004	0.00000E+000	-7.00012E-001	-6.99392E-001	9	...........
	391	9.8	-7.09565E-001	-6.67860E-004	0.00000E+000	-7.10010E-001	-7.09396E-001	9	...........
	392	9.825	-7.19565E-001	-6.77529E-004	0.00000E+000	-7.20009E-001	-7.19400E-001	9	...........
	393	9.85	-7.29565E-001	-6.87031E-004	0.00000E+000	-7.30008E-001	-7.29603E-001	9	...........
	394	9.875	-7.39565E-001	-6.97200E-004	0.00000E+000	-7.40007E-001	-7.39607E-001	9	...........
	395	9.9	-7.49565E-001	-7.07535E-004	0.00000E+000	-7.50005E-001	-7.49411E-001	9	...........
	396	9.925	-7.59565E-001	-7.18371E-004	0.00000E+000	-7.60004E-001	-7.59414E-001	9	...........
	397	9.95	-7.69565E-001	-7.29040E-004	0.00000E+000	-7.70003E-001	-7.69618E-001	9	...........
	398	9.975	-7.79365E-001	-7.40876E-004	0.00000E+000	-7.80001E-001	-7.79422E-001	9	...........
	399	10	-7.89565E-001	-7.52545E-004	0.00000E+000	-7.90000E-001	-7.89425E-001	9	...........
	400	10.025	-7.99365E-001	-7.63380E-004	0.00000E+000	-7.99999E-001	-7.99429E-001	9	...........
	401	10.05	-7.89565E-001	-6.91365E-004	0.00000E+000	-7.90000E-001	-7.89425E-001	9	...........
	402	10.075	-7.79365E-001	-6.36520E-004	0.00000E+000	-7.80001E-001	-7.79422E-001	9	...........
	403	10.1	-7.69565E-001	-5.91344E-004	0.00000E+000	-7.70003E-001	-7.69618E-001	9	...........
	404	10.125	-7.59565E-001	-5.51836E-004	0.00000E+000	-7.60004E-001	-7.59414E-001	9	...........
	405	10.15	-7.49765E-001	-5.15995E-004	0.00000E+000	-7.50005E-001	-7.49411E-001	9	...........
	406	10.175	-7.39765E-001	-4.84655E-004	0.00000E+000	-7.40007E-001	-7.39407E-001	9	...........
	407	10.2	-7.29565E-001	-4.55149E-004	0.00000E+000	-7.30008E-001	-7.29403E-001	9	...........
	408	10.225	-7.19565E-001	-4.28643E-004	0.00000E+000	-7.20009E-001	-7.19600E-001	9	...........
	409	10.25	-7.09765E-001	-4.03638E-004	0.00000E+000	-7.10010E-001	-7.09596E-001	9	...........
	410	10.275	-6.99565E-001	-3.80060E-004	0.00000E+000	-7.00012E-001	-6.99592E-001	8	...........
	411	10.3	-6.89765E-001	-3.58423E-004	0.00000E+000	-6.90013E-001	-6.89588E-001	8	...........
	412	10.325	-6.79565E-001	-3.37855E-004	0.00000E+000	-6.80014E-001	-6.79585E-001	8	...........
	413	10.35	-6.69565E-001	-3.17939E-004	0.00000E+000	-6.70015E-001	-6.69381E-001	8	...........
	414	10.375	-6.59565E-001	-3.00626E-004	0.00000E+000	-6.60017E-001	-6.59577E-001	8	...........
	415	10.4	-6.49565E-001	-2.83464E-004	0.00000E+000	-6.50018E-001	-6.49574E-001	8	...........
	416	10.425	-6.39565E-001	-2.67037E-004	0.00000E+000	-6.40019E-001	-6.39570E-001	8	...........
	417	10.45	-6.29765E-001	-2.50409E-004	0.00000E+000	-6.30020E-001	-6.29766E-001	8	...........
	418	10.475	-6.19565E-001	-2.35834E-004	0.00000E+000	-6.20022E-001	-6.19763E-001	8	...........
	419	10.5	-6.09765E-001	-2.21093E-004	0.00000E+000	-6.09973E-001	-6.09559E-001	8	...........
	420	10.525	-5.99765E-001	-2.07988E-004	0.00000E+000	-5.99974E-001	-5.99555E-001	8	...........
	421	10.55	-5.89565E-001	-1.94866E-004	0.00000E+000	-5.89975E-001	-5.89552E-001	8	...........
	422	10.575	-5.79765E-001	-1.82512E-004	0.00000E+000	-5.79977E-001	-5.79548E-001	8	...........
	423	10.6	-5.69765E-001	-1.70291E-004	0.00000E+000	-5.69978E-001	-5.69544E-001	8	...........
	424	10.625	-5.59565E-001	-1.57837E-004	0.00000E+000	-5.59979E-001	-5.59540E-001	8	...........
	425	10.65	-5.49565E-001	-1.47252E-004	0.00000E+000	-5.49981E-001	-5.49737E-001	8	...........
	426	10.675	-5.39765E-001	-1.36501E-004	0.00000E+000	-5.39982E-001	-5.39733E-001	8	...........
	427	10.7	-5.29765E-001	-1.25683E-004	0.00000E+000	-5.29983E-001	-5.29529E-001	8	...........
	428	10.725	-5.19565E-001	-1.15482E-004	0.00000E+000	-5.19984E-001	-5.19726E-001	8	...........
	429	10.75	-5.09565E-001	-1.05666E-004	0.00000E+000	-5.09986E-001	-5.09722E-001	8	...........
	430	10.775	-4.99565E-001	-9.67176E-005	0.00000E+000	-4.99987E-001	-4.99718E-001	8	...........
	431	10.8	-4.89765E-001	-8.67008E-005	0.00000E+000	-4.89988E-001	-4.89715E-001	8	...........
	432	10.825	-4.79765E-001	-7.89712E-005	0.00000E+000	-4.79989E-001	-4.79711E-001	8	...........
	433	10.85	-4.69765E-001	-6.92882E-005	0.00000E+000	-4.69991E-001	-4.69707E-001	8	...........
	434	10.875	-4.59765E-001	-6.02063E-005	0.00000E+000	-4.59992E-001	-4.59904E-001	8	...........
	435	10.9	-4.49765E-001	-5.32113E-005	0.00000E+000	-4.49993E-001	-4.49900E-001	8	...........
	436	10.925	-4.39765E-001	-4.52479E-005	0.00000E+000	-4.39994E-001	-4.39896E-001	8	...........
	437	10.95	-4.29965E-001	-3.75016E-005	0.00000E+000	-4.29996E-001	-4.29692E-001	8	...........
	438	10.975	-4.19565E-001	-2.98885E-005	0.00000E+000	-4.19997E-001	-4.19689E-001	7	...........
	439	11	-4.09765E-001	-2.24311E-005	0.00000E+000	-4.09998E-001	-4.09885E-001	7	...........
	440	11.025	-3.99765E-001	-1.53763E-005	0.00000E+000	-3.99999E-001	-3.99881E-001	7	...........
	441	11.05	-3.89765E-001	-8.48006E-006	0.00000E+000	-3.90001E-001	-3.89678E-001	7	...........
	442	11.075	-3.79765E-001	-1.50871E-006	0.00000E+000	-3.80002E-001	-3.79874E-001	7	...........
	443	11.1	-3.69765E-001	5.18873E-006	0.00000E+000	-3.70003E-001	-3.69870E-001	7	...........
	444	11.125	-3.59965E-001	1.18344E-005	0.00000E+000	-3.60005E-001	-3.59867E-001	7	...........
	445	11.15	-3.49965E-001	1.84984E-005	0.00000E+000	-3.50006E-001	-3.49663E-001	7	...........
	446	11.175	-3.39965E-001	2.47182E-005	0.00000E+000	-3.40007E-001	-3.39859E-001	7	...........
	447	11.2	-3.29965E-001	3.09146E-005	0.00000E+000	-3.30008E-001	-3.29856E-001	7	...........
	448	11.225	-3.19765E-001	3.73632E-005	0.00000E+000	-3.20010E-001	-3.19852E-001	7	...........
	449	11.25	-3.09965E-001	4.30585E-005	0.00000E+000	-3.10011E-001	-3.09848E-001	7	...........
	450	11.275	-2.99965E-001	4.87872E-005	0.00000E+000	-3.00012E-001	-3.00045E-001	7	.....h.....
	451	11.3	-2.89965E-001	5.54043E-005	0.00000E+000	-2.90013E-001	-2.89841E-001	8	...........
	452	11.325	-2.79965E-001	6.01623E-005	0.00000E+000	-2.80015E-001	-2.79637E-001	8	...........
	453	11.35	-2.69765E-001	6.61056E-005	0.00000E+000	-2.70016E-001	-2.69833E-001	8	...........
	454	11.375	-2.59965E-001	7.10472E-005	0.00000E+000	-2.60017E-001	-2.59830E-001	8	...........
	455	11.4	-2.49965E-001	7.68402E-005	0.00000E+000	-2.50018E-001	-2.50026E-001	8	...........
	456	11.425	-2.39965E-001	8.27668E-005	0.00000E+000	-2.40020E-001	-2.40022E-001	8	...........
	457	11.45	-2.29965E-001	8.85599E-005	0.00000E+000	-2.30021E-001	-2.30019E-001	8	...........
	458	11.475	-2.19965E-001	9.24998E-005	0.00000E+000	-2.20022E-001	-2.20015E-001	8	...........
	459	11.5	-2.09965E-001	9.86936E-005	0.00000E+000	-2.09973E-001	-2.10011E-001	8	...........
	460	11.525	-1.99965E-001	1.03201E-004	0.00000E+000	-1.99975E-001	-2.00008E-001	8	...........
	461	11.55	-1.89765E-001	1.07859E-004	0.00000E+000	-1.89976E-001	-1.89804E-001	8	...........
	462	11.575	-1.80165E-001	1.13351E-004	0.00000E+000	-1.79977E-001	-1.80000E-001	8	...........
	463	11.6	-1.69765E-001	1.17492E-004	0.00000E+000	-1.69979E-001	-1.69996E-001	8	...........
	464	11.625	-1.60165E-001	1.22150E-004	0.00000E+000	-1.59980E-001	-1.59793E-001	8	...........
	465	11.65	-1.49965E-001	1.27458E-004	0.00000E+000	-1.49981E-001	-1.49989E-001	8	...........
	466	11.675	-1.39965E-001	1.31482E-004	0.00000E+000	-1.39982E-001	-1.39985E-001	8	...........
	467	11.7	-1.30165E-001	1.36173E-004	0.00000E+000	-1.29984E-001	-1.30182E-001	8	...........
	468	11.725	-1.19965E-001	1.41465E-004	0.00000E+000	-1.19985E-001	-1.19978E-001	8	...........
	469	11.75	-1.10165E-001	1.46123E-004	0.00000E+000	-1.09986E-001	-1.10174E-001	8	...........
	470	11.775	-9.99651E-002	1.50364E-004	0.00000E+000	-9.99874E-002	-1.00171E-001	8	...........
	471	11.8	-9.01651E-002	1.54788E-004	0.00000E+000	-8.99886E-002	-9.01669E-002	8	...........
	472	11.825	-7.99651E-002	1.60247E-004	0.00000E+000	-7.99899E-002	-8.01632E-002	8	...........
	473	11.85	-7.01651E-002	1.64137E-004	0.00000E+000	-6.99912E-002	-7.01595E-002	8	...........
	474	11.875	-6.01651E-002	1.68711E-004	0.00000E+000	-5.99924E-002	-5.99558E-002	8	...........
	475	11.9	-4.99651E-002	1.73703E-004	0.00000E+000	-4.99937E-002	-4.99521E-002	8	...........
	476	11.925	-4.01651E-002	1.78494E-004	0.00000E+000	-3.99949E-002	-4.01484E-002	8	...........
	477	11.95	-2.99651E-002	1.83185E-004	0.00000E+000	-2.99962E-002	-3.01447E-002	8	...........
	478	11.975	-2.01651E-002	1.87943E-004	0.00000E+000	-1.99975E-002	-1.99410E-002	8	...........
	479	12	-9.96512E-003	1.93569E-004	0.00000E+000	-9.99874E-003	-1.01373E-002	8	...........
	480	12.025	-1.65120E-004	1.97543E-004	0.00000E+000	0.00000E+000	-1.33649E-004	8	...........
	481	12.05	9.83488E-003	2.01549E-004	0.00000E+000	9.99874E-003	9.66997E-003	8	...........
	482	12.075	1.98349E-002	2.07092E-004	0.00000E+000	1.99975E-002	1.96737E-002	8	...........
	483	12.1	2.98349E-002	2.11433E-004	0.00000E+000	2.99962E-002	2.96774E-002	8	...........
	484	12.125	4.00349E-002	2.17393E-004	0.00000E+000	3.99949E-002	3.98811E-002	8	...........
	485	12.15	4.98349E-002	2.22869E-004	0.00000E+000	4.99937E-002	4.98848E-002	8	...........
	486	12.175	6.00349E-002	2.27092E-004	0.00000E+000	5.99924E-002	5.96885E-002	8	...........
	487	12.2	7.00349E-002	2.31667E-004	0.00000E+000	6.99912E-002	6.96922E-002	8	...........
	488	12.225	7.98349E-002	2.37526E-004	0.00000E+000	7.99899E-002	7.96959E-002	8	...........
	489	12.25	8.98349E-002	2.42468E-004	0.00000E+000	8.99886E-002	8.96996E-002	8	...........
	490	12.275	9.98349E-002	2.47627E-004	0.00000E+000	9.99874E-002	9.99033E-002	8	...........
	491	12.3	1.09835E-001	2.53136E-004	0.00000E+000	1.09986E-001	1.09707E-001	8	...........
	492	12.325	1.19835E-001	2.58495E-004	0.00000E+000	1.19985E-001	1.19711E-001	8	...........
	493	12.35	1.29835E-001	2.63754E-004	0.00000E+000	1.29984E-001	1.29514E-001	8	...........
	494	12.375	1.39835E-001	2.70048E-004	0.00000E+000	1.39982E-001	1.39918E-001	8	...........
	495	12.4	1.49835E-001	2.75206E-004	0.00000E+000	1.49981E-001	1.49722E-001	8	...........
	496	12.425	1.59835E-001	2.81183E-004	0.00000E+000	1.59980E-001	1.59725E-001	8	...........
	497	12.45	1.69835E-001	2.87093E-004	0.00000E+000	1.69979E-001	1.69729E-001	8	...........
	498	12.475	1.80035E-001	2.93437E-004	0.00000E+000	1.79977E-001	1.79533E-001	8	...........
	499	12.5	1.89835E-001	2.99731E-004	0.00000E+000	1.90026E-001	1.89536E-001	8	...........
	500	12.525	1.99835E-001	3.07026E-004	0.00000E+000	2.00025E-001	1.99540E-001	8	...........
	501	12.55	2.09835E-001	3.12836E-004	0.00000E+000	2.10023E-001	2.09544E-001	8	...........
	502	12.575	2.19635E-001	3.20032E-004	0.00000E+000	2.20022E-001	2.19748E-001	8	...........
	503	12.6	2.29835E-001	3.26509E-004	0.00000E+000	2.30021E-001	2.29751E-001	8	...........
	504	12.625	2.39835E-001	3.33805E-004	0.00000E+000	2.40020E-001	2.39755E-001	8	...........
	505	12.65	2.49835E-001	3.40599E-004	0.00000E+000	2.50018E-001	2.49759E-001	8	...........
	506	12.675	2.59835E-001	3.48246E-004	0.00000E+000	2.60017E-001	2.59762E-001	8	...........
	507	12.7	2.69835E-001	3.55775E-004	0.00000E+000	2.70016E-001	2.69566E-001	8	...........
	508	12.725	2.79635E-001	3.62903E-004	0.00000E+000	2.80015E-001	2.79770E-001	8	...........
	509	12.75	2.89835E-001	3.70583E-004	0.00000E+000	2.90013E-001	2.89373E-001	8	...........
	510	12.775	2.99635E-001	3.77328E-004	0.00000E+000	3.00012E-001	2.99577E-001	8	...........
	511	12.8	3.09835E-001	3.85107E-004	0.00000E+000	3.10011E-001	3.09581E-001	8	...........
	512	12.825	3.19835E-001	3.91986E-004	0.00000E+000	3.20010E-001	3.19585E-001	8	...........
	513	12.85	3.29635E-001	3.99214E-004	0.00000E+000	3.30008E-001	3.29588E-001	8	...........
	514	12.875	3.39435E-001	4.06310E-004	0.00000E+000	3.40007E-001	3.39392E-001	8	...........
	515	12.9	3.49635E-001	4.13054E-004	0.00000E+000	3.50006E-001	3.49396E-001	8	...........
	516	12.925	3.59635E-001	4.20099E-004	0.00000E+000	3.60005E-001	3.59599E-001	8	...........
	517	12.95	3.69635E-001	4.27028E-004	0.00000E+000	3.70003E-001	3.69603E-001	8	...........
	518	12.975	3.79635E-001	4.34307E-004	0.00000E+000	3.80002E-001	3.79607E-001	8	...........
	519	13	3.89835E-001	4.42003E-004	0.00000E+000	3.90001E-001	3.89610E-001	8	...........
	520	13.025	3.99835E-001	4.47963E-004	0.00000E+000	3.99999E-001	3.99414E-001	8	...........
	521	13.05	4.09635E-001	4.55876E-004	0.00000E+000	4.09998E-001	4.09418E-001	9	...........
	522	13.075	4.19635E-001	4.62877E-004	0.00000E+000	4.19997E-001	4.19621E-001	9	...........
	523	13.1	4.29635E-001	4.69379E-004	0.00000E+000	4.29996E-001	4.29425E-001	9	...........
	524	13.125	4.39635E-001	4.75880E-004	0.00000E+000	4.39994E-001	4.39429E-001	9	...........
	525	13.15	4.49635E-001	4.81881E-004	0.00000E+000	4.49993E-001	4.49433E-001	9	...........
	526	13.175	4.59635E-001	4.89716E-004	0.00000E+000	4.59992E-001	4.59636E-001	9	...........
	527	13.2	4.69635E-001	4.96551E-004	0.00000E+000	4.69991E-001	4.69440E-001	9	...........
	528	13.225	4.79435E-001	5.02719E-004	0.00000E+000	4.79989E-001	4.79644E-001	9	...........
	529	13.25	4.89435E-001	5.10054E-004	0.00000E+000	4.89988E-001	4.89447E-001	9	...........
	530	13.275	4.99435E-001	5.16889E-004	0.00000E+000	4.99987E-001	4.99651E-001	9	...........
	531	13.3	5.09635E-001	5.23557E-004	0.00000E+000	5.09986E-001	5.09255E-001	9	...........
	532	13.325	5.19435E-001	5.30891E-004	0.00000E+000	5.19984E-001	5.19458E-001	9	...........
	533	13.35	5.29435E-001	5.37893E-004	0.00000E+000	5.29983E-001	5.29462E-001	9	...........
	534	13.375	5.39435E-001	5.45061E-004	0.00000E+000	5.39982E-001	5.39466E-001	9	...........
	535	13.4	5.49435E-001	5.52229E-004	0.00000E+000	5.49981E-001	5.49269E-001	9	...........
	536	13.425	5.59435E-001	5.59397E-004	0.00000E+000	5.59979E-001	5.59473E-001	9	...........
	537	13.45	5.69435E-001	5.66732E-004	0.00000E+000	5.69978E-001	5.69477E-001	9	...........
	538	13.475	5.79435E-001	5.74067E-004	0.00000E+000	5.79977E-001	5.79280E-001	9	...........
	539	13.5	5.89435E-001	5.81902E-004	0.00000E+000	5.89975E-001	5.89284E-001	9	...........
	540	13.525	5.99635E-001	5.89904E-004	0.00000E+000	6.00024E-001	5.99288E-001	9	...........
	541	13.55	6.09435E-001	5.97072E-004	0.00000E+000	6.10023E-001	6.09292E-001	9	...........
	542	13.575	6.19635E-001	6.05574E-004	0.00000E+000	6.20022E-001	6.19295E-001	9	...........
	543	13.6	6.29635E-001	6.12909E-004	0.00000E+000	6.30020E-001	6.29299E-001	9	...........
	544	13.625	6.39435E-001	6.21744E-004	0.00000E+000	6.40019E-001	6.39503E-001	9	...........
	545	13.65	6.49435E-001	6.29579E-004	0.00000E+000	6.50018E-001	6.49306E-001	9	...........
	546	13.675	6.59635E-001	6.38914E-004	0.00000E+000	6.60017E-001	6.59310E-001	9	...........
	547	13.7	6.69435E-001	6.46749E-004	0.00000E+000	6.70015E-001	6.69314E-001	9	...........
	548	13.725	6.79435E-001	6.56084E-004	0.00000E+000	6.80014E-001	6.79318E-001	9	...........
	549	13.75	6.89435E-001	6.65586E-004	0.00000E+000	6.90013E-001	6.89121E-001	9	...........
	550	13.775	6.99435E-001	6.74422E-004	0.00000E+000	7.00012E-001	6.99325E-001	9	...........
	551	13.8	7.09435E-001	6.83757E-004	0.00000E+000	7.10010E-001	7.09129E-001	9	...........
	552	13.825	7.19435E-001	6.93092E-004	0.00000E+000	7.20009E-001	7.19532E-001	9	...........
	553	13.85	7.29235E-001	7.03261E-004	0.00000E+000	7.30008E-001	7.29336E-001	9	...........
	554	13.875	7.39435E-001	7.12763E-004	0.00000E+000	7.40007E-001	7.38940E-001	9	...........
	555	13.9	7.49235E-001	7.23098E-004	0.00000E+000	7.50005E-001	7.49143E-001	9	...........
	556	13.925	7.59435E-001	7.34268E-004	0.00000E+000	7.60004E-001	7.59347E-001	9	...........
	557	13.95	7.69235E-001	7.44436E-004	0.00000E+000	7.70003E-001	7.69351E-001	9	...........
	558	13.975	7.79235E-001	7.55772E-004	0.00000E+000	7.80001E-001	7.79154E-001	9	...........
	559	14	7.89235E-001	7.66274E-004	0.00000E+000	7.90000E-001	7.89158E-001	9	...........
	560	14.025	7.99235E-001	7.77610E-004	0.00000E+000	7.99999E-001	7.99362E-001	9	...........
CURVE3	TABLE
	Pt	T	Vf	Im	Vu	Sig	Ach	IERange	Over
	#	s	V vs. Ref.	A	V	V	V	#	bits
	561	14.05	7.89435E-001	7.10096E-004	0.00000E+000	7.90000E-001	7.89158E-001	9	...........
	562	14.075	7.79435E-001	6.56918E-004	0.00000E+000	7.80001E-001	7.79354E-001	9	...........
	563	14.1	7.69635E-001	6.12742E-004	0.00000E+000	7.70003E-001	7.69351E-001	9	...........
	564	14.125	7.59435E-001	5.72900E-004	0.00000E+000	7.60004E-001	7.59147E-001	9	...........
	565	14.15	7.49235E-001	5.38060E-004	0.00000E+000	7.50005E-001	7.49343E-001	9	...........
	566	14.175	7.39435E-001	5.05719E-004	0.00000E+000	7.40007E-001	7.39140E-001	9	...........
	567	14.2	7.29435E-001	4.75547E-004	0.00000E+000	7.30008E-001	7.29336E-001	9	...........
	568	14.225	7.19635E-001	4.48041E-004	0.00000E+000	7.20009E-001	7.19332E-001	9	...........
	569	14.25	7.09435E-001	4.21035E-004	0.00000E+000	7.10010E-001	7.09329E-001	9	...........
	570	14.275	6.99435E-001	3.96530E-004	0.00000E+000	7.00012E-001	6.99525E-001	9	...........
	571	14.3	6.89435E-001	3.73238E-004	0.00000E+000	6.90013E-001	6.89321E-001	8	...........
	572	14.325	6.79435E-001	3.50599E-004	0.00000E+000	6.80014E-001	6.79117E-001	8	...........
	573	14.35	6.69635E-001	3.29765E-004	0.00000E+000	6.70015E-001	6.69514E-001	8	...........
	574	14.375	6.59235E-001	3.10816E-004	0.00000E+000	6.60017E-001	6.59310E-001	8	...........
	575	14.4	6.49435E-001	2.91434E-004	0.00000E+000	6.50018E-001	6.49507E-001	8	...........
	576	14.425	6.39435E-001	2.74756E-004	0.00000E+000	6.40019E-001	6.39503E-001	8	...........
	577	14.45	6.29435E-001	2.57176E-004	0.00000E+000	6.30020E-001	6.29499E-001	8	...........
	578	14.475	6.19235E-001	2.41333E-004	0.00000E+000	6.20022E-001	6.19495E-001	8	...........
	579	14.5	6.09635E-001	2.25339E-004	0.00000E+000	6.10023E-001	6.09292E-001	8	...........
	580	14.525	5.99635E-001	2.10414E-004	0.00000E+000	6.00024E-001	5.99288E-001	8	...........
	581	14.55	5.89435E-001	1.95205E-004	0.00000E+000	5.89975E-001	5.89284E-001	8	...........
	582	14.575	5.79435E-001	1.82050E-004	0.00000E+000	5.79977E-001	5.79481E-001	8	...........
	583	14.6	5.69435E-001	1.68527E-004	0.00000E+000	5.69978E-001	5.69477E-001	8	...........
	584	14.625	5.59435E-001	1.55506E-004	0.00000E+000	5.59979E-001	5.59273E-001	8	...........
	585	14.65	5.49635E-001	1.43535E-004	0.00000E+000	5.49981E-001	5.49469E-001	8	...........
	586	14.675	5.39435E-001	1.31382E-004	0.00000E+000	5.39982E-001	5.39266E-001	8	...........
	587	14.7	5.29435E-001	1.20163E-004	0.00000E+000	5.29983E-001	5.29462E-001	8	...........
	588	14.725	5.19635E-001	1.09462E-004	0.00000E+000	5.19984E-001	5.19458E-001	8	...........
	589	14.75	5.09635E-001	9.91777E-005	0.00000E+000	5.09986E-001	5.09255E-001	8	...........
	590	14.775	4.99635E-001	8.81425E-005	0.00000E+000	4.99987E-001	4.99451E-001	8	...........
	591	14.8	4.89435E-001	7.73411E-005	0.00000E+000	4.89988E-001	4.89447E-001	8	...........
	592	14.825	4.79635E-001	6.73410E-005	0.00000E+000	4.79989E-001	4.79444E-001	8	...........
	593	14.85	4.69635E-001	5.78751E-005	0.00000E+000	4.69991E-001	4.69640E-001	8	...........
	594	14.875	4.59635E-001	4.92272E-005	0.00000E+000	4.59992E-001	4.59436E-001	8	...........
	595	14.9	4.49635E-001	3.99283E-005	0.00000E+000	4.49993E-001	4.49433E-001	8	...........
	596	14.925	4.39635E-001	3.14641E-005	0.00000E+000	4.39994E-001	4.39429E-001	7	...........
	597	14.95	4.29435E-001	2.29678E-005	0.00000E+000	4.29996E-001	4.29425E-001	7	...........
	598	14.975	4.19635E-001	1.46303E-005	0.00000E+000	4.19997E-001	4.19421E-001	7	...........
	599	15	4.09635E-001	6.75202E-006	0.00000E+000	4.09998E-001	4.09618E-001	7	...........
	600	15.025	3.99635E-001	-7.82182E-007	0.00000E+000	3.99999E-001	3.99414E-001	7	...........
	601	15.05	3.89635E-001	-8.69218E-006	0.00000E+000	3.90001E-001	3.89811E-001	7	...........
	602	15.075	3.79635E-001	-1.59308E-005	0.00000E+000	3.80002E-001	3.79607E-001	7	...........
	603	15.1	3.69835E-001	-2.31226E-005	0.00000E+000	3.70003E-001	3.69403E-001	7	...........
	604	15.125	3.59635E-001	-3.00538E-005	0.00000E+000	3.60005E-001	3.59599E-001	7	...........
	605	15.15	3.49835E-001	-3.71404E-005	0.00000E+000	3.50006E-001	3.49596E-001	7	...........
	606	15.175	3.39835E-001	-4.39398E-005	0.00000E+000	3.40007E-001	3.39592E-001	7	...........
	607	15.2	3.29635E-001	-5.04551E-005	0.00000E+000	3.30008E-001	3.29588E-001	7	.....h.....
	608	15.225	3.19635E-001	-5.72180E-005	0.00000E+000	3.20010E-001	3.19785E-001	8	...........
	609	15.25	3.09635E-001	-6.27272E-005	0.00000E+000	3.10011E-001	3.09781E-001	8	...........
	610	15.275	2.99635E-001	-6.87540E-005	0.00000E+000	3.00012E-001	2.99577E-001	8	...........
	611	15.3	2.89635E-001	-7.49644E-005	0.00000E+000	2.90013E-001	2.89573E-001	8	...........
	612	15.325	2.79835E-001	-8.09411E-005	0.00000E+000	2.80015E-001	2.79570E-001	8	...........
	613	15.35	2.69635E-001	-8.74687E-005	0.00000E+000	2.70016E-001	2.69766E-001	8	...........
	614	15.375	2.59635E-001	-9.25940E-005	0.00000E+000	2.60017E-001	2.59762E-001	8	...........
	615	15.4	2.49635E-001	-9.84205E-005	0.00000E+000	2.50018E-001	2.49759E-001	8	...........
	616	15.425	2.39835E-001	-1.04063E-004	0.00000E+000	2.40020E-001	2.39755E-001	8	...........
	617	15.45	2.29835E-001	-1.09723E-004	0.00000E+000	2.30021E-001	2.29751E-001	8	...........
	618	15.475	2.19635E-001	-1.14681E-004	0.00000E+000	2.20022E-001	2.19748E-001	8	...........
	619	15.5	2.09835E-001	-1.20441E-004	0.00000E+000	2.10023E-001	2.09744E-001	8	...........
	620	15.525	1.99835E-001	-1.25316E-004	0.00000E+000	2.00025E-001	1.99540E-001	8	...........
	621	15.55	1.90035E-001	-1.30641E-004	0.00000E+000	1.90026E-001	1.89937E-001	8	...........
	622	15.575	1.79635E-001	-1.35800E-004	0.00000E+000	1.79977E-001	1.79733E-001	8	...........
	623	15.6	1.69835E-001	-1.42461E-004	0.00000E+000	1.69979E-001	1.69729E-001	8	...........
	624	15.625	1.59835E-001	-1.46701E-004	0.00000E+000	1.59980E-001	1.59725E-001	8	...........
	625	15.65	1.49635E-001	-1.51827E-004	0.00000E+000	1.49981E-001	1.49522E-001	8	...........
	626	15.675	1.39835E-001	-1.57386E-004	0.00000E+000	1.39982E-001	1.39718E-001	8	...........
	627	15.7	1.29835E-001	-1.62194E-004	0.00000E+000	1.29984E-001	1.29714E-001	8	...........
	628	15.725	1.19635E-001	-1.67770E-004	0.00000E+000	1.19985E-001	1.19711E-001	8	...........
	629	15.75	1.09635E-001	-1.71977E-004	0.00000E+000	1.09986E-001	1.09907E-001	8	...........
	630	15.775	9.96349E-002	-1.76602E-004	0.00000E+000	9.99874E-002	9.99033E-002	8	...........
	631	15.8	8.98349E-002	-1.81176E-004	0.00000E+000	8.99886E-002	8.96996E-002	8	...........
	632	15.825	7.98349E-002	-1.85984E-004	0.00000E+000	7.99899E-002	7.96959E-002	8	...........
	633	15.85	6.98349E-002	-1.91009E-004	0.00000E+000	6.99912E-002	6.98922E-002	8	...........
	634	15.875	5.98349E-002	-1.95333E-004	0.00000E+000	5.99924E-002	5.98885E-002	8	...........
	635	15.9	5.00349E-002	-1.99807E-004	0.00000E+000	4.99937E-002	4.98848E-002	8	...........
	636	15.925	4.00349E-002	-2.03680E-004	0.00000E+000	3.99949E-002	3.96811E-002	8	...........
	637	15.95	3.00349E-002	-2.08589E-004	0.00000E+000	2.99962E-002	2.96774E-002	8	...........
	638	15.975	1.98349E-002	-2.13447E-004	0.00000E+000	1.99975E-002	1.98737E-002	8	...........
	639	16	1.00349E-002	-2.16919E-004	0.00000E+000	9.99874E-003	9.87005E-003	8	...........
	640	16.025	3.48799E-005	-2.22963E-004	0.00000E+000	0.00000E+000	-1.33649E-004	8	...........
	641	16.05	-9.96512E-003	-2.26335E-004	0.00000E+000	-9.99874E-003	-1.01373E-002	8	...........
	642	16.075	-1.99651E-002	-2.30175E-004	0.00000E+000	-1.99975E-002	-1.99410E-002	8	...........
	643	16.1	-3.01651E-002	-2.34549E-004	0.00000E+000	-2.99962E-002	-3.01447E-002	8	...........
	644	16.125	-3.99651E-002	-2.38038E-004	0.00000E+000	-3.99949E-002	-4.01484E-002	8	...........
	645	16.15	-5.01651E-002	-2.42913E-004	0.00000E+000	-4.99937E-002	-5.01521E-002	8	...........
	646	16.175	-6.01651E-002	-2.47521E-004	0.00000E+000	-5.99924E-002	-6.01558E-002	8	...........
	647	16.2	-6.99651E-002	-2.51043E-004	0.00000E+000	-6.99912E-002	-7.01595E-002	8	...........
	648	16.225	-8.01651E-002	-2.55617E-004	0.00000E+000	-7.99899E-002	-7.99632E-002	8	...........
	649	16.25	-8.99651E-002	-2.59307E-004	0.00000E+000	-8.99886E-002	-8.99668E-002	8	...........
	650	16.275	-9.99651E-002	-2.63531E-004	0.00000E+000	-9.99874E-002	-9.99706E-002	8	...........
	651	16.3	-1.10165E-001	-2.68055E-004	0.00000E+000	-1.09986E-001	-1.10174E-001	8	...........
	652	16.325	-1.19965E-001	-2.71795E-004	0.00000E+000	-1.19985E-001	-1.20178E-001	8	...........
	653	16.35	-1.29965E-001	-2.75684E-004	0.00000E+000	-1.29984E-001	-1.29982E-001	8	...........
	654	16.375	-1.39765E-001	-2.82062E-004	0.00000E+000	-1.39982E-001	-1.39985E-001	8	...........
	655	16.4	-1.50165E-001	-2.85117E-004	0.00000E+000	-1.49981E-001	-1.49789E-001	8	...........
	656	16.425	-1.59965E-001	-2.90610E-004	0.00000E+000	-1.59980E-001	-1.59993E-001	8	...........
	657	16.45	-1.69965E-001	-2.96152E-004	0.00000E+000	-1.69979E-001	-1.69796E-001	8	...........
	658	16.475	-1.80165E-001	-3.00109E-004	0.00000E+000	-1.79977E-001	-1.80200E-001	8	...........
	659	16.5	-1.89765E-001	-3.05702E-004	0.00000E+000	-1.89976E-001	-1.90004E-001	8	...........
	660	16.525	-1.99965E-001	-3.10376E-004	0.00000E+000	-1.99975E-001	-1.99607E-001	8	...........
	661	16.55	-2.09965E-001	-3.15618E-004	0.00000E+000	-2.09973E-001	-2.09811E-001	8	...........
	662	16.575	-2.19965E-001	-3.21879E-004	0.00000E+000	-2.20022E-001	-2.20015E-001	8	...........
	663	16.6	-2.29965E-001	-3.26787E-004	0.00000E+000	-2.30021E-001	-2.30019E-001	8	...........
	664	16.625	-2.39965E-001	-3.32830E-004	0.00000E+000	-2.40020E-001	-2.39822E-001	8	...........
	665	16.65	-2.49765E-001	-3.38891E-004	0.00000E+000	-2.50018E-001	-2.49826E-001	8	...........
	666	16.675	-2.59965E-001	-3.44083E-004	0.00000E+000	-2.60017E-001	-2.59830E-001	8	...........
	667	16.7	-2.69965E-001	-3.50861E-004	0.00000E+000	-2.70016E-001	-2.70033E-001	8	...........
	668	16.725	-2.79765E-001	-3.56520E-004	0.00000E+000	-2.80015E-001	-2.80037E-001	8	...........
	669	16.75	-2.89965E-001	-3.62730E-004	0.00000E+000	-2.90013E-001	-2.89841E-001	8	...........
	670	16.775	-2.99965E-001	-3.68457E-004	0.00000E+000	-3.00012E-001	-2.99844E-001	8	...........
	671	16.8	-3.09965E-001	-3.75185E-004	0.00000E+000	-3.10011E-001	-3.10048E-001	8	...........
	672	16.825	-3.19965E-001	-3.81145E-004	0.00000E+000	-3.20010E-001	-3.19852E-001	8	...........
	673	16.85	-3.29965E-001	-3.88340E-004	0.00000E+000	-3.30008E-001	-3.29856E-001	8	...........
	674	16.875	-3.39765E-001	-3.94801E-004	0.00000E+000	-3.40007E-001	-3.39859E-001	8	...........
	675	16.9	-3.49765E-001	-4.00711E-004	0.00000E+000	-3.50006E-001	-3.49863E-001	8	...........
	676	16.925	-3.59965E-001	-4.07172E-004	0.00000E+000	-3.60005E-001	-3.59867E-001	8	...........
	677	16.95	-3.69765E-001	-4.13749E-004	0.00000E+000	-3.70003E-001	-3.69870E-001	8	...........
	678	16.975	-3.79765E-001	-4.20394E-004	0.00000E+000	-3.80002E-001	-3.79674E-001	8	...........
	679	17	-3.89765E-001	-4.26421E-004	0.00000E+000	-3.90001E-001	-3.89878E-001	8	...........
	680	17.025	-3.99765E-001	-4.32932E-004	0.00000E+000	-3.99999E-001	-3.99881E-001	8	...........
	681	17.05	-4.09965E-001	-4.40060E-004	0.00000E+000	-4.09998E-001	-4.09885E-001	8	...........
	682	17.075	-4.19765E-001	-4.45670E-004	0.00000E+000	-4.19997E-001	-4.19689E-001	8	...........
	683	17.1	-4.29565E-001	-4.52148E-004	0.00000E+000	-4.29996E-001	-4.29692E-001	9	...........
	684	17.125	-4.39765E-001	-4.59650E-004	0.00000E+000	-4.39994E-001	-4.39696E-001	9	...........
	685	17.15	-4.49765E-001	-4.65651E-004	0.00000E+000	-4.49993E-001	-4.49700E-001	9	...........
	686	17.175	-4.59565E-001	-4.72153E-004	0.00000E+000	-4.59992E-001	-4.59704E-001	9	...........
	687	17.2	-4.69765E-001	-4.78821E-004	0.00000E+000	-4.69991E-001	-4.69507E-001	9	...........
	688	17.225	-4.79565E-001	-4.85322E-004	0.00000E+000	-4.79989E-001	-4.79711E-001	9	...........
	689	17.25	-4.89765E-001	-4.92323E-004	0.00000E+000	-4.89988E-001	-4.89715E-001	9	...........
	690	17.275	-4.99965E-001	-4.99992E-004	0.00000E+000	-4.99987E-001	-4.99718E-001	9	...........
	691	17.3	-5.09765E-001	-5.06160E-004	0.00000E+000	-5.09986E-001	-5.09522E-001	9	...........
	692	17.325	-5.19765E-001	-5.13161E-004	0.00000E+000	-5.19984E-001	-5.19726E-001	9	...........
	693	17.35	-5.29765E-001	-5.19996E-004	0.00000E+000	-5.29983E-001	-5.29529E-001	9	...........
	694	17.375	-5.39565E-001	-5.26997E-004	0.00000E+000	-5.39982E-001	-5.39733E-001	9	...........
	695	17.4	-5.49765E-001	-5.33665E-004	0.00000E+000	-5.49981E-001	-5.49737E-001	9	...........
	696	17.425	-5.59565E-001	-5.40667E-004	0.00000E+000	-5.59979E-001	-5.59741E-001	9	...........
	697	17.45	-5.69565E-001	-5.47502E-004	0.00000E+000	-5.69978E-001	-5.69544E-001	9	...........
	698	17.475	-5.79565E-001	-5.55337E-004	0.00000E+000	-5.79977E-001	-5.79548E-001	9	...........
	699	17.5	-5.89565E-001	-5.63005E-004	0.00000E+000	-5.89975E-001	-5.89552E-001	9	...........
	700	17.525	-5.99765E-001	-5.70340E-004	0.00000E+000	-5.99974E-001	-5.99555E-001	9	...........
	701	17.55	-6.09765E-001	-5.77175E-004	0.00000E+000	-6.09973E-001	-6.09559E-001	9	...........
	702	17.575	-6.19765E-001	-5.85176E-004	0.00000E+000	-6.20022E-001	-6.19563E-001	9	...........
	703	17.6	-6.29565E-001	-5.93011E-004	0.00000E+000	-6.30020E-001	-6.29566E-001	9	...........
	704	17.625	-6.39565E-001	-6.01180E-004	0.00000E+000	-6.40019E-001	-6.39570E-001	9	...........
	705	17.65	-6.49565E-001	-6.10182E-004	0.00000E+000	-6.50018E-001	-6.49574E-001	9	...........
	706	17.675	-6.59565E-001	-6.17516E-004	0.00000E+000	-6.60017E-001	-6.59577E-001	9	...........
	707	17.7	-6.69565E-001	-6.25852E-004	0.00000E+000	-6.70015E-001	-6.69381E-001	9	...........
	708	17.725	-6.79765E-001	-6.34687E-004	0.00000E+000	-6.80014E-001	-6.79585E-001	9	...........
	709	17.75	-6.89765E-001	-6.43022E-004	0.00000E+000	-6.90013E-001	-6.89588E-001	9	...........
	710	17.775	-6.99565E-001	-6.51524E-004	0.00000E+000	-7.00012E-001	-6.99792E-001	9	...........
	711	17.8	-7.09765E-001	-6.61359E-004	0.00000E+000	-7.10010E-001	-7.09596E-001	9	...........
	712	17.825	-7.19765E-001	-6.70861E-004	0.00000E+000	-7.20009E-001	-7.19600E-001	9	...........
	713	17.85	-7.29565E-001	-6.80196E-004	0.00000E+000	-7.30008E-001	-7.29603E-001	9	...........
	714	17.875	-7.39565E-001	-6.90032E-004	0.00000E+000	-7.40007E-001	-7.39407E-001	9	...........
	715	17.9	-7.49565E-001	-7.00367E-004	0.00000E+000	-7.50005E-001	-7.49411E-001	9	...........
	716	17.925	-7.59565E-001	-7.11370E-004	0.00000E+000	-7.60004E-001	-7.59414E-001	9	...........
	717	17.95	-7.69365E-001	-7.22038E-004	0.00000E+000	-7.70003E-001	-7.69618E-001	9	...........
	718	17.975	-7.79565E-001	-7.33874E-004	0.00000E+000	-7.80001E-001	-7.79422E-001	9	...........
	719	18	-7.89565E-001	-7.45543E-004	0.00000E+000	-7.90000E-001	-7.89425E-001	9	...........
	720	18.025	-7.99365E-001	-7.56379E-004	0.00000E+000	-7.99999E-001	-7.99429E-001	9	...........
	721	18.05	-7.89565E-001	-6.84364E-004	0.00000E+000	-7.90000E-001	-7.89425E-001	9	...........
	722	18.075	-7.79565E-001	-6.30186E-004	0.00000E+000	-7.80001E-001	-7.79622E-001	9	...........
	723	18.1	-7.69565E-001	-5.85010E-004	0.00000E+000	-7.70003E-001	-7.69618E-001	9	...........
	724	18.125	-7.59565E-001	-5.45335E-004	0.00000E+000	-7.60004E-001	-7.59414E-001	9	...........
	725	18.15	-7.49565E-001	-5.10327E-004	0.00000E+000	-7.50005E-001	-7.49611E-001	9	...........
	726	18.175	-7.39565E-001	-4.79821E-004	0.00000E+000	-7.40007E-001	-7.39607E-001	9	...........
	727	18.2	-7.29365E-001	-4.50148E-004	0.00000E+000	-7.30008E-001	-7.29603E-001	9	...........
	728	18.225	-7.19565E-001	-4.23476E-004	0.00000E+000	-7.20009E-001	-7.19800E-001	9	...........
	729	18.25	-7.09565E-001	-3.98804E-004	0.00000E+000	-7.10010E-001	-7.09596E-001	9	...........
	730	18.275	-6.99365E-001	-3.75786E-004	0.00000E+000	-7.00012E-001	-6.99592E-001	8	...........
	731	18.3	-6.89565E-001	-3.54049E-004	0.00000E+000	-6.90013E-001	-6.89388E-001	8	...........
	732	18.325	-6.79565E-001	-3.33849E-004	0.00000E+000	-6.80014E-001	-6.79585E-001	8	...........
	733	18.35	-6.69765E-001	-3.13448E-004	0.00000E+000	-6.70015E-001	-6.69581E-001	8	...........
	734	18.375	-6.59365E-001	-2.95401E-004	0.00000E+000	-6.60017E-001	-6.59577E-001	8	...........
	735	18.4	-6.49565E-001	-2.78690E-004	0.00000E+000	-6.50018E-001	-6.49774E-001	8	...........
	736	18.425	-6.39565E-001	-2.62613E-004	0.00000E+000	-6.40019E-001	-6.39570E-001	8	...........
	737	18.45	-6.29765E-001	-2.46786E-004	0.00000E+000	-6.30020E-001	-6.29766E-001	8	...........
	738	18.475	-6.19765E-001	-2.32495E-004	0.00000E+000	-6.20022E-001	-6.19763E-001	8	...........
	739	18.5	-6.09765E-001	-2.17086E-004	0.00000E+000	-6.09973E-001	-6.09559E-001	8	...........
	740	18.525	-5.99565E-001	-2.03897E-004	0.00000E+000	-5.99974E-001	-5.99755E-001	8	...........
	741	18.55	-5.89765E-001	-1.91260E-004	0.00000E+000	-5.89975E-001	-5.89952E-001	8	...........
	742	18.575	-5.79565E-001	-1.79189E-004	0.00000E+000	-5.79977E-001	-5.79548E-001	8	...........
	743	18.6	-5.69765E-001	-1.66935E-004	0.00000E+000	-5.69978E-001	-5.69544E-001	8	...........
	744	18.625	-5.59765E-001	-1.55149E-004	0.00000E+000	-5.59979E-001	-5.59540E-001	8	...........
	745	18.65	-5.49565E-001	-1.42928E-004	0.00000E+000	-5.49981E-001	-5.49537E-001	8	...........
	746	18.675	-5.39765E-001	-1.33145E-004	0.00000E+000	-5.39982E-001	-5.39733E-001	8	...........
	747	18.7	-5.29565E-001	-1.22494E-004	0.00000E+000	-5.29983E-001	-5.29529E-001	8	...........
	748	18.725	-5.19765E-001	-1.12744E-004	0.00000E+000	-5.19984E-001	-5.19726E-001	8	...........
	749	18.75	-5.09765E-001	-1.03145E-004	0.00000E+000	-5.09986E-001	-5.09522E-001	8	...........
	750	18.775	-4.99765E-001	-9.36959E-005	0.00000E+000	-4.99987E-001	-4.99518E-001	8	...........
	751	18.8	-4.89765E-001	-8.48978E-005	0.00000E+000	-4.89988E-001	-4.89915E-001	8	...........
	752	18.825	-4.79565E-001	-7.57992E-005	0.00000E+000	-4.79989E-001	-4.79711E-001	8	...........
	753	18.85	-4.69765E-001	-6.70178E-005	0.00000E+000	-4.69991E-001	-4.69907E-001	8	...........
	754	18.875	-4.59765E-001	-5.86537E-005	0.00000E+000	-4.59992E-001	-4.59904E-001	8	...........
	755	18.9	-4.49765E-001	-5.08406E-005	0.00000E+000	-4.49993E-001	-4.49700E-001	8	...........
	756	18.925	-4.39765E-001	-4.27270E-005	0.00000E+000	-4.39994E-001	-4.39696E-001	8	...........
	757	18.95	-4.29765E-001	-3.56986E-005	0.00000E+000	-4.29996E-001	-4.29893E-001	8	...........
	758	18.975	-4.19765E-001	-2.74216E-005	0.00000E+000	-4.19997E-001	-4.19689E-001	7	...........
	759	19	-4.09765E-001	-1.99659E-005	0.00000E+000	-4.09998E-001	-4.09685E-001	7	...........
	760	19.025	-3.99765E-001	-1.31983E-005	0.00000E+000	-3.99999E-001	-3.99881E-001	7	...........
	761	19.05	-3.89565E-001	-6.28210E-006	0.00000E+000	-3.90001E-001	-3.89878E-001	7	...........
	762	19.075	-3.79765E-001	6.89251E-007	0.00000E+000	-3.80002E-001	-3.79874E-001	7	...........
	763	19.1	-3.69765E-001	7.33826E-006	0.00000E+000	-3.70003E-001	-3.69670E-001	7	...........
	764	19.125	-3.59965E-001	1.40708E-005	0.00000E+000	-3.60005E-001	-3.59867E-001	7	...........
	765	19.15	-3.49965E-001	2.04926E-005	0.00000E+000	-3.50006E-001	-3.49863E-001	7	...........
	766	19.175	-3.39765E-001	2.67324E-005	0.00000E+000	-3.40007E-001	-3.40059E-001	7	...........
	767	19.2	-3.29965E-001	3.27217E-005	0.00000E+000	-3.30008E-001	-3.29856E-001	7	...........
	768	19.225	-3.19965E-001	3.90300E-005	0.00000E+000	-3.20010E-001	-3.19852E-001	7	...........
	769	19.25	-3.09965E-001	4.49308E-005	0.00000E+000	-3.10011E-001	-3.09848E-001	7	...........
	770	19.275	-2.99965E-001	5.12974E-005	0.00000E+000	-3.00012E-001	-2.99844E-001	8	...........
	771	19.3	-2.89765E-001	5.62724E-005	0.00000E+000	-2.90013E-001	-2.89841E-001	8	...........
	772	19.325	-2.80165E-001	6.24661E-005	0.00000E+000	-2.80015E-001	-2.79837E-001	8	...........
	773	19.35	-2.69965E-001	6.74578E-005	0.00000E+000	-2.70016E-001	-2.69833E-001	8	...........
	774	19.375	-2.59965E-001	7.31340E-005	0.00000E+000	-2.60017E-001	-2.60230E-001	8	...........
	775	19.4	-2.49965E-001	7.86266E-005	0.00000E+000	-2.50018E-001	-2.49826E-001	8	...........
	776	19.425	-2.39965E-001	8.44530E-005	0.00000E+000	-2.40020E-001	-2.40022E-001	8	...........
	777	19.45	-2.29965E-001	8.89773E-005	0.00000E+000	-2.30021E-001	-2.30019E-001	8	...........
	778	19.475	-2.19965E-001	9.53212E-005	0.00000E+000	-2.20022E-001	-2.20015E-001	8	...........
	779	19.5	-2.09965E-001	9.92445E-005	0.00000E+000	-2.09973E-001	-2.10011E-001	8	...........
	780	19.525	-1.99765E-001	1.04153E-004	0.00000E+000	-1.99975E-001	-2.00008E-001	8	...........
	781	19.55	-1.89765E-001	1.09011E-004	0.00000E+000	-1.89976E-001	-1.90004E-001	8	...........
	782	19.575	-1.79965E-001	1.14737E-004	0.00000E+000	-1.79977E-001	-1.80000E-001	8	...........
	783	19.6	-1.69965E-001	1.18443E-004	0.00000E+000	-1.69979E-001	-1.69796E-001	8	...........
	784	19.625	-1.59965E-001	1.23585E-004	0.00000E+000	-1.59980E-001	-1.59993E-001	8	...........
	785	19.65	-1.49965E-001	1.28777E-004	0.00000E+000	-1.49981E-001	-1.49989E-001	8	...........
	786	19.675	-1.39965E-001	1.32534E-004	0.00000E+000	-1.39982E-001	-1.39985E-001	8	...........
	787	19.7	-1.29965E-001	1.37559E-004	0.00000E+000	-1.29984E-001	-1.29782E-001	8	...........
	788	19.725	-1.20165E-001	1.42267E-004	0.00000E+000	-1.19985E-001	-1.19778E-001	8	...........
	789	19.75	-1.09965E-001	1.47058E-004	0.00000E+000	-1.09986E-001	-1.10174E-001	8	...........
	790	19.775	-9.99651E-002	1.52133E-004	0.00000E+000	-9.99874E-002	-1.00171E-001	8	...........
	791	19.8	-8.99651E-002	1.55489E-004	0.00000E+000	-8.99886E-002	-8.99668E-002	8	...........
	792	19.825	-7.99651E-002	1.60781E-004	0.00000E+000	-7.99899E-002	-8.01632E-002	8	...........
	793	19.85	-7.01651E-002	1.64370E-004	0.00000E+000	-6.99912E-002	-7.01595E-002	8	...........
	794	19.875	-6.01651E-002	1.69896E-004	0.00000E+000	-5.99924E-002	-6.01558E-002	8	...........
	795	19.9	-4.99651E-002	1.74120E-004	0.00000E+000	-4.99937E-002	-4.99521E-002	8	...........
	796	19.925	-3.99651E-002	1.79746E-004	0.00000E+000	-3.99949E-002	-4.01484E-002	8	...........
	797	19.95	-2.99651E-002	1.83269E-004	0.00000E+000	-2.99962E-002	-3.03448E-002	8	...........
	798	19.975	-2.01651E-002	1.89012E-004	0.00000E+000	-1.99975E-002	-2.01410E-002	8	...........
	799	20	-1.03651E-002	1.93770E-004	0.00000E+000	-9.99874E-003	-1.01373E-002	8	...........
	800	20.025	-1.65120E-004	1.98645E-004	0.00000E+000	0.00000E+000	-1.33649E-004	8	...........
	801	20.05	9.83488E-003	2.03302E-004	0.00000E+000	9.99874E-003	9.87005E-003	8	...........
	802	20.075	1.98349E-002	2.07743E-004	0.00000E+000	1.99975E-002	1.98737E-002	8	...........
	803	20.1	2.98349E-002	2.12902E-004	0.00000E+000	2.99962E-002	2.98774E-002	8	...........
	804	20.125	4.00349E-002	2.18144E-004	0.00000E+000	3.99949E-002	3.98811E-002	8	...........
	805	20.15	4.98349E-002	2.22935E-004	0.00000E+000	4.99937E-002	4.98848E-002	8	...........
	806	20.175	5.98349E-002	2.27109E-004	0.00000E+000	5.99924E-002	5.98885E-002	8	...........
	807	20.2	6.98349E-002	2.32785E-004	0.00000E+000	6.99912E-002	6.96922E-002	8	...........
	808	20.225	7.98349E-002	2.37660E-004	0.00000E+000	7.99899E-002	7.98959E-002	8	...........
	809	20.25	8.98349E-002	2.43353E-004	0.00000E+000	8.99886E-002	8.96996E-002	8	...........
	810	20.275	9.98349E-002	2.48061E-004	0.00000E+000	9.99874E-002	9.95032E-002	8	...........
	811	20.3	1.09835E-001	2.53871E-004	0.00000E+000	1.09986E-001	1.09707E-001	8	...........
	812	20.325	1.19635E-001	2.58762E-004	0.00000E+000	1.19985E-001	1.19511E-001	8	...........
	813	20.35	1.29835E-001	2.64488E-004	0.00000E+000	1.29984E-001	1.29714E-001	8	...........
	814	20.375	1.39835E-001	2.70081E-004	0.00000E+000	1.39982E-001	1.39918E-001	8	...........
	815	20.4	1.49835E-001	2.75908E-004	0.00000E+000	1.49981E-001	1.49722E-001	8	...........
	816	20.425	1.59835E-001	2.81584E-004	0.00000E+000	1.59980E-001	1.59725E-001	8	...........
	817	20.45	1.69635E-001	2.88328E-004	0.00000E+000	1.69979E-001	1.69529E-001	8	...........
	818	20.475	1.80035E-001	2.93821E-004	0.00000E+000	1.79977E-001	1.79733E-001	8	...........
	819	20.5	1.89835E-001	3.00499E-004	0.00000E+000	1.90026E-001	1.89737E-001	8	...........
	820	20.525	2.00035E-001	3.06843E-004	0.00000E+000	2.00025E-001	1.99740E-001	8	...........
	821	20.55	2.09835E-001	3.13738E-004	0.00000E+000	2.10023E-001	2.09744E-001	8	...........
	822	20.575	2.19835E-001	3.20466E-004	0.00000E+000	2.20022E-001	2.19748E-001	8	...........
	823	20.6	2.29835E-001	3.26977E-004	0.00000E+000	2.30021E-001	2.29751E-001	8	...........
	824	20.625	2.39635E-001	3.35073E-004	0.00000E+000	2.40020E-001	2.39555E-001	8	...........
	825	20.65	2.49635E-001	3.41651E-004	0.00000E+000	2.50018E-001	2.49559E-001	8	...........
	826	20.675	2.59835E-001	3.48229E-004	0.00000E+000	2.60017E-001	2.59362E-001	8	...........
	827	20.7	2.69835E-001	3.55224E-004	0.00000E+000	2.70016E-001	2.69566E-001	8	...........
	828	20.725	2.79635E-001	3.62302E-004	0.00000E+000	2.80015E-001	2.79570E-001	8	...........
	829	20.75	2.89835E-001	3.69581E-004	0.00000E+000	2.90013E-001	2.89573E-001	8	...........
	830	20.775	2.99835E-001	3.76977E-004	0.00000E+000	3.00012E-001	2.99377E-001	8	...........
	831	20.8	3.09635E-001	3.84339E-004	0.00000E+000	3.10011E-001	3.09581E-001	8	...........
	832	20.825	3.19835E-001	3.91869E-004	0.00000E+000	3.20010E-001	3.19585E-001	8	...........
	833	20.85	3.29635E-001	3.98864E-004	0.00000E+000	3.30008E-001	3.29588E-001	8	...........
	834	20.875	3.39635E-001	4.05525E-004	0.00000E+000	3.40007E-001	3.39592E-001	8	...........
	835	20.9	3.49835E-001	4.12236E-004	0.00000E+000	3.50006E-001	3.49596E-001	8	...........
	836	20.925	3.59835E-001	4.19882E-004	0.00000E+000	3.60005E-001	3.59599E-001	8	...........
	837	20.95	3.69635E-001	4.26811E-004	0.00000E+000	3.70003E-001	3.69603E-001	8	...........
	838	20.975	3.79835E-001	4.33856E-004	0.00000E+000	3.80002E-001	3.79407E-001	8	...........
	839	21	3.89835E-001	4.40834E-004	0.00000E+000	3.90001E-001	3.89410E-001	8	...........
	840	21.025	3.99635E-001	4.47579E-004	0.00000E+000	3.99999E-001	3.99614E-001	8	...........
	841	21.05	4.09635E-001	4.54875E-004	0.00000E+000	4.09998E-001	4.09618E-001	9	...........
	842	21.075	4.19635E-001	4.61544E-004	0.00000E+000	4.19997E-001	4.19421E-001	9	...........
	843	21.1	4.29435E-001	4.68378E-004	0.00000E+000	4.29996E-001	4.29625E-001	9	...........
	844	21.125	4.39635E-001	4.75046E-004	0.00000E+000	4.39994E-001	4.39829E-001	9	...........
	845	21.15	4.49635E-001	4.82048E-004	0.00000E+000	4.49993E-001	4.49433E-001	9	...........
	846	21.175	4.59635E-001	4.88549E-004	0.00000E+000	4.59992E-001	4.59436E-001	9	...........
	847	21.2	4.69635E-001	4.95051E-004	0.00000E+000	4.69991E-001	4.69440E-001	9	...........
	848	21.225	4.79435E-001	5.01719E-004	0.00000E+000	4.79989E-001	4.79444E-001	9	...........
	849	21.25	4.89435E-001	5.09054E-004	0.00000E+000	4.89988E-001	4.89447E-001	9	...........
	850	21.275	4.99635E-001	5.16222E-004	0.00000E+000	4.99987E-001	4.99451E-001	9	...........
	851	21.3	5.09635E-001	5.22223E-004	0.00000E+000	5.09986E-001	5.09255E-001	9	...........
	852	21.325	5.19435E-001	5.29558E-004	0.00000E+000	5.19984E-001	5.19659E-001	9	...........
	853	21.35	5.29635E-001	5.36559E-004	0.00000E+000	5.29983E-001	5.29462E-001	9	...........
	854	21.375	5.39435E-001	5.43727E-004	0.00000E+000	5.39982E-001	5.39266E-001	9	...........
	855	21.4	5.49435E-001	5.51062E-004	0.00000E+000	5.49981E-001	5.49069E-001	9	...........
	856	21.425	5.59635E-001	5.57730E-004	0.00000E+000	5.59979E-001	5.59473E-001	9	...........
	857	21.45	5.69635E-001	5.65732E-004	0.00000E+000	5.69978E-001	5.69477E-001	9	...........
	858	21.475	5.79635E-001	5.72900E-004	0.00000E+000	5.79977E-001	5.79280E-001	9	...........
	859	21.5	5.89435E-001	5.80235E-004	0.00000E+000	5.89975E-001	5.89284E-001	9	...........
	860	21.525	5.99435E-001	5.88403E-004	0.00000E+000	6.00024E-001	5.99488E-001	9	...........
	861	21.55	6.09435E-001	5.96572E-004	0.00000E+000	6.10023E-001	6.09492E-001	9	...........
	862	21.575	6.19635E-001	6.04574E-004	0.00000E+000	6.20022E-001	6.19495E-001	9	...........
	863	21.6	6.29435E-001	6.12575E-004	0.00000E+000	6.30020E-001	6.29499E-001	9	...........
	864	21.625	6.39235E-001	6.20244E-004	0.00000E+000	6.40019E-001	6.39303E-001	9	...........
	865	21.65	6.49435E-001	6.29245E-004	0.00000E+000	6.50018E-001	6.49507E-001	9	...........
	866	21.675	6.59435E-001	6.37747E-004	0.00000E+000	6.60017E-001	6.59310E-001	9	...........
	867	21.7	6.69435E-001	6.46582E-004	0.00000E+000	6.70015E-001	6.69514E-001	9	...........
	868	21.725	6.79435E-001	6.55251E-004	0.00000E+000	6.80014E-001	6.79318E-001	9	...........
	869	21.75	6.89235E-001	6.63586E-004	0.00000E+000	6.90013E-001	6.89321E-001	9	...........
	870	21.775	6.99435E-001	6.73255E-004	0.00000E+000	7.00012E-001	6.99325E-001	9	...........
	871	21.8	7.09635E-001	6.82757E-004	0.00000E+000	7.10010E-001	7.09329E-001	9	...........
	872	21.825	7.19435E-001	6.92759E-004	0.00000E+000	7.20009E-001	7.19532E-001	9	...........
	873	21.85	7.29435E-001	7.02094E-004	0.00000E+000	7.30008E-001	7.29336E-001	9	...........
	874	21.875	7.39435E-001	7.12263E-004	0.00000E+000	7.40007E-001	7.39340E-001	9	...........
	875	21.9	7.49235E-001	7.22432E-004	0.00000E+000	7.50005E-001	7.49343E-001	9	...........
	876	21.925	7.59235E-001	7.32767E-004	0.00000E+000	7.60004E-001	7.59347E-001	9	...........
	877	21.95	7.69235E-001	7.43103E-004	0.00000E+000	7.70003E-001	7.69351E-001	9	...........
	878	21.975	7.79435E-001	7.55105E-004	0.00000E+000	7.80001E-001	7.79354E-001	9	...........
	879	22	7.89435E-001	7.65607E-004	0.00000E+000	7.90000E-001	7.88958E-001	9	...........
	880	22.025	7.99435E-001	7.75943E-004	0.00000E+000	7.99999E-001	7.99162E-001	9	...........
CURVE4	TABLE
	Pt	T	Vf	Im	Vu	Sig	Ach	IERange	Over
	#	s	V vs. Ref.	A	V	V	V	#	bits
	881	22.05	7.89435E-001	7.07929E-004	0.00000E+000	7.90000E-001	7.89358E-001	9	...........
	882	22.075	7.79435E-001	6.56418E-004	0.00000E+000	7.80001E-001	7.79354E-001	9	...........
	883	22.1	7.69235E-001	6.12575E-004	0.00000E+000	7.70003E-001	7.69151E-001	9	...........
	884	22.125	7.59435E-001	5.72734E-004	0.00000E+000	7.60004E-001	7.59147E-001	9	...........
	885	22.15	7.49235E-001	5.37393E-004	0.00000E+000	7.50005E-001	7.49343E-001	9	...........
	886	22.175	7.39435E-001	5.05053E-004	0.00000E+000	7.40007E-001	7.39340E-001	9	...........
	887	22.2	7.29435E-001	4.75046E-004	0.00000E+000	7.30008E-001	7.29336E-001	9	...........
	888	22.225	7.19235E-001	4.46374E-004	0.00000E+000	7.20009E-001	7.19332E-001	9	...........
	889	22.25	7.09435E-001	4.20035E-004	0.00000E+000	7.10010E-001	7.09329E-001	9	...........
	890	22.275	6.99435E-001	3.95196E-004	0.00000E+000	7.00012E-001	6.99125E-001	9	...........
	891	22.3	6.89435E-001	3.72236E-004	0.00000E+000	6.90013E-001	6.89721E-001	8	...........
	892	22.325	6.79435E-001	3.49765E-004	0.00000E+000	6.80014E-001	6.79518E-001	8	...........
	893	22.35	6.69635E-001	3.29381E-004	0.00000E+000	6.70015E-001	6.69314E-001	8	...........
	894	22.375	6.59435E-001	3.09681E-004	0.00000E+000	6.60017E-001	6.59510E-001	8	...........
	895	22.4	6.49435E-001	2.90666E-004	0.00000E+000	6.50018E-001	6.49507E-001	8	...........
	896	22.425	6.39435E-001	2.73303E-004	0.00000E+000	6.40019E-001	6.39303E-001	8	...........
	897	22.45	6.29435E-001	2.56024E-004	0.00000E+000	6.30020E-001	6.29299E-001	8	...........
	898	22.475	6.19435E-001	2.40431E-004	0.00000E+000	6.20022E-001	6.19495E-001	8	...........
	899	22.5	6.09435E-001	2.24338E-004	0.00000E+000	6.10023E-001	6.09492E-001	8	...........
	900	22.525	5.99435E-001	2.09863E-004	0.00000E+000	6.00024E-001	5.99488E-001	8	...........
	901	22.55	5.89435E-001	1.94821E-004	0.00000E+000	5.89975E-001	5.89084E-001	8	...........
	902	22.575	5.79435E-001	1.80831E-004	0.00000E+000	5.79977E-001	5.79280E-001	8	...........
	903	22.6	5.69435E-001	1.67392E-004	0.00000E+000	5.69978E-001	5.69477E-001	8	...........
	904	22.625	5.59435E-001	1.55122E-004	0.00000E+000	5.59979E-001	5.59473E-001	8	...........
	905	22.65	5.49435E-001	1.42050E-004	0.00000E+000	5.49981E-001	5.49469E-001	8	...........
	906	22.675	5.39635E-001	1.30514E-004	0.00000E+000	5.39982E-001	5.39266E-001	8	...........
	907	22.7	5.29435E-001	1.19028E-004	0.00000E+000	5.29983E-001	5.29462E-001	8	...........
	908	22.725	5.19435E-001	1.08143E-004	0.00000E+000	5.19984E-001	5.19458E-001	8	...........
	909	22.75	5.09435E-001	9.74748E-005	0.00000E+000	5.09986E-001	5.09455E-001	8	...........
	910	22.775	4.99435E-001	8.70741E-005	0.00000E+000	4.99987E-001	4.99251E-001	8	...........
	911	22.8	4.89435E-001	7.71741E-005	0.00000E+000	4.89988E-001	4.89447E-001	8	...........
	912	22.825	4.79635E-001	6.71907E-005	0.00000E+000	4.79989E-001	4.79444E-001	8	...........
	913	22.85	4.69635E-001	5.81422E-005	0.00000E+000	4.69991E-001	4.69440E-001	8	...........
	914	22.875	4.59635E-001	4.87431E-005	0.00000E+000	4.59992E-001	4.59436E-001	8	...........
	915	22.9	4.49635E-001	3.94108E-005	0.00000E+000	4.49993E-001	4.49433E-001	8	...........
	916	22.925	4.39635E-001	3.11534E-005	0.00000E+000	4.39994E-001	4.39429E-001	7	...........
	917	22.95	4.29635E-001	2.24668E-005	0.00000E+000	4.29996E-001	4.29625E-001	7	...........
	918	22.975	4.19635E-001	1.43263E-005	0.00000E+000	4.19997E-001	4.19421E-001	7	...........
	919	23	4.09435E-001	6.05723E-006	0.00000E+000	4.09998E-001	4.09618E-001	7	...........
	920	23.025	3.99635E-001	-1.64066E-006	0.00000E+000	3.99999E-001	3.99414E-001	7	...........
	921	23.05	3.89635E-001	-9.01452E-006	0.00000E+000	3.90001E-001	3.89610E-001	7	...........
	922	23.075	3.79635E-001	-1.64535E-005	0.00000E+000	3.80002E-001	3.79607E-001	7	...........
	923	23.1	3.69635E-001	-2.35969E-005	0.00000E+000	3.70003E-001	3.69603E-001	7	...........
	924	23.125	3.59635E-001	-3.07954E-005	0.00000E+000	3.60005E-001	3.59599E-001	7	...........
	925	23.15	3.49635E-001	-3.72256E-005	0.00000E+000	3.50006E-001	3.49596E-001	7	...........
	926	23.175	3.39635E-001	-4.42203E-005	0.00000E+000	3.40007E-001	3.39592E-001	7	...........
	927	23.2	3.29635E-001	-5.06305E-005	0.00000E+000	3.30008E-001	3.29588E-001	7	.....h.....
	928	23.225	3.19635E-001	-5.70677E-005	0.00000E+000	3.20010E-001	3.19585E-001	8	...........
	929	23.25	3.09635E-001	-6.39459E-005	0.00000E+000	3.10011E-001	3.09781E-001	8	...........
	930	23.275	2.99635E-001	-6.99059E-005	0.00000E+000	3.00012E-001	2.99577E-001	8	...........
	931	23.3	2.89835E-001	-7.56990E-005	0.00000E+000	2.90013E-001	2.89573E-001	8	...........
	932	23.325	2.79835E-001	-8.15755E-005	0.00000E+000	2.80015E-001	2.79570E-001	8	...........
	933	23.35	2.69635E-001	-8.74020E-005	0.00000E+000	2.70016E-001	2.69566E-001	8	...........
	934	23.375	2.59635E-001	-9.31950E-005	0.00000E+000	2.60017E-001	2.59762E-001	8	...........
	935	23.4	2.49835E-001	-9.83704E-005	0.00000E+000	2.50018E-001	2.49759E-001	8	...........
	936	23.425	2.39835E-001	-1.03462E-004	0.00000E+000	2.40020E-001	2.39755E-001	8	...........
	937	23.45	2.29635E-001	-1.09723E-004	0.00000E+000	2.30021E-001	2.29751E-001	8	...........
	938	23.475	2.19835E-001	-1.15265E-004	0.00000E+000	2.20022E-001	2.19748E-001	8	...........
	939	23.5	2.09835E-001	-1.20391E-004	0.00000E+000	2.10023E-001	2.09744E-001	8	...........
	940	23.525	1.99835E-001	-1.25332E-004	0.00000E+000	2.00025E-001	1.99540E-001	8	...........
	941	23.55	1.90035E-001	-1.30508E-004	0.00000E+000	1.90026E-001	1.89737E-001	8	...........
	942	23.575	1.79835E-001	-1.36518E-004	0.00000E+000	1.79977E-001	1.79533E-001	8	...........
	943	23.6	1.69835E-001	-1.42177E-004	0.00000E+000	1.69979E-001	1.69729E-001	8	...........
	944	23.625	1.59835E-001	-1.46384E-004	0.00000E+000	1.59980E-001	1.59725E-001	8	...........
	945	23.65	1.49835E-001	-1.53029E-004	0.00000E+000	1.49981E-001	1.49722E-001	8	...........
	946	23.675	1.39635E-001	-1.56234E-004	0.00000E+000	1.39982E-001	1.39518E-001	8	...........
	947	23.7	1.29635E-001	-1.61092E-004	0.00000E+000	1.29984E-001	1.29914E-001	8	...........
	948	23.725	1.19835E-001	-1.67436E-004	0.00000E+000	1.19985E-001	1.19711E-001	8	...........
	949	23.75	1.09835E-001	-1.72328E-004	0.00000E+000	1.09986E-001	1.09907E-001	8	...........
	950	23.775	9.96349E-002	-1.76769E-004	0.00000E+000	9.99874E-002	9.97033E-002	8	...........
	951	23.8	8.98349E-002	-1.81326E-004	0.00000E+000	8.99886E-002	8.98996E-002	8	...........
	952	23.825	7.98349E-002	-1.86418E-004	0.00000E+000	7.99899E-002	7.96959E-002	8	...........
	953	23.85	6.98349E-002	-1.91193E-004	0.00000E+000	6.99912E-002	6.98922E-002	8	...........
	954	23.875	6.00349E-002	-1.94982E-004	0.00000E+000	5.99924E-002	5.98885E-002	8	...........
	955	23.9	5.00349E-002	-1.99306E-004	0.00000E+000	4.99937E-002	4.96848E-002	8	...........
	956	23.925	3.98349E-002	-2.04799E-004	0.00000E+000	3.99949E-002	3.98811E-002	8	...........
	957	23.95	2.98349E-002	-2.08455E-004	0.00000E+000	2.99962E-002	2.98774E-002	8	...........
	958	23.975	2.00349E-002	-2.12679E-004	0.00000E+000	1.99975E-002	1.98737E-002	8	...........
	959	24	1.00349E-002	-2.17120E-004	0.00000E+000	9.99874E-003	9.87005E-003	8	...........
	960	24.025	-1.65120E-004	-2.21594E-004	0.00000E+000	0.00000E+000	-1.33649E-004	8	...........
