EXPLAIN
TAG	CV
TITLE	LABEL	Cyclic Voltammetry	Test Identifier
DATE	LABEL	11-7-2017	Date
TIME	LABEL	13:37:34	Time
NOTES	NOTES	1	Notes...
	0.8mg

PSTAT	PSTAT	IFC5000-01520	Potentiostat
VINIT	POTEN	0.00000E+000	F	Initial E (V)
VLIMIT1	POTEN	-8.00000E-001	F	Scan Limit 1 (V)
VLIMIT2	POTEN	8.00000E-001	F	Scan Limit 2 (V)
VFINAL	POTEN	0.00000E+000	F	Final E (V)
SCANRATE	QUANT	2.00000E+002	A Real Number
STEPSIZE	QUANT	1.00000E+001	Step Size (mV)
CYCLES	IQUANT	3	Cycles (#)
IMODE	SELECTOR	0	I/E Range Mode
IRANGE	QUANT	2.50000E+002	Max Current (mA)
AREA	QUANT	3.84800E-001	A Real Number
EQDELAY	QUANT	1.00000E+000	Equil. Time (s)
IRCOMP	SELECTOR	0	IRComp
PFCOR	QUANT	2.50000E+002	PF Corr. (ohm)
SAMPLINGMODE	SELECTOR	0	Sampling Mode
EOC	QUANT	0	Open Circuit (V)
SEQUENCER	TOGGLE	TRUE	Run as Sequence
PSTATMODEL	IQUANT	53	Pstat Model
PSTATSECTION	LABEL	IFC5000-01520	Pstat Section
PSTATSERIALNO	LABEL	01520	Pstat Serial Number
CTRLMODE	IQUANT	1	Control Mode
ELECTROMETER	IQUANT	0	RE=0 or CS=1
IESTAB	IQUANT	2	I/E Stability
CASPEED	IQUANT	4	Control Amp Speed
CONVENTION	IQUANT	1	Current Convention
ICHRANGE	IQUANT	2	Ich Range
ICHRANGEMODE	TOGGLE	F	Ich Auto Range
ICHOFFSETENABLE	TOGGLE	F	Ich Offset Enable
ICHOFFSET	QUANT	0	Ich Offset (V)
ICHFILTER	IQUANT	3	Ich Filter
VCHRANGE	IQUANT	2	Vch Range
VCHRANGEMODE	TOGGLE	F	Vch Auto Range
VCHOFFSETENABLE	TOGGLE	F	Vch Offset Enable
VCHOFFSET	QUANT	0	Vch Offset (V)
VCHFILTER	IQUANT	3	Vch Filter
IERANGELOWERLIMIT	IQUANT	7	I/E Range Lower Limit
IERANGEMODE	TOGGLE	T	I/E AutoRange
IERANGE	IQUANT	11	I/E Range
ACHSELECT	IQUANT	1	Ach Select
ACHRANGE	IQUANT	2	Ach Range
ACHOFFSETENABLE	TOGGLE	F	Ach Offset Enable
ACHOFFSET	QUANT	0	Ach Offset (V)
ACHFILTER	IQUANT	1	Ach Filter
CABLEID	IQUANT	14	Cable ID
DCCALDATE	LABEL	5-7-2017	DC Calibration Date
ACCALDATE	LABEL	12/3/2015	AC Calibration Date
FRAMEWORKVERSION	QUANT	7.01	Framework Version
INSTRUMENTVERSION	LABEL	4.00	Instrument Version
CURVE1	TABLE
	Pt	T	Vf	Im	Vu	Sig	Ach	IERange	Over
	#	s	V vs. Ref.	A	V	V	V	#	bits
	0	0.05	-1.65120E-004	-7.19939E-005	0.00000E+000	0.00000E+000	-1.33649E-004	11	...........
	1	0.1	-1.01651E-002	-9.39927E-005	0.00000E+000	-9.99874E-003	-1.01373E-002	10	...........
	2	0.15	-1.99651E-002	-1.03075E-004	0.00000E+000	-1.99975E-002	-2.01410E-002	9	...........
	3	0.2	-3.03651E-002	-1.11943E-004	0.00000E+000	-2.99962E-002	-2.99447E-002	8	...........
	4	0.25	-3.99651E-002	-1.19589E-004	0.00000E+000	-3.99949E-002	-4.01484E-002	8	...........
	5	0.3	-4.99651E-002	-1.26668E-004	0.00000E+000	-4.99937E-002	-4.99521E-002	8	...........
	6	0.35	-6.01651E-002	-1.35065E-004	0.00000E+000	-5.99924E-002	-5.99558E-002	8	...........
	7	0.4	-7.01651E-002	-1.41443E-004	0.00000E+000	-6.99912E-002	-7.01595E-002	8	...........
	8	0.45	-8.01651E-002	-1.48688E-004	0.00000E+000	-7.99899E-002	-8.01632E-002	8	...........
	9	0.5	-8.99651E-002	-1.55049E-004	0.00000E+000	-8.99886E-002	-8.99668E-002	8	...........
	10	0.55	-9.99651E-002	-1.61009E-004	0.00000E+000	-9.99874E-002	-9.99706E-002	8	...........
	11	0.6	-1.09965E-001	-1.67036E-004	0.00000E+000	-1.09986E-001	-1.09974E-001	8	...........
	12	0.65	-1.19965E-001	-1.73380E-004	0.00000E+000	-1.19985E-001	-1.19978E-001	8	...........
	13	0.7	-1.29965E-001	-1.80174E-004	0.00000E+000	-1.29984E-001	-1.29982E-001	8	...........
	14	0.75	-1.39965E-001	-1.85316E-004	0.00000E+000	-1.39982E-001	-1.40185E-001	8	...........
	15	0.8	-1.49965E-001	-1.90775E-004	0.00000E+000	-1.49981E-001	-1.49989E-001	8	...........
	16	0.85	-1.59965E-001	-1.97871E-004	0.00000E+000	-1.59980E-001	-1.59993E-001	8	...........
	17	0.9	-1.69965E-001	-2.03864E-004	0.00000E+000	-1.69979E-001	-1.69796E-001	8	...........
	18	0.95	-1.79965E-001	-2.09140E-004	0.00000E+000	-1.79977E-001	-1.80000E-001	8	...........
	19	1	-1.89965E-001	-2.14933E-004	0.00000E+000	-1.89976E-001	-1.90004E-001	8	...........
	20	1.05	-1.99765E-001	-2.20091E-004	0.00000E+000	-1.99975E-001	-2.00008E-001	8	...........
	21	1.1	-2.09965E-001	-2.26018E-004	0.00000E+000	-2.10023E-001	-2.10011E-001	8	...........
	22	1.15	-2.19965E-001	-2.31995E-004	0.00000E+000	-2.20022E-001	-2.20015E-001	8	...........
	23	1.2	-2.29965E-001	-2.38489E-004	0.00000E+000	-2.30021E-001	-2.29819E-001	8	...........
	24	1.25	-2.39965E-001	-2.43998E-004	0.00000E+000	-2.40020E-001	-2.40022E-001	8	...........
	25	1.3	-2.49965E-001	-2.50509E-004	0.00000E+000	-2.50018E-001	-2.50026E-001	8	...........
	26	1.35	-2.59765E-001	-2.56068E-004	0.00000E+000	-2.60017E-001	-2.59830E-001	8	...........
	27	1.4	-2.69965E-001	-2.61594E-004	0.00000E+000	-2.70016E-001	-2.69833E-001	8	...........
	28	1.45	-2.79965E-001	-2.67387E-004	0.00000E+000	-2.80015E-001	-2.79837E-001	8	...........
	29	1.5	-2.89965E-001	-2.73698E-004	0.00000E+000	-2.90013E-001	-2.89841E-001	8	...........
	30	1.55	-2.99965E-001	-2.80359E-004	0.00000E+000	-3.00012E-001	-2.99844E-001	8	...........
	31	1.6	-3.09965E-001	-2.86219E-004	0.00000E+000	-3.10011E-001	-3.09848E-001	8	...........
	32	1.65	-3.19965E-001	-2.92479E-004	0.00000E+000	-3.20010E-001	-3.19852E-001	8	...........
	33	1.7	-3.29765E-001	-2.98539E-004	0.00000E+000	-3.30008E-001	-3.29856E-001	8	...........
	34	1.75	-3.39765E-001	-3.04149E-004	0.00000E+000	-3.40007E-001	-3.39659E-001	8	...........
	35	1.8	-3.49765E-001	-3.09508E-004	0.00000E+000	-3.50006E-001	-3.49863E-001	8	...........
	36	1.85	-3.59765E-001	-3.16136E-004	0.00000E+000	-3.60005E-001	-3.59867E-001	8	...........
	37	1.9	-3.69765E-001	-3.22229E-004	0.00000E+000	-3.70003E-001	-3.69870E-001	8	...........
	38	1.95	-3.79765E-001	-3.28390E-004	0.00000E+000	-3.80002E-001	-3.79874E-001	8	...........
	39	2	-3.89765E-001	-3.33498E-004	0.00000E+000	-3.90001E-001	-3.89678E-001	8	...........
	40	2.05	-3.99965E-001	-3.40493E-004	0.00000E+000	-3.99999E-001	-3.99681E-001	8	...........
	41	2.1	-4.09765E-001	-3.46386E-004	0.00000E+000	-4.09998E-001	-4.09685E-001	8	...........
	42	2.15	-4.19965E-001	-3.51712E-004	0.00000E+000	-4.19997E-001	-4.19889E-001	8	...........
	43	2.2	-4.29565E-001	-3.57138E-004	0.00000E+000	-4.29996E-001	-4.29692E-001	8	...........
	44	2.25	-4.39565E-001	-3.63882E-004	0.00000E+000	-4.39994E-001	-4.39696E-001	8	...........
	45	2.3	-4.49565E-001	-3.68540E-004	0.00000E+000	-4.49993E-001	-4.49900E-001	8	...........
	46	2.35	-4.59565E-001	-3.74918E-004	0.00000E+000	-4.59992E-001	-4.59704E-001	8	...........
	47	2.4	-4.69765E-001	-3.80160E-004	0.00000E+000	-4.69991E-001	-4.69507E-001	8	...........
	48	2.45	-4.79565E-001	-3.85619E-004	0.00000E+000	-4.79989E-001	-4.79711E-001	8	...........
	49	2.5	-4.89565E-001	-3.91212E-004	0.00000E+000	-4.89988E-001	-4.89715E-001	8	...........
	50	2.55	-4.99765E-001	-3.96020E-004	0.00000E+000	-4.99987E-001	-4.99518E-001	8	...........
	51	2.6	-5.09765E-001	-4.02447E-004	0.00000E+000	-5.09986E-001	-5.09722E-001	8	...........
	52	2.65	-5.19765E-001	-4.08324E-004	0.00000E+000	-5.19984E-001	-5.19526E-001	8	...........
	53	2.7	-5.29765E-001	-4.13933E-004	0.00000E+000	-5.29983E-001	-5.29729E-001	8	...........
	54	2.75	-5.39765E-001	-4.19108E-004	0.00000E+000	-5.39982E-001	-5.39733E-001	8	...........
	55	2.8	-5.49765E-001	-4.24284E-004	0.00000E+000	-5.49981E-001	-5.49537E-001	8	...........
	56	2.85	-5.59765E-001	-4.29810E-004	0.00000E+000	-5.59979E-001	-5.59540E-001	8	...........
	57	2.9	-5.69565E-001	-4.35402E-004	0.00000E+000	-5.69978E-001	-5.69744E-001	8	...........
	58	2.95	-5.79565E-001	-4.40261E-004	0.00000E+000	-5.79977E-001	-5.79748E-001	8	...........
	59	3	-5.89565E-001	-4.46254E-004	0.00000E+000	-5.89975E-001	-5.89351E-001	8	...........
	60	3.05	-5.99765E-001	-4.51148E-004	0.00000E+000	-5.99974E-001	-5.99555E-001	9	...........
	61	3.1	-6.09565E-001	-4.56483E-004	0.00000E+000	-6.10023E-001	-6.09759E-001	9	...........
	62	3.15	-6.19565E-001	-4.61984E-004	0.00000E+000	-6.20022E-001	-6.19563E-001	9	...........
	63	3.2	-6.29565E-001	-4.67818E-004	0.00000E+000	-6.30020E-001	-6.29766E-001	9	...........
	64	3.25	-6.39565E-001	-4.73820E-004	0.00000E+000	-6.40019E-001	-6.39570E-001	9	...........
	65	3.3	-6.49565E-001	-4.78987E-004	0.00000E+000	-6.50018E-001	-6.49574E-001	9	...........
	66	3.35	-6.59565E-001	-4.84155E-004	0.00000E+000	-6.60017E-001	-6.59577E-001	9	...........
	67	3.4	-6.69565E-001	-4.90990E-004	0.00000E+000	-6.70015E-001	-6.69581E-001	9	...........
	68	3.45	-6.79565E-001	-4.96658E-004	0.00000E+000	-6.80014E-001	-6.79585E-001	9	...........
	69	3.5	-6.89565E-001	-5.02826E-004	0.00000E+000	-6.90013E-001	-6.89588E-001	9	...........
	70	3.55	-6.99565E-001	-5.08827E-004	0.00000E+000	-7.00012E-001	-6.99592E-001	9	...........
	71	3.6	-7.09565E-001	-5.15162E-004	0.00000E+000	-7.10010E-001	-7.09396E-001	9	...........
	72	3.65	-7.19565E-001	-5.21663E-004	0.00000E+000	-7.20009E-001	-7.19400E-001	9	...........
	73	3.7	-7.29765E-001	-5.28664E-004	0.00000E+000	-7.30008E-001	-7.29603E-001	9	...........
	74	3.75	-7.39565E-001	-5.35499E-004	0.00000E+000	-7.40007E-001	-7.39407E-001	9	...........
	75	3.8	-7.49565E-001	-5.42334E-004	0.00000E+000	-7.50005E-001	-7.49611E-001	9	...........
	76	3.85	-7.59565E-001	-5.49002E-004	0.00000E+000	-7.60004E-001	-7.59414E-001	9	...........
	77	3.9	-7.69365E-001	-5.58171E-004	0.00000E+000	-7.70003E-001	-7.69418E-001	9	...........
	78	3.95	-7.79365E-001	-5.65005E-004	0.00000E+000	-7.80001E-001	-7.79422E-001	9	...........
	79	4	-7.89565E-001	-5.73507E-004	0.00000E+000	-7.90000E-001	-7.89425E-001	9	...........
	80	4.05	-7.99565E-001	-5.81342E-004	0.00000E+000	-7.99999E-001	-7.99429E-001	9	...........
	81	4.1	-7.89565E-001	-5.26164E-004	0.00000E+000	-7.90000E-001	-7.89425E-001	9	...........
	82	4.15	-7.79565E-001	-4.83822E-004	0.00000E+000	-7.80001E-001	-7.79422E-001	9	...........
	83	4.2	-7.69765E-001	-4.48481E-004	0.00000E+000	-7.70003E-001	-7.69418E-001	9	...........
	84	4.25	-7.59565E-001	-4.17141E-004	0.00000E+000	-7.60004E-001	-7.59414E-001	9	...........
	85	4.3	-7.49565E-001	-3.90635E-004	0.00000E+000	-7.50005E-001	-7.49411E-001	9	...........
	86	4.35	-7.39565E-001	-3.65485E-004	0.00000E+000	-7.40007E-001	-7.39407E-001	8	...........
	87	4.4	-7.29565E-001	-3.43181E-004	0.00000E+000	-7.30008E-001	-7.29403E-001	8	...........
	88	4.45	-7.19565E-001	-3.22630E-004	0.00000E+000	-7.20009E-001	-7.19400E-001	8	...........
	89	4.5	-7.09565E-001	-3.03949E-004	0.00000E+000	-7.10010E-001	-7.09396E-001	8	...........
	90	4.55	-6.99365E-001	-2.85584E-004	0.00000E+000	-7.00012E-001	-6.99592E-001	8	...........
	91	4.6	-6.89765E-001	-2.69090E-004	0.00000E+000	-6.90013E-001	-6.89588E-001	8	...........
	92	4.65	-6.79765E-001	-2.53614E-004	0.00000E+000	-6.80014E-001	-6.79785E-001	8	...........
	93	4.7	-6.69565E-001	-2.38823E-004	0.00000E+000	-6.70015E-001	-6.69581E-001	8	...........
	94	4.75	-6.59765E-001	-2.24716E-004	0.00000E+000	-6.60017E-001	-6.59577E-001	8	...........
	95	4.8	-6.49565E-001	-2.11978E-004	0.00000E+000	-6.50018E-001	-6.49574E-001	8	...........
	96	4.85	-6.39565E-001	-1.99240E-004	0.00000E+000	-6.40019E-001	-6.39570E-001	8	...........
	97	4.9	-6.29565E-001	-1.87637E-004	0.00000E+000	-6.30020E-001	-6.29766E-001	8	...........
	98	4.95	-6.19565E-001	-1.75633E-004	0.00000E+000	-6.20022E-001	-6.19563E-001	8	...........
	99	5	-6.09765E-001	-1.64899E-004	0.00000E+000	-6.10023E-001	-6.09759E-001	8	...........
	100	5.05	-5.99765E-001	-1.55433E-004	0.00000E+000	-5.99974E-001	-5.99755E-001	8	...........
	101	5.1	-5.89565E-001	-1.44948E-004	0.00000E+000	-5.89975E-001	-5.89752E-001	8	...........
	102	5.15	-5.79565E-001	-1.36150E-004	0.00000E+000	-5.79977E-001	-5.79548E-001	8	...........
	103	5.2	-5.69765E-001	-1.26417E-004	0.00000E+000	-5.69978E-001	-5.69744E-001	8	...........
	104	5.25	-5.59765E-001	-1.18487E-004	0.00000E+000	-5.59979E-001	-5.59540E-001	8	...........
	105	5.3	-5.49765E-001	-1.10173E-004	0.00000E+000	-5.49981E-001	-5.49537E-001	8	...........
	106	5.35	-5.39765E-001	-1.01643E-004	0.00000E+000	-5.39982E-001	-5.39733E-001	8	...........
	107	5.4	-5.29765E-001	-9.42301E-005	0.00000E+000	-5.29983E-001	-5.29729E-001	8	...........
	108	5.45	-5.19565E-001	-8.65672E-005	0.00000E+000	-5.19984E-001	-5.19726E-001	8	...........
	109	5.5	-5.09765E-001	-7.93050E-005	0.00000E+000	-5.09986E-001	-5.09722E-001	8	...........
	110	5.55	-4.99765E-001	-7.27107E-005	0.00000E+000	-4.99987E-001	-4.99518E-001	8	...........
	111	5.6	-4.89565E-001	-6.55820E-005	0.00000E+000	-4.89988E-001	-4.89715E-001	8	...........
	112	5.65	-4.79565E-001	-5.85536E-005	0.00000E+000	-4.79989E-001	-4.79711E-001	8	...........
	113	5.7	-4.69765E-001	-5.18924E-005	0.00000E+000	-4.69991E-001	-4.69707E-001	8	...........
	114	5.75	-4.59765E-001	-4.60993E-005	0.00000E+000	-4.59992E-001	-4.59503E-001	8	...........
	115	5.8	-4.49765E-001	-4.00726E-005	0.00000E+000	-4.49993E-001	-4.49700E-001	8	...........
	116	5.85	-4.39765E-001	-3.41608E-005	0.00000E+000	-4.39994E-001	-4.39896E-001	7	...........
	117	5.9	-4.29565E-001	-2.86292E-005	0.00000E+000	-4.29996E-001	-4.29692E-001	7	...........
	118	5.95	-4.19565E-001	-2.31142E-005	0.00000E+000	-4.19997E-001	-4.19889E-001	7	...........
	119	6	-4.09565E-001	-1.75091E-005	0.00000E+000	-4.09998E-001	-4.09685E-001	7	...........
	120	6.05	-3.99765E-001	-1.22196E-005	0.00000E+000	-3.99999E-001	-3.99681E-001	7	...........
	121	6.1	-3.89765E-001	-7.17064E-006	0.00000E+000	-3.90001E-001	-3.89878E-001	7	...........
	122	6.15	-3.79965E-001	-2.03315E-006	0.00000E+000	-3.80002E-001	-3.79674E-001	7	...........
	123	6.2	-3.69965E-001	3.21624E-006	0.00000E+000	-3.70003E-001	-3.69870E-001	7	...........
	124	6.25	-3.59765E-001	7.84766E-006	0.00000E+000	-3.60005E-001	-3.59667E-001	7	...........
	125	6.3	-3.49965E-001	1.25058E-005	0.00000E+000	-3.50006E-001	-3.49863E-001	7	...........
	126	6.35	-3.39765E-001	1.74212E-005	0.00000E+000	-3.40007E-001	-3.39659E-001	7	...........
	127	6.4	-3.29965E-001	2.20626E-005	0.00000E+000	-3.30008E-001	-3.30056E-001	7	...........
	128	6.45	-3.19965E-001	2.67575E-005	0.00000E+000	-3.20010E-001	-3.19852E-001	7	...........
	129	6.5	-3.09965E-001	3.10482E-005	0.00000E+000	-3.10011E-001	-3.09848E-001	7	...........
	130	6.55	-2.99765E-001	3.56078E-005	0.00000E+000	-3.00012E-001	-2.99844E-001	7	...........
	131	6.6	-2.89765E-001	3.98735E-005	0.00000E+000	-2.90013E-001	-2.89841E-001	7	...........
	132	6.65	-2.79965E-001	4.42410E-005	0.00000E+000	-2.80015E-001	-2.79837E-001	7	...........
	133	6.7	-2.69965E-001	4.85618E-005	0.00000E+000	-2.70016E-001	-2.69833E-001	7	...........
	134	6.75	-2.59765E-001	5.31505E-005	0.00000E+000	-2.60017E-001	-2.59830E-001	8	...........
	135	6.8	-2.49965E-001	5.72908E-005	0.00000E+000	-2.50018E-001	-2.49826E-001	8	...........
	136	6.85	-2.40165E-001	6.10304E-005	0.00000E+000	-2.40020E-001	-2.39822E-001	8	...........
	137	6.9	-2.29965E-001	6.52708E-005	0.00000E+000	-2.30021E-001	-2.29819E-001	8	...........
	138	6.95	-2.19965E-001	6.84762E-005	0.00000E+000	-2.20022E-001	-2.20015E-001	8	...........
	139	7	-2.09965E-001	7.19320E-005	0.00000E+000	-2.10023E-001	-2.10011E-001	8	...........
	140	7.05	-1.99965E-001	7.66566E-005	0.00000E+000	-1.99975E-001	-2.00008E-001	8	...........
	141	7.1	-1.89965E-001	7.94780E-005	0.00000E+000	-1.89976E-001	-1.89804E-001	8	...........
	142	7.15	-1.79965E-001	8.43695E-005	0.00000E+000	-1.79977E-001	-1.80000E-001	8	...........
	143	7.2	-1.69965E-001	8.71909E-005	0.00000E+000	-1.69979E-001	-1.69996E-001	8	...........
	144	7.25	-1.59765E-001	9.12811E-005	0.00000E+000	-1.59980E-001	-1.59993E-001	8	...........
	145	7.3	-1.49965E-001	9.46368E-005	0.00000E+000	-1.49981E-001	-1.49989E-001	8	...........
	146	7.35	-1.39965E-001	9.81259E-005	0.00000E+000	-1.39982E-001	-1.39985E-001	8	...........
	147	7.4	-1.30165E-001	1.01431E-004	0.00000E+000	-1.29984E-001	-1.29982E-001	8	...........
	148	7.45	-1.19965E-001	1.05455E-004	0.00000E+000	-1.19985E-001	-1.20178E-001	8	...........
	149	7.5	-1.09965E-001	1.09278E-004	0.00000E+000	-1.09986E-001	-1.09974E-001	8	...........
	150	7.55	-9.99651E-002	1.13368E-004	0.00000E+000	-9.99874E-002	-1.00171E-001	8	...........
	151	7.6	-8.99651E-002	1.16740E-004	0.00000E+000	-8.99886E-002	-8.99668E-002	8	...........
	152	7.65	-7.99651E-002	1.19712E-004	0.00000E+000	-7.99899E-002	-8.01632E-002	8	...........
	153	7.7	-7.01651E-002	1.22216E-004	0.00000E+000	-6.99912E-002	-7.01595E-002	8	...........
	154	7.75	-6.01651E-002	1.26023E-004	0.00000E+000	-5.99924E-002	-5.99558E-002	8	...........
	155	7.8	-4.97651E-002	1.30330E-004	0.00000E+000	-4.99937E-002	-5.01521E-002	8	...........
	156	7.85	-4.01651E-002	1.33452E-004	0.00000E+000	-3.99949E-002	-4.03485E-002	8	...........
	157	7.9	-3.01651E-002	1.37292E-004	0.00000E+000	-2.99962E-002	-3.01447E-002	8	...........
	158	7.95	-1.99651E-002	1.40597E-004	0.00000E+000	-1.99975E-002	-1.99410E-002	8	...........
	159	8	-1.01651E-002	1.44904E-004	0.00000E+000	-9.99874E-003	-1.01373E-002	8	...........
	160	8.05	-1.65120E-004	1.48227E-004	0.00000E+000	0.00000E+000	6.64245E-005	8	...........
	161	8.1	1.00349E-002	1.51549E-004	0.00000E+000	9.99874E-003	9.87005E-003	8	...........
	162	8.15	2.00349E-002	1.55539E-004	0.00000E+000	1.99975E-002	1.98737E-002	8	...........
	163	8.2	3.00349E-002	1.58594E-004	0.00000E+000	2.99962E-002	2.98774E-002	8	...........
	164	8.25	3.98349E-002	1.63736E-004	0.00000E+000	3.99949E-002	3.96811E-002	8	...........
	165	8.3	4.98349E-002	1.66057E-004	0.00000E+000	4.99937E-002	4.96848E-002	8	...........
	166	8.35	6.00349E-002	1.70230E-004	0.00000E+000	5.99924E-002	5.96885E-002	8	...........
	167	8.4	6.98349E-002	1.74237E-004	0.00000E+000	6.99912E-002	6.96922E-002	8	...........
	168	8.45	7.98349E-002	1.78377E-004	0.00000E+000	7.99899E-002	7.96959E-002	8	...........
	169	8.5	8.96349E-002	1.82851E-004	0.00000E+000	8.99886E-002	8.96996E-002	8	...........
	170	8.55	9.98349E-002	1.86324E-004	0.00000E+000	9.99874E-002	9.97033E-002	8	...........
	171	8.6	1.09835E-001	1.91032E-004	0.00000E+000	1.09986E-001	1.09707E-001	8	...........
	172	8.65	1.19835E-001	1.95940E-004	0.00000E+000	1.19985E-001	1.19911E-001	8	...........
	173	8.7	1.29635E-001	2.00114E-004	0.00000E+000	1.29984E-001	1.29914E-001	8	...........
	174	8.75	1.39835E-001	2.04454E-004	0.00000E+000	1.39982E-001	1.39718E-001	8	...........
	175	8.8	1.49635E-001	2.09646E-004	0.00000E+000	1.49981E-001	1.49522E-001	8	...........
	176	8.85	1.59835E-001	2.15089E-004	0.00000E+000	1.59980E-001	1.59926E-001	8	...........
	177	8.9	1.69835E-001	2.20598E-004	0.00000E+000	1.69979E-001	1.69729E-001	8	...........
	178	8.95	1.79835E-001	2.25389E-004	0.00000E+000	1.79977E-001	1.79733E-001	8	...........
	179	9	1.89635E-001	2.31850E-004	0.00000E+000	1.89976E-001	1.89536E-001	8	...........
	180	9.05	1.99835E-001	2.37159E-004	0.00000E+000	1.99975E-001	1.99540E-001	8	...........
	181	9.1	2.09835E-001	2.42986E-004	0.00000E+000	2.10023E-001	2.09744E-001	8	...........
	182	9.15	2.19835E-001	2.49029E-004	0.00000E+000	2.20022E-001	2.19748E-001	8	...........
	183	9.2	2.29635E-001	2.55022E-004	0.00000E+000	2.30021E-001	2.29551E-001	8	...........
	184	9.25	2.39635E-001	2.61667E-004	0.00000E+000	2.40020E-001	2.39555E-001	8	...........
	185	9.3	2.49635E-001	2.67777E-004	0.00000E+000	2.50018E-001	2.49759E-001	8	...........
	186	9.35	2.59635E-001	2.74004E-004	0.00000E+000	2.60017E-001	2.59562E-001	8	...........
	187	9.4	2.69835E-001	2.79781E-004	0.00000E+000	2.70016E-001	2.69566E-001	8	...........
	188	9.45	2.79635E-001	2.86726E-004	0.00000E+000	2.80015E-001	2.79770E-001	8	...........
	189	9.5	2.89635E-001	2.93988E-004	0.00000E+000	2.90013E-001	2.89774E-001	8	...........
	190	9.55	2.99635E-001	2.99914E-004	0.00000E+000	3.00012E-001	2.99577E-001	8	...........
	191	9.6	3.09635E-001	3.05474E-004	0.00000E+000	3.10011E-001	3.09781E-001	8	...........
	192	9.65	3.19835E-001	3.12135E-004	0.00000E+000	3.20010E-001	3.19585E-001	8	...........
	193	9.7	3.29635E-001	3.18279E-004	0.00000E+000	3.30008E-001	3.29588E-001	8	...........
	194	9.75	3.39635E-001	3.24739E-004	0.00000E+000	3.40007E-001	3.39592E-001	8	...........
	195	9.8	3.49635E-001	3.30015E-004	0.00000E+000	3.50006E-001	3.49596E-001	8	...........
	196	9.85	3.59635E-001	3.36576E-004	0.00000E+000	3.60005E-001	3.59599E-001	8	...........
	197	9.9	3.69635E-001	3.42319E-004	0.00000E+000	3.70003E-001	3.69603E-001	8	...........
	198	9.95	3.79435E-001	3.48680E-004	0.00000E+000	3.80002E-001	3.79607E-001	8	...........
	199	10	3.89635E-001	3.53271E-004	0.00000E+000	3.90001E-001	3.89410E-001	8	...........
	200	10.05	3.99635E-001	3.58095E-004	0.00000E+000	3.99999E-001	3.99414E-001	8	...........
	201	10.1	4.09635E-001	3.63354E-004	0.00000E+000	4.09998E-001	4.09618E-001	8	...........
	202	10.15	4.19635E-001	3.69381E-004	0.00000E+000	4.19997E-001	4.19621E-001	8	...........
	203	10.2	4.29635E-001	3.74239E-004	0.00000E+000	4.29996E-001	4.29625E-001	8	...........
	204	10.25	4.39635E-001	3.78814E-004	0.00000E+000	4.39994E-001	4.39629E-001	8	...........
	205	10.3	4.49435E-001	3.84640E-004	0.00000E+000	4.49993E-001	4.49633E-001	8	...........
	206	10.35	4.59635E-001	3.88763E-004	0.00000E+000	4.59992E-001	4.59436E-001	8	...........
	207	10.4	4.69635E-001	3.94173E-004	0.00000E+000	4.69991E-001	4.69640E-001	8	...........
	208	10.45	4.79435E-001	3.98513E-004	0.00000E+000	4.79989E-001	4.79444E-001	8	...........
	209	10.5	4.89635E-001	4.03522E-004	0.00000E+000	4.89988E-001	4.89247E-001	8	...........
	210	10.55	4.99435E-001	4.08263E-004	0.00000E+000	4.99987E-001	4.99451E-001	8	...........
	211	10.6	5.09635E-001	4.13956E-004	0.00000E+000	5.09986E-001	5.09455E-001	8	...........
	212	10.65	5.19435E-001	4.17712E-004	0.00000E+000	5.19984E-001	5.19458E-001	8	...........
	213	10.7	5.29635E-001	4.22353E-004	0.00000E+000	5.29983E-001	5.29262E-001	8	...........
	214	10.75	5.39435E-001	4.27412E-004	0.00000E+000	5.39982E-001	5.39266E-001	8	...........
	215	10.8	5.49435E-001	4.33355E-004	0.00000E+000	5.49981E-001	5.49269E-001	8	...........
	216	10.85	5.59435E-001	4.37595E-004	0.00000E+000	5.59979E-001	5.59273E-001	8	...........
	217	10.9	5.69635E-001	4.43355E-004	0.00000E+000	5.69978E-001	5.69277E-001	8	...........
	218	10.95	5.79435E-001	4.48013E-004	0.00000E+000	5.79977E-001	5.79280E-001	8	...........
	219	11	5.89435E-001	4.53709E-004	0.00000E+000	5.89975E-001	5.89284E-001	9	...........
	220	11.05	5.99235E-001	4.58710E-004	0.00000E+000	5.99974E-001	5.99488E-001	9	...........
	221	11.1	6.09435E-001	4.64544E-004	0.00000E+000	6.10023E-001	6.09292E-001	9	...........
	222	11.15	6.19435E-001	4.69879E-004	0.00000E+000	6.20022E-001	6.19295E-001	9	...........
	223	11.2	6.29435E-001	4.76213E-004	0.00000E+000	6.30020E-001	6.29299E-001	9	...........
	224	11.25	6.39635E-001	4.81881E-004	0.00000E+000	6.40019E-001	6.39503E-001	9	...........
	225	11.3	6.49435E-001	4.87382E-004	0.00000E+000	6.50018E-001	6.49507E-001	9	...........
	226	11.35	6.59435E-001	4.93884E-004	0.00000E+000	6.60017E-001	6.59310E-001	9	...........
	227	11.4	6.69435E-001	4.99885E-004	0.00000E+000	6.70015E-001	6.69314E-001	9	...........
	228	11.45	6.79435E-001	5.06386E-004	0.00000E+000	6.80014E-001	6.79318E-001	9	...........
	229	11.5	6.89435E-001	5.12554E-004	0.00000E+000	6.90013E-001	6.89321E-001	9	...........
	230	11.55	6.99435E-001	5.19389E-004	0.00000E+000	7.00012E-001	6.99325E-001	9	...........
	231	11.6	7.09635E-001	5.26224E-004	0.00000E+000	7.10010E-001	7.09329E-001	9	...........
	232	11.65	7.19235E-001	5.32225E-004	0.00000E+000	7.20009E-001	7.19332E-001	9	...........
	233	11.7	7.29235E-001	5.40393E-004	0.00000E+000	7.30008E-001	7.29336E-001	9	...........
	234	11.75	7.39235E-001	5.47395E-004	0.00000E+000	7.40007E-001	7.39340E-001	9	...........
	235	11.8	7.49435E-001	5.54563E-004	0.00000E+000	7.50005E-001	7.49343E-001	9	...........
	236	11.85	7.59235E-001	5.62731E-004	0.00000E+000	7.60004E-001	7.59347E-001	9	...........
	237	11.9	7.69435E-001	5.70233E-004	0.00000E+000	7.70003E-001	7.69551E-001	9	...........
	238	11.95	7.79435E-001	5.78401E-004	0.00000E+000	7.80001E-001	7.79354E-001	9	...........
	239	12	7.89435E-001	5.86737E-004	0.00000E+000	7.90000E-001	7.89158E-001	9	...........
	240	12.05	7.99235E-001	5.94572E-004	0.00000E+000	7.99999E-001	7.99162E-001	9	...........
CURVE2	TABLE
	Pt	T	Vf	Im	Vu	Sig	Ach	IERange	Over
	#	s	V vs. Ref.	A	V	V	V	#	bits
	241	12.1	7.89435E-001	5.41060E-004	0.00000E+000	7.90000E-001	7.89158E-001	9	...........
	242	12.15	7.79435E-001	5.00718E-004	0.00000E+000	7.80001E-001	7.79354E-001	9	...........
	243	12.2	7.69635E-001	4.65378E-004	0.00000E+000	7.70003E-001	7.69351E-001	9	...........
	244	12.25	7.59235E-001	4.35205E-004	0.00000E+000	7.60004E-001	7.59347E-001	9	...........
	245	12.3	7.49435E-001	4.06699E-004	0.00000E+000	7.50005E-001	7.49343E-001	9	...........
	246	12.35	7.39435E-001	3.81693E-004	0.00000E+000	7.40007E-001	7.39540E-001	9	...........
	247	12.4	7.29435E-001	3.57862E-004	0.00000E+000	7.30008E-001	7.29336E-001	8	...........
	248	12.45	7.19235E-001	3.36058E-004	0.00000E+000	7.20009E-001	7.19332E-001	8	...........
	249	12.5	7.09435E-001	3.15975E-004	0.00000E+000	7.10010E-001	7.09329E-001	8	...........
	250	12.55	6.99435E-001	2.96759E-004	0.00000E+000	7.00012E-001	6.99125E-001	8	...........
	251	12.6	6.89435E-001	2.79213E-004	0.00000E+000	6.90013E-001	6.89321E-001	8	...........
	252	12.65	6.79435E-001	2.62836E-004	0.00000E+000	6.80014E-001	6.79318E-001	8	...........
	253	12.7	6.69435E-001	2.46158E-004	0.00000E+000	6.70015E-001	6.69314E-001	8	...........
	254	12.75	6.59435E-001	2.31717E-004	0.00000E+000	6.60017E-001	6.59510E-001	8	...........
	255	12.8	6.49235E-001	2.17176E-004	0.00000E+000	6.50018E-001	6.49507E-001	8	...........
	256	12.85	6.39635E-001	2.03720E-004	0.00000E+000	6.40019E-001	6.39303E-001	8	...........
	257	12.9	6.29635E-001	1.90998E-004	0.00000E+000	6.30020E-001	6.29299E-001	8	...........
	258	12.95	6.19635E-001	1.78160E-004	0.00000E+000	6.20022E-001	6.19495E-001	8	...........
	259	13	6.09635E-001	1.66591E-004	0.00000E+000	6.10023E-001	6.09492E-001	8	...........
	260	13.05	5.99435E-001	1.55906E-004	0.00000E+000	6.00024E-001	5.99488E-001	8	...........
	261	13.1	5.89235E-001	1.44053E-004	0.00000E+000	5.89975E-001	5.89284E-001	8	...........
	262	13.15	5.79435E-001	1.34120E-004	0.00000E+000	5.79977E-001	5.79280E-001	8	...........
	263	13.2	5.69635E-001	1.24253E-004	0.00000E+000	5.69978E-001	5.69477E-001	8	...........
	264	13.25	5.59435E-001	1.14737E-004	0.00000E+000	5.59979E-001	5.59273E-001	8	...........
	265	13.3	5.49435E-001	1.05171E-004	0.00000E+000	5.49981E-001	5.49469E-001	8	...........
	266	13.35	5.39635E-001	9.62728E-005	0.00000E+000	5.39982E-001	5.39266E-001	8	...........
	267	13.4	5.29635E-001	8.75248E-005	0.00000E+000	5.29983E-001	5.29262E-001	8	...........
	268	13.45	5.19435E-001	7.92276E-005	0.00000E+000	5.19984E-001	5.19458E-001	8	...........
	269	13.5	5.09635E-001	7.10305E-005	0.00000E+000	5.09986E-001	5.09255E-001	8	...........
	270	13.55	4.99635E-001	6.35179E-005	0.00000E+000	4.99987E-001	4.99451E-001	8	...........
	271	13.6	4.89635E-001	5.54544E-005	0.00000E+000	4.89988E-001	4.89447E-001	8	...........
	272	13.65	4.79435E-001	4.83591E-005	0.00000E+000	4.79989E-001	4.79444E-001	8	...........
	273	13.7	4.69435E-001	4.08632E-005	0.00000E+000	4.69991E-001	4.69440E-001	8	...........
	274	13.75	4.59635E-001	3.37847E-005	0.00000E+000	4.59992E-001	4.59636E-001	8	...........
	275	13.8	4.49435E-001	2.72084E-005	0.00000E+000	4.49993E-001	4.49433E-001	7	...........
	276	13.85	4.39435E-001	2.02588E-005	0.00000E+000	4.39994E-001	4.39429E-001	7	...........
	277	13.9	4.29435E-001	1.41159E-005	0.00000E+000	4.29996E-001	4.29425E-001	7	...........
	278	13.95	4.19635E-001	8.10487E-006	0.00000E+000	4.19997E-001	4.19621E-001	7	...........
	279	14	4.09635E-001	1.75316E-006	0.00000E+000	4.09998E-001	4.09618E-001	7	...........
	280	14.05	3.99435E-001	-3.64488E-006	0.00000E+000	3.99999E-001	3.99414E-001	7	...........
	281	14.1	3.89835E-001	-9.54063E-006	0.00000E+000	3.90001E-001	3.89610E-001	7	...........
	282	14.15	3.79635E-001	-1.50372E-005	0.00000E+000	3.80002E-001	3.79607E-001	7	...........
	283	14.2	3.69635E-001	-2.03451E-005	0.00000E+000	3.70003E-001	3.69603E-001	7	...........
	284	14.25	3.59635E-001	-2.56579E-005	0.00000E+000	3.60005E-001	3.59599E-001	7	...........
	285	14.3	3.49635E-001	-3.07887E-005	0.00000E+000	3.50006E-001	3.49596E-001	7	...........
	286	14.35	3.39635E-001	-3.54669E-005	0.00000E+000	3.40007E-001	3.39592E-001	7	...........
	287	14.4	3.29635E-001	-4.05443E-005	0.00000E+000	3.30008E-001	3.29588E-001	7	...........
	288	14.45	3.19635E-001	-4.51289E-005	0.00000E+000	3.20010E-001	3.19384E-001	7	...........
	289	14.5	3.09635E-001	-4.90877E-005	0.00000E+000	3.10011E-001	3.09581E-001	8	...........
	290	14.55	2.99835E-001	-5.40126E-005	0.00000E+000	3.00012E-001	2.99777E-001	8	...........
	291	14.6	2.89835E-001	-5.93549E-005	0.00000E+000	2.90013E-001	2.89573E-001	8	...........
	292	14.65	2.79835E-001	-6.32281E-005	0.00000E+000	2.80015E-001	2.79770E-001	8	...........
	293	14.7	2.69835E-001	-6.79527E-005	0.00000E+000	2.70016E-001	2.69766E-001	8	...........
	294	14.75	2.59835E-001	-7.15253E-005	0.00000E+000	2.60017E-001	2.59762E-001	8	...........
	295	14.8	2.49635E-001	-7.64670E-005	0.00000E+000	2.50018E-001	2.49759E-001	8	...........
	296	14.85	2.39835E-001	-7.94219E-005	0.00000E+000	2.40020E-001	2.39555E-001	8	...........
	297	14.9	2.29835E-001	-8.47642E-005	0.00000E+000	2.30021E-001	2.29751E-001	8	...........
	298	14.95	2.20035E-001	-8.77693E-005	0.00000E+000	2.20022E-001	2.19748E-001	8	...........
	299	15	2.09635E-001	-9.27276E-005	0.00000E+000	2.10023E-001	2.09944E-001	8	...........
	300	15.05	1.99835E-001	-9.60498E-005	0.00000E+000	2.00025E-001	1.99540E-001	8	...........
	301	15.1	1.89835E-001	-1.00724E-004	0.00000E+000	1.90026E-001	1.89737E-001	8	...........
	302	15.15	1.79835E-001	-1.05165E-004	0.00000E+000	1.79977E-001	1.79733E-001	8	...........
	303	15.2	1.69835E-001	-1.09239E-004	0.00000E+000	1.69979E-001	1.69729E-001	8	...........
	304	15.25	1.59835E-001	-1.12160E-004	0.00000E+000	1.59980E-001	1.59926E-001	8	...........
	305	15.3	1.49835E-001	-1.16835E-004	0.00000E+000	1.49981E-001	1.49722E-001	8	...........
	306	15.35	1.39835E-001	-1.19840E-004	0.00000E+000	1.39982E-001	1.39718E-001	8	...........
	307	15.4	1.29835E-001	-1.25332E-004	0.00000E+000	1.29984E-001	1.29914E-001	8	...........
	308	15.45	1.19835E-001	-1.28120E-004	0.00000E+000	1.19985E-001	1.19911E-001	8	...........
	309	15.5	1.09835E-001	-1.33162E-004	0.00000E+000	1.09986E-001	1.09907E-001	8	...........
	310	15.55	9.98349E-002	-1.37102E-004	0.00000E+000	9.99874E-002	9.97033E-002	8	...........
	311	15.6	9.00349E-002	-1.40925E-004	0.00000E+000	8.99886E-002	8.96996E-002	8	...........
	312	15.65	7.98349E-002	-1.45499E-004	0.00000E+000	7.99899E-002	7.98959E-002	8	...........
	313	15.7	6.98349E-002	-1.49673E-004	0.00000E+000	6.99912E-002	6.96922E-002	8	...........
	314	15.75	5.98349E-002	-1.53379E-004	0.00000E+000	5.99924E-002	5.98885E-002	8	...........
	315	15.8	4.98349E-002	-1.58321E-004	0.00000E+000	4.99937E-002	4.98848E-002	8	...........
	316	15.85	3.98349E-002	-1.61743E-004	0.00000E+000	3.99949E-002	3.98811E-002	8	...........
	317	15.9	2.98349E-002	-1.64565E-004	0.00000E+000	2.99962E-002	2.98774E-002	8	...........
	318	15.95	2.00349E-002	-1.69072E-004	0.00000E+000	1.99975E-002	1.98737E-002	8	...........
	319	16	9.83488E-003	-1.73747E-004	0.00000E+000	9.99874E-003	9.87005E-003	8	...........
	320	16.05	3.48799E-005	-1.76368E-004	0.00000E+000	0.00000E+000	-1.33649E-004	8	...........
	321	16.1	-1.01651E-002	-1.80976E-004	0.00000E+000	-9.99874E-003	-1.03374E-002	8	...........
	322	16.15	-1.99651E-002	-1.83747E-004	0.00000E+000	-1.99975E-002	-2.01410E-002	8	...........
	323	16.2	-3.01651E-002	-1.88438E-004	0.00000E+000	-2.99962E-002	-2.99447E-002	8	...........
	324	16.25	-3.99651E-002	-1.91360E-004	0.00000E+000	-3.99949E-002	-3.99484E-002	8	...........
	325	16.3	-5.01651E-002	-1.94515E-004	0.00000E+000	-4.99937E-002	-4.99521E-002	8	...........
	326	16.35	-5.99651E-002	-1.98004E-004	0.00000E+000	-5.99924E-002	-6.01558E-002	8	...........
	327	16.4	-6.99651E-002	-2.01844E-004	0.00000E+000	-6.99912E-002	-7.01595E-002	8	...........
	328	16.45	-7.99651E-002	-2.05533E-004	0.00000E+000	-7.99899E-002	-8.01632E-002	8	...........
	329	16.5	-8.99651E-002	-2.08906E-004	0.00000E+000	-8.99886E-002	-8.99668E-002	8	...........
	330	16.55	-1.00165E-001	-2.12746E-004	0.00000E+000	-9.99874E-002	-9.99706E-002	8	...........
	331	16.6	-1.09965E-001	-2.15250E-004	0.00000E+000	-1.09986E-001	-1.09974E-001	8	...........
	332	16.65	-1.19965E-001	-2.18956E-004	0.00000E+000	-1.19985E-001	-1.19978E-001	8	...........
	333	16.7	-1.30165E-001	-2.22679E-004	0.00000E+000	-1.29984E-001	-1.29982E-001	8	...........
	334	16.75	-1.39965E-001	-2.25651E-004	0.00000E+000	-1.39982E-001	-1.39985E-001	8	...........
	335	16.8	-1.49965E-001	-2.29490E-004	0.00000E+000	-1.49981E-001	-1.50189E-001	8	...........
	336	16.85	-1.59965E-001	-2.32813E-004	0.00000E+000	-1.59980E-001	-1.59793E-001	8	...........
	337	16.9	-1.69965E-001	-2.37487E-004	0.00000E+000	-1.69979E-001	-1.69996E-001	8	...........
	338	16.95	-1.80165E-001	-2.40592E-004	0.00000E+000	-1.79977E-001	-1.80000E-001	8	...........
	339	17	-1.89965E-001	-2.44399E-004	0.00000E+000	-1.89976E-001	-1.89804E-001	8	...........
	340	17.05	-2.00165E-001	-2.48956E-004	0.00000E+000	-1.99975E-001	-2.00008E-001	8	...........
	341	17.1	-2.09965E-001	-2.52880E-004	0.00000E+000	-2.09973E-001	-2.09811E-001	8	...........
	342	17.15	-2.19965E-001	-2.56970E-004	0.00000E+000	-2.20022E-001	-2.20015E-001	8	...........
	343	17.2	-2.29965E-001	-2.61127E-004	0.00000E+000	-2.30021E-001	-2.29819E-001	8	...........
	344	17.25	-2.39965E-001	-2.66653E-004	0.00000E+000	-2.40020E-001	-2.40022E-001	8	...........
	345	17.3	-2.49765E-001	-2.70509E-004	0.00000E+000	-2.50018E-001	-2.50026E-001	8	...........
	346	17.35	-2.59965E-001	-2.75100E-004	0.00000E+000	-2.60017E-001	-2.59830E-001	8	...........
	347	17.4	-2.69765E-001	-2.79524E-004	0.00000E+000	-2.70016E-001	-2.69833E-001	8	...........
	348	17.45	-2.79965E-001	-2.84416E-004	0.00000E+000	-2.80015E-001	-2.79837E-001	8	...........
	349	17.5	-2.90165E-001	-2.88890E-004	0.00000E+000	-2.90013E-001	-2.90041E-001	8	...........
	350	17.55	-2.99965E-001	-2.93748E-004	0.00000E+000	-3.00012E-001	-3.00045E-001	8	...........
	351	17.6	-3.09765E-001	-2.98556E-004	0.00000E+000	-3.10011E-001	-3.09848E-001	8	...........
	352	17.65	-3.19965E-001	-3.03264E-004	0.00000E+000	-3.20010E-001	-3.19852E-001	8	...........
	353	17.7	-3.29765E-001	-3.08172E-004	0.00000E+000	-3.30008E-001	-3.29856E-001	8	...........
	354	17.75	-3.39765E-001	-3.13114E-004	0.00000E+000	-3.40007E-001	-3.39859E-001	8	...........
	355	17.8	-3.49965E-001	-3.17989E-004	0.00000E+000	-3.50006E-001	-3.49663E-001	8	...........
	356	17.85	-3.59765E-001	-3.22363E-004	0.00000E+000	-3.60005E-001	-3.59867E-001	8	...........
	357	17.9	-3.69765E-001	-3.27254E-004	0.00000E+000	-3.70003E-001	-3.69870E-001	8	...........
	358	17.95	-3.79765E-001	-3.32213E-004	0.00000E+000	-3.80002E-001	-3.79874E-001	8	...........
	359	18	-3.89565E-001	-3.37572E-004	0.00000E+000	-3.90001E-001	-3.89678E-001	8	...........
	360	18.05	-3.99765E-001	-3.42079E-004	0.00000E+000	-3.99999E-001	-3.99681E-001	8	...........
	361	18.1	-4.09765E-001	-3.47405E-004	0.00000E+000	-4.09998E-001	-4.09885E-001	8	...........
	362	18.15	-4.19765E-001	-3.51679E-004	0.00000E+000	-4.19997E-001	-4.19689E-001	8	...........
	363	18.2	-4.29965E-001	-3.57321E-004	0.00000E+000	-4.29996E-001	-4.29492E-001	8	...........
	364	18.25	-4.39765E-001	-3.61679E-004	0.00000E+000	-4.39994E-001	-4.39696E-001	8	...........
	365	18.3	-4.49765E-001	-3.66253E-004	0.00000E+000	-4.49993E-001	-4.49700E-001	8	...........
	366	18.35	-4.59565E-001	-3.70477E-004	0.00000E+000	-4.59992E-001	-4.59503E-001	8	...........
	367	18.4	-4.69765E-001	-3.75168E-004	0.00000E+000	-4.69991E-001	-4.69707E-001	8	...........
	368	18.45	-4.79765E-001	-3.80727E-004	0.00000E+000	-4.79989E-001	-4.79511E-001	8	...........
	369	18.5	-4.89565E-001	-3.84651E-004	0.00000E+000	-4.89988E-001	-4.89715E-001	8	...........
	370	18.55	-4.99565E-001	-3.90193E-004	0.00000E+000	-4.99987E-001	-4.99718E-001	8	...........
	371	18.6	-5.09765E-001	-3.94968E-004	0.00000E+000	-5.09986E-001	-5.09722E-001	8	...........
	372	18.65	-5.19765E-001	-3.99542E-004	0.00000E+000	-5.19984E-001	-5.19526E-001	8	...........
	373	18.7	-5.29765E-001	-4.04384E-004	0.00000E+000	-5.29983E-001	-5.29529E-001	8	...........
	374	18.75	-5.39765E-001	-4.08841E-004	0.00000E+000	-5.39982E-001	-5.39733E-001	8	...........
	375	18.8	-5.49565E-001	-4.14618E-004	0.00000E+000	-5.49981E-001	-5.49737E-001	8	...........
	376	18.85	-5.59565E-001	-4.18608E-004	0.00000E+000	-5.59979E-001	-5.59741E-001	8	...........
	377	18.9	-5.69765E-001	-4.23533E-004	0.00000E+000	-5.69978E-001	-5.69544E-001	8	...........
	378	18.95	-5.79565E-001	-4.28257E-004	0.00000E+000	-5.79977E-001	-5.79348E-001	8	...........
	379	19	-5.89365E-001	-4.32898E-004	0.00000E+000	-5.89975E-001	-5.89752E-001	8	...........
	380	19.05	-5.99765E-001	-4.38341E-004	0.00000E+000	-5.99974E-001	-5.99555E-001	8	...........
	381	19.1	-6.09565E-001	-4.43232E-004	0.00000E+000	-6.09973E-001	-6.09559E-001	8	...........
	382	19.15	-6.19765E-001	-4.48474E-004	0.00000E+000	-6.20022E-001	-6.19563E-001	8	...........
	383	19.2	-6.29565E-001	-4.53982E-004	0.00000E+000	-6.30020E-001	-6.29766E-001	9	...........
	384	19.25	-6.39565E-001	-4.59317E-004	0.00000E+000	-6.40019E-001	-6.39570E-001	9	...........
	385	19.3	-6.49565E-001	-4.64151E-004	0.00000E+000	-6.50018E-001	-6.49574E-001	9	...........
	386	19.35	-6.59365E-001	-4.69152E-004	0.00000E+000	-6.60017E-001	-6.59577E-001	9	...........
	387	19.4	-6.69565E-001	-4.75487E-004	0.00000E+000	-6.70015E-001	-6.69581E-001	9	...........
	388	19.45	-6.79765E-001	-4.80821E-004	0.00000E+000	-6.80014E-001	-6.79585E-001	9	...........
	389	19.5	-6.89765E-001	-4.85822E-004	0.00000E+000	-6.90013E-001	-6.89588E-001	9	...........
	390	19.55	-6.99565E-001	-4.92657E-004	0.00000E+000	-7.00012E-001	-6.99592E-001	9	...........
	391	19.6	-7.09765E-001	-4.98992E-004	0.00000E+000	-7.10010E-001	-7.09396E-001	9	...........
	392	19.65	-7.19565E-001	-5.05326E-004	0.00000E+000	-7.20009E-001	-7.19400E-001	9	...........
	393	19.7	-7.29565E-001	-5.11494E-004	0.00000E+000	-7.30008E-001	-7.29603E-001	9	...........
	394	19.75	-7.39565E-001	-5.18162E-004	0.00000E+000	-7.40007E-001	-7.39607E-001	9	...........
	395	19.8	-7.49565E-001	-5.24664E-004	0.00000E+000	-7.50005E-001	-7.49411E-001	9	...........
	396	19.85	-7.59565E-001	-5.32499E-004	0.00000E+000	-7.60004E-001	-7.59414E-001	9	...........
	397	19.9	-7.69565E-001	-5.39500E-004	0.00000E+000	-7.70003E-001	-7.69418E-001	9	...........
	398	19.95	-7.79365E-001	-5.47168E-004	0.00000E+000	-7.80001E-001	-7.79422E-001	9	...........
	399	20	-7.89565E-001	-5.55837E-004	0.00000E+000	-7.90000E-001	-7.89425E-001	9	...........
	400	20.05	-7.99365E-001	-5.63839E-004	0.00000E+000	-7.99999E-001	-7.99429E-001	9	...........
	401	20.1	-7.89365E-001	-5.10161E-004	0.00000E+000	-7.90000E-001	-7.89425E-001	9	...........
	402	20.15	-7.79565E-001	-4.68318E-004	0.00000E+000	-7.80001E-001	-7.79622E-001	9	...........
	403	20.2	-7.69765E-001	-4.33311E-004	0.00000E+000	-7.70003E-001	-7.69618E-001	9	...........
	404	20.25	-7.59765E-001	-4.03638E-004	0.00000E+000	-7.60004E-001	-7.59614E-001	9	...........
	405	20.3	-7.49565E-001	-3.76771E-004	0.00000E+000	-7.50005E-001	-7.49411E-001	8	...........
	406	20.35	-7.39565E-001	-3.53048E-004	0.00000E+000	-7.40007E-001	-7.39407E-001	8	...........
	407	20.4	-7.29565E-001	-3.30092E-004	0.00000E+000	-7.30008E-001	-7.29603E-001	8	...........
	408	20.45	-7.19565E-001	-3.11127E-004	0.00000E+000	-7.20009E-001	-7.19600E-001	8	...........
	409	20.5	-7.09565E-001	-2.92196E-004	0.00000E+000	-7.10010E-001	-7.09596E-001	8	...........
	410	20.55	-6.99765E-001	-2.75801E-004	0.00000E+000	-7.00012E-001	-6.99792E-001	8	...........
	411	20.6	-6.89565E-001	-2.58572E-004	0.00000E+000	-6.90013E-001	-6.89588E-001	8	...........
	412	20.65	-6.79565E-001	-2.43848E-004	0.00000E+000	-6.80014E-001	-6.79585E-001	8	...........
	413	20.7	-6.69565E-001	-2.29156E-004	0.00000E+000	-6.70015E-001	-6.69781E-001	8	...........
	414	20.75	-6.59565E-001	-2.15433E-004	0.00000E+000	-6.60017E-001	-6.59777E-001	8	...........
	415	20.8	-6.49365E-001	-2.01961E-004	0.00000E+000	-6.50018E-001	-6.49774E-001	8	...........
	416	20.85	-6.39365E-001	-1.90007E-004	0.00000E+000	-6.40019E-001	-6.39570E-001	8	...........
	417	20.9	-6.29765E-001	-1.78722E-004	0.00000E+000	-6.30020E-001	-6.29566E-001	8	...........
	418	20.95	-6.19765E-001	-1.67937E-004	0.00000E+000	-6.20022E-001	-6.19763E-001	8	...........
	419	21	-6.09765E-001	-1.56985E-004	0.00000E+000	-6.09973E-001	-6.09559E-001	8	...........
	420	21.05	-5.99565E-001	-1.46284E-004	0.00000E+000	-5.99974E-001	-5.99755E-001	8	...........
	421	21.1	-5.89765E-001	-1.36501E-004	0.00000E+000	-5.89975E-001	-5.89552E-001	8	...........
	422	21.15	-5.79765E-001	-1.27786E-004	0.00000E+000	-5.79977E-001	-5.79748E-001	8	...........
	423	21.2	-5.69765E-001	-1.18938E-004	0.00000E+000	-5.69978E-001	-5.69544E-001	8	...........
	424	21.25	-5.59765E-001	-1.10173E-004	0.00000E+000	-5.59979E-001	-5.59540E-001	8	...........
	425	21.3	-5.49565E-001	-1.02110E-004	0.00000E+000	-5.49981E-001	-5.49537E-001	8	...........
	426	21.35	-5.39565E-001	-9.48478E-005	0.00000E+000	-5.39982E-001	-5.39733E-001	8	...........
	427	21.4	-5.29765E-001	-8.72517E-005	0.00000E+000	-5.29983E-001	-5.29529E-001	8	...........
	428	21.45	-5.19765E-001	-7.95221E-005	0.00000E+000	-5.19984E-001	-5.19726E-001	8	...........
	429	21.5	-5.09765E-001	-7.25771E-005	0.00000E+000	-5.09986E-001	-5.09522E-001	8	...........
	430	21.55	-4.99565E-001	-6.41797E-005	0.00000E+000	-4.99987E-001	-4.99518E-001	8	...........
	431	21.6	-4.89565E-001	-5.88875E-005	0.00000E+000	-4.89988E-001	-4.89715E-001	8	...........
	432	21.65	-4.79765E-001	-5.23265E-005	0.00000E+000	-4.79989E-001	-4.79711E-001	8	...........
	433	21.7	-4.69765E-001	-4.59324E-005	0.00000E+000	-4.69991E-001	-4.69707E-001	8	...........
	434	21.75	-4.59765E-001	-3.98055E-005	0.00000E+000	-4.59992E-001	-4.59503E-001	8	...........
	435	21.8	-4.49765E-001	-3.38201E-005	0.00000E+000	-4.49993E-001	-4.49700E-001	7	...........
	436	21.85	-4.39965E-001	-2.84070E-005	0.00000E+000	-4.39994E-001	-4.39896E-001	7	...........
	437	21.9	-4.29765E-001	-2.26299E-005	0.00000E+000	-4.29996E-001	-4.29692E-001	7	...........
	438	21.95	-4.19765E-001	-1.72135E-005	0.00000E+000	-4.19997E-001	-4.19689E-001	7	...........
	439	22	-4.09565E-001	-1.17837E-005	0.00000E+000	-4.09998E-001	-4.09685E-001	7	...........
	440	22.05	-3.99765E-001	-6.54432E-006	0.00000E+000	-3.99999E-001	-3.99681E-001	7	...........
	441	22.1	-3.89965E-001	-1.61727E-006	0.00000E+000	-3.90001E-001	-3.89878E-001	7	...........
	442	22.15	-3.79965E-001	3.46176E-006	0.00000E+000	-3.80002E-001	-3.79874E-001	7	...........
	443	22.2	-3.69765E-001	8.26354E-006	0.00000E+000	-3.70003E-001	-3.69870E-001	7	...........
	444	22.25	-3.59765E-001	1.33793E-005	0.00000E+000	-3.60005E-001	-3.59867E-001	7	...........
	445	22.3	-3.50165E-001	1.77953E-005	0.00000E+000	-3.50006E-001	-3.49863E-001	7	...........
	446	22.35	-3.39765E-001	2.22714E-005	0.00000E+000	-3.40007E-001	-3.39859E-001	7	...........
	447	22.4	-3.29965E-001	2.68276E-005	0.00000E+000	-3.30008E-001	-3.29655E-001	7	...........
	448	22.45	-3.19965E-001	3.13422E-005	0.00000E+000	-3.20010E-001	-3.19852E-001	7	...........
	449	22.5	-3.09765E-001	3.54809E-005	0.00000E+000	-3.10011E-001	-3.10048E-001	7	...........
	450	22.55	-2.99765E-001	3.98451E-005	0.00000E+000	-3.00012E-001	-2.99844E-001	7	...........
	451	22.6	-2.89965E-001	4.37733E-005	0.00000E+000	-2.90013E-001	-2.89841E-001	7	...........
	452	22.65	-2.79765E-001	4.82561E-005	0.00000E+000	-2.80015E-001	-2.79837E-001	7	...........
	453	22.7	-2.69965E-001	5.23492E-005	0.00000E+000	-2.70016E-001	-2.69833E-001	8	...........
	454	22.75	-2.59965E-001	5.70070E-005	0.00000E+000	-2.60017E-001	-2.60030E-001	8	...........
	455	22.8	-2.49965E-001	6.07132E-005	0.00000E+000	-2.50018E-001	-2.49826E-001	8	...........
	456	22.85	-2.39965E-001	6.47366E-005	0.00000E+000	-2.40020E-001	-2.39822E-001	8	...........
	457	22.9	-2.30165E-001	6.80254E-005	0.00000E+000	-2.30021E-001	-2.29819E-001	8	...........
	458	22.95	-2.19965E-001	7.19487E-005	0.00000E+000	-2.20022E-001	-2.20015E-001	8	...........
	459	23	-2.09965E-001	7.65063E-005	0.00000E+000	-2.09973E-001	-2.09811E-001	8	...........
	460	23.05	-1.99965E-001	7.98453E-005	0.00000E+000	-1.99975E-001	-1.99807E-001	8	...........
	461	23.1	-1.89965E-001	8.28837E-005	0.00000E+000	-1.89976E-001	-1.90004E-001	8	...........
	462	23.15	-1.79765E-001	8.65899E-005	0.00000E+000	-1.79977E-001	-1.80000E-001	8	...........
	463	23.2	-1.69965E-001	9.11309E-005	0.00000E+000	-1.69979E-001	-1.69996E-001	8	...........
	464	23.25	-1.60165E-001	9.47703E-005	0.00000E+000	-1.59980E-001	-1.59993E-001	8	...........
	465	23.3	-1.50165E-001	9.79256E-005	0.00000E+000	-1.49981E-001	-1.49989E-001	8	...........
	466	23.35	-1.40165E-001	1.01565E-004	0.00000E+000	-1.39982E-001	-1.39985E-001	8	...........
	467	23.4	-1.29965E-001	1.04737E-004	0.00000E+000	-1.29984E-001	-1.29982E-001	8	...........
	468	23.45	-1.19965E-001	1.08593E-004	0.00000E+000	-1.19985E-001	-1.19978E-001	8	...........
	469	23.5	-1.10165E-001	1.12350E-004	0.00000E+000	-1.09986E-001	-1.09974E-001	8	...........
	470	23.55	-9.99651E-002	1.16056E-004	0.00000E+000	-9.99874E-002	-1.00171E-001	8	...........
	471	23.6	-9.01651E-002	1.19111E-004	0.00000E+000	-8.99886E-002	-9.01669E-002	8	...........
	472	23.65	-7.99651E-002	1.23001E-004	0.00000E+000	-7.99899E-002	-7.99632E-002	8	...........
	473	23.7	-6.99651E-002	1.26557E-004	0.00000E+000	-6.99912E-002	-7.01595E-002	8	...........
	474	23.75	-5.99651E-002	1.29529E-004	0.00000E+000	-5.99924E-002	-5.99558E-002	8	...........
	475	23.8	-5.01651E-002	1.33435E-004	0.00000E+000	-4.99937E-002	-5.01521E-002	8	...........
	476	23.85	-3.99651E-002	1.37409E-004	0.00000E+000	-3.99949E-002	-3.99484E-002	8	...........
	477	23.9	-2.99651E-002	1.40447E-004	0.00000E+000	-2.99962E-002	-3.01447E-002	8	...........
	478	23.95	-1.99651E-002	1.44671E-004	0.00000E+000	-1.99975E-002	-2.01410E-002	8	...........
	479	24	-1.01651E-002	1.48093E-004	0.00000E+000	-9.99874E-003	-1.01373E-002	8	...........
	480	24.05	3.48799E-005	1.50831E-004	0.00000E+000	0.00000E+000	-1.33649E-004	8	...........
	481	24.1	1.00349E-002	1.54821E-004	0.00000E+000	9.99874E-003	9.66997E-003	8	...........
	482	24.15	1.98349E-002	1.57542E-004	0.00000E+000	1.99975E-002	1.98737E-002	8	...........
	483	24.2	2.98349E-002	1.61632E-004	0.00000E+000	2.99962E-002	2.98774E-002	8	...........
	484	24.25	4.00349E-002	1.66207E-004	0.00000E+000	3.99949E-002	3.96811E-002	8	...........
	485	24.3	4.98349E-002	1.69663E-004	0.00000E+000	4.99937E-002	4.96848E-002	8	...........
	486	24.35	5.98349E-002	1.73386E-004	0.00000E+000	5.99924E-002	5.98885E-002	8	...........
	487	24.4	6.98349E-002	1.76825E-004	0.00000E+000	6.99912E-002	6.96922E-002	8	...........
	488	24.45	7.98349E-002	1.82067E-004	0.00000E+000	7.99899E-002	7.98959E-002	8	...........
	489	24.5	8.98349E-002	1.85656E-004	0.00000E+000	8.99886E-002	8.98996E-002	8	...........
	490	24.55	9.96349E-002	1.90130E-004	0.00000E+000	9.99874E-002	9.99033E-002	8	...........
	491	24.6	1.09835E-001	1.93603E-004	0.00000E+000	1.09986E-001	1.09907E-001	8	...........
	492	24.65	1.19835E-001	1.97543E-004	0.00000E+000	1.19985E-001	1.19911E-001	8	...........
	493	24.7	1.29835E-001	2.02050E-004	0.00000E+000	1.29984E-001	1.29514E-001	8	...........
	494	24.75	1.39835E-001	2.07676E-004	0.00000E+000	1.39982E-001	1.39718E-001	8	...........
	495	24.8	1.49835E-001	2.11917E-004	0.00000E+000	1.49981E-001	1.49722E-001	8	...........
	496	24.85	1.59835E-001	2.17510E-004	0.00000E+000	1.59980E-001	1.59725E-001	8	...........
	497	24.9	1.69635E-001	2.23036E-004	0.00000E+000	1.69979E-001	1.69729E-001	8	...........
	498	24.95	1.79635E-001	2.27593E-004	0.00000E+000	1.79977E-001	1.79733E-001	8	...........
	499	25	1.89635E-001	2.33436E-004	0.00000E+000	1.90026E-001	1.89937E-001	8	...........
	500	25.05	1.99835E-001	2.38211E-004	0.00000E+000	2.00025E-001	1.99540E-001	8	...........
	501	25.1	2.09635E-001	2.44054E-004	0.00000E+000	2.10023E-001	2.09744E-001	8	...........
	502	25.15	2.19835E-001	2.49029E-004	0.00000E+000	2.20022E-001	2.19748E-001	8	...........
	503	25.2	2.29835E-001	2.56625E-004	0.00000E+000	2.30021E-001	2.29951E-001	8	...........
	504	25.25	2.39835E-001	2.62034E-004	0.00000E+000	2.40020E-001	2.39755E-001	8	...........
	505	25.3	2.49835E-001	2.68311E-004	0.00000E+000	2.50018E-001	2.49559E-001	8	...........
	506	25.35	2.59635E-001	2.74522E-004	0.00000E+000	2.60017E-001	2.59762E-001	8	...........
	507	25.4	2.69835E-001	2.80365E-004	0.00000E+000	2.70016E-001	2.69766E-001	8	...........
	508	25.45	2.79635E-001	2.87060E-004	0.00000E+000	2.80015E-001	2.79770E-001	8	...........
	509	25.5	2.89835E-001	2.93404E-004	0.00000E+000	2.90013E-001	2.89573E-001	8	...........
	510	25.55	2.99635E-001	2.99430E-004	0.00000E+000	3.00012E-001	2.99577E-001	8	...........
	511	25.6	3.09635E-001	3.05507E-004	0.00000E+000	3.10011E-001	3.09781E-001	8	...........
	512	25.65	3.19635E-001	3.11517E-004	0.00000E+000	3.20010E-001	3.19785E-001	8	...........
	513	25.7	3.29835E-001	3.17143E-004	0.00000E+000	3.30008E-001	3.29588E-001	8	...........
	514	25.75	3.39635E-001	3.23137E-004	0.00000E+000	3.40007E-001	3.39592E-001	8	...........
	515	25.8	3.49635E-001	3.29314E-004	0.00000E+000	3.50006E-001	3.49596E-001	8	...........
	516	25.85	3.59635E-001	3.35140E-004	0.00000E+000	3.60005E-001	3.59799E-001	8	...........
	517	25.9	3.69635E-001	3.40215E-004	0.00000E+000	3.70003E-001	3.69603E-001	8	...........
	518	25.95	3.79635E-001	3.45825E-004	0.00000E+000	3.80002E-001	3.79407E-001	8	...........
	519	26	3.89835E-001	3.51751E-004	0.00000E+000	3.90001E-001	3.89610E-001	8	...........
	520	26.05	3.99635E-001	3.56292E-004	0.00000E+000	3.99999E-001	3.99414E-001	8	...........
	521	26.1	4.09835E-001	3.60984E-004	0.00000E+000	4.09998E-001	4.09618E-001	8	...........
	522	26.15	4.19435E-001	3.66309E-004	0.00000E+000	4.19997E-001	4.19421E-001	8	...........
	523	26.2	4.29635E-001	3.71034E-004	0.00000E+000	4.29996E-001	4.29625E-001	8	...........
	524	26.25	4.39635E-001	3.76560E-004	0.00000E+000	4.39994E-001	4.39629E-001	8	...........
	525	26.3	4.49635E-001	3.80984E-004	0.00000E+000	4.49993E-001	4.49433E-001	8	...........
	526	26.35	4.59635E-001	3.85708E-004	0.00000E+000	4.59992E-001	4.59436E-001	8	...........
	527	26.4	4.69435E-001	3.90717E-004	0.00000E+000	4.69991E-001	4.69640E-001	8	...........
	528	26.45	4.79435E-001	3.95174E-004	0.00000E+000	4.79989E-001	4.79444E-001	8	...........
	529	26.5	4.89635E-001	3.99348E-004	0.00000E+000	4.89988E-001	4.89247E-001	8	...........
	530	26.55	4.99635E-001	4.04841E-004	0.00000E+000	4.99987E-001	4.99251E-001	8	...........
	531	26.6	5.09635E-001	4.09415E-004	0.00000E+000	5.09986E-001	5.09255E-001	8	...........
	532	26.65	5.19435E-001	4.14123E-004	0.00000E+000	5.19984E-001	5.19458E-001	8	...........
	533	26.7	5.29435E-001	4.18964E-004	0.00000E+000	5.29983E-001	5.29462E-001	8	...........
	534	26.75	5.39435E-001	4.23989E-004	0.00000E+000	5.39982E-001	5.39466E-001	8	...........
	535	26.8	5.49435E-001	4.28514E-004	0.00000E+000	5.49981E-001	5.49469E-001	8	...........
	536	26.85	5.59635E-001	4.33589E-004	0.00000E+000	5.59979E-001	5.59273E-001	8	...........
	537	26.9	5.69635E-001	4.38981E-004	0.00000E+000	5.69978E-001	5.69477E-001	8	...........
	538	26.95	5.79435E-001	4.43973E-004	0.00000E+000	5.79977E-001	5.79280E-001	8	...........
	539	27	5.89435E-001	4.48881E-004	0.00000E+000	5.89975E-001	5.89284E-001	8	...........
	540	27.05	5.99635E-001	4.54875E-004	0.00000E+000	6.00024E-001	5.99488E-001	9	...........
	541	27.1	6.09635E-001	4.60543E-004	0.00000E+000	6.10023E-001	6.09492E-001	9	...........
	542	27.15	6.19435E-001	4.66044E-004	0.00000E+000	6.20022E-001	6.19295E-001	9	...........
	543	27.2	6.29435E-001	4.71379E-004	0.00000E+000	6.30020E-001	6.29299E-001	9	...........
	544	27.25	6.39435E-001	4.77547E-004	0.00000E+000	6.40019E-001	6.39503E-001	9	...........
	545	27.3	6.49435E-001	4.83048E-004	0.00000E+000	6.50018E-001	6.49306E-001	9	...........
	546	27.35	6.59435E-001	4.89049E-004	0.00000E+000	6.60017E-001	6.59310E-001	9	...........
	547	27.4	6.69435E-001	4.95217E-004	0.00000E+000	6.70015E-001	6.69314E-001	9	...........
	548	27.45	6.79635E-001	5.02219E-004	0.00000E+000	6.80014E-001	6.79518E-001	9	...........
	549	27.5	6.89435E-001	5.07887E-004	0.00000E+000	6.90013E-001	6.89321E-001	9	...........
	550	27.55	6.99635E-001	5.15388E-004	0.00000E+000	7.00012E-001	6.99525E-001	9	...........
	551	27.6	7.09635E-001	5.22223E-004	0.00000E+000	7.10010E-001	7.09129E-001	9	...........
	552	27.65	7.19435E-001	5.28724E-004	0.00000E+000	7.20009E-001	7.19332E-001	9	...........
	553	27.7	7.29235E-001	5.35392E-004	0.00000E+000	7.30008E-001	7.29536E-001	9	...........
	554	27.75	7.39235E-001	5.43061E-004	0.00000E+000	7.40007E-001	7.39540E-001	9	...........
	555	27.8	7.49235E-001	5.50562E-004	0.00000E+000	7.50005E-001	7.49343E-001	9	...........
	556	27.85	7.59435E-001	5.58897E-004	0.00000E+000	7.60004E-001	7.59347E-001	9	...........
	557	27.9	7.69435E-001	5.66066E-004	0.00000E+000	7.70003E-001	7.69351E-001	9	...........
	558	27.95	7.79235E-001	5.73901E-004	0.00000E+000	7.80001E-001	7.79354E-001	9	...........
	559	28	7.89235E-001	5.81569E-004	0.00000E+000	7.90000E-001	7.89358E-001	9	...........
	560	28.05	7.99435E-001	5.89737E-004	0.00000E+000	7.99999E-001	7.99362E-001	9	...........
CURVE3	TABLE
	Pt	T	Vf	Im	Vu	Sig	Ach	IERange	Over
	#	s	V vs. Ref.	A	V	V	V	#	bits
	561	28.1	7.89435E-001	5.38226E-004	0.00000E+000	7.90000E-001	7.89158E-001	9	...........
	562	28.15	7.79435E-001	4.97384E-004	0.00000E+000	7.80001E-001	7.79154E-001	9	...........
	563	28.2	7.69235E-001	4.62044E-004	0.00000E+000	7.70003E-001	7.69351E-001	9	...........
	564	28.25	7.59235E-001	4.31371E-004	0.00000E+000	7.60004E-001	7.59347E-001	9	...........
	565	28.3	7.49435E-001	4.04698E-004	0.00000E+000	7.50005E-001	7.49143E-001	9	...........
	566	28.35	7.39235E-001	3.78860E-004	0.00000E+000	7.40007E-001	7.39140E-001	9	...........
	567	28.4	7.29435E-001	3.55241E-004	0.00000E+000	7.30008E-001	7.29336E-001	8	...........
	568	28.45	7.19435E-001	3.32987E-004	0.00000E+000	7.20009E-001	7.19332E-001	8	...........
	569	28.5	7.09435E-001	3.13554E-004	0.00000E+000	7.10010E-001	7.09129E-001	8	...........
	570	28.55	6.99435E-001	2.94589E-004	0.00000E+000	7.00012E-001	6.99525E-001	8	...........
	571	28.6	6.89635E-001	2.77160E-004	0.00000E+000	6.90013E-001	6.89321E-001	8	...........
	572	28.65	6.79635E-001	2.60231E-004	0.00000E+000	6.80014E-001	6.79318E-001	8	...........
	573	28.7	6.69435E-001	2.44054E-004	0.00000E+000	6.70015E-001	6.69314E-001	8	...........
	574	28.75	6.59435E-001	2.29880E-004	0.00000E+000	6.60017E-001	6.59510E-001	8	...........
	575	28.8	6.49435E-001	2.15690E-004	0.00000E+000	6.50018E-001	6.49507E-001	8	...........
	576	28.85	6.39435E-001	2.02150E-004	0.00000E+000	6.40019E-001	6.39103E-001	8	...........
	577	28.9	6.29435E-001	1.88478E-004	0.00000E+000	6.30020E-001	6.29299E-001	8	...........
	578	28.95	6.19435E-001	1.76708E-004	0.00000E+000	6.20022E-001	6.19295E-001	8	...........
	579	29	6.09635E-001	1.65372E-004	0.00000E+000	6.10023E-001	6.09292E-001	8	...........
	580	29.05	5.99435E-001	1.53569E-004	0.00000E+000	6.00024E-001	5.99288E-001	8	...........
	581	29.1	5.89635E-001	1.42868E-004	0.00000E+000	5.89975E-001	5.89484E-001	8	...........
	582	29.15	5.79435E-001	1.32016E-004	0.00000E+000	5.79977E-001	5.79481E-001	8	...........
	583	29.2	5.69435E-001	1.22317E-004	0.00000E+000	5.69978E-001	5.69677E-001	8	...........
	584	29.25	5.59435E-001	1.12917E-004	0.00000E+000	5.59979E-001	5.59473E-001	8	...........
	585	29.3	5.49435E-001	1.04086E-004	0.00000E+000	5.49981E-001	5.49469E-001	8	...........
	586	29.35	5.39435E-001	9.53713E-005	0.00000E+000	5.39982E-001	5.39666E-001	8	...........
	587	29.4	5.29435E-001	8.62894E-005	0.00000E+000	5.29983E-001	5.29462E-001	8	...........
	588	29.45	5.19635E-001	7.71908E-005	0.00000E+000	5.19984E-001	5.19458E-001	8	...........
	589	29.5	5.09435E-001	7.00956E-005	0.00000E+000	5.09986E-001	5.09255E-001	8	...........
	590	29.55	4.99635E-001	6.29503E-005	0.00000E+000	4.99987E-001	4.99451E-001	8	...........
	591	29.6	4.89435E-001	5.38183E-005	0.00000E+000	4.89988E-001	4.89447E-001	8	...........
	592	29.65	4.79435E-001	4.71404E-005	0.00000E+000	4.79989E-001	4.79444E-001	8	...........
	593	29.7	4.69635E-001	4.01286E-005	0.00000E+000	4.69991E-001	4.69440E-001	8	...........
	594	29.75	4.59435E-001	3.31242E-005	0.00000E+000	4.59992E-001	4.59436E-001	7	...........
	595	29.8	4.49635E-001	2.58422E-005	0.00000E+000	4.49993E-001	4.49633E-001	7	...........
	596	29.85	4.39635E-001	1.96241E-005	0.00000E+000	4.39994E-001	4.39629E-001	7	...........
	597	29.9	4.29635E-001	1.31071E-005	0.00000E+000	4.29996E-001	4.29425E-001	7	...........
	598	29.95	4.19435E-001	6.86726E-006	0.00000E+000	4.19997E-001	4.19421E-001	7	...........
	599	30	4.09635E-001	1.16525E-006	0.00000E+000	4.09998E-001	4.09618E-001	7	...........
	600	30.05	3.99635E-001	-4.50001E-006	0.00000E+000	3.99999E-001	3.99414E-001	7	...........
	601	30.1	3.89635E-001	-1.05945E-005	0.00000E+000	3.90001E-001	3.89610E-001	7	...........
	602	30.15	3.79635E-001	-1.60193E-005	0.00000E+000	3.80002E-001	3.79407E-001	7	...........
	603	30.2	3.69635E-001	-2.09630E-005	0.00000E+000	3.70003E-001	3.69403E-001	7	...........
	604	30.25	3.59835E-001	-2.65164E-005	0.00000E+000	3.60005E-001	3.59599E-001	7	...........
	605	30.3	3.49635E-001	-3.15637E-005	0.00000E+000	3.50006E-001	3.49596E-001	7	...........
	606	30.35	3.39835E-001	-3.65141E-005	0.00000E+000	3.40007E-001	3.39592E-001	7	...........
	607	30.4	3.29635E-001	-4.11472E-005	0.00000E+000	3.30008E-001	3.29788E-001	7	...........
	608	30.45	3.19635E-001	-4.59507E-005	0.00000E+000	3.20010E-001	3.19585E-001	7	...........
	609	30.5	3.09635E-001	-5.03899E-005	0.00000E+000	3.10011E-001	3.09781E-001	8	...........
	610	30.55	2.99635E-001	-5.49308E-005	0.00000E+000	3.00012E-001	2.99777E-001	8	...........
	611	30.6	2.90035E-001	-5.94384E-005	0.00000E+000	2.90013E-001	2.89573E-001	8	...........
	612	30.65	2.79635E-001	-6.35620E-005	0.00000E+000	2.80015E-001	2.79570E-001	8	...........
	613	30.7	2.69835E-001	-6.78859E-005	0.00000E+000	2.70016E-001	2.69566E-001	8	...........
	614	30.75	2.59635E-001	-7.14419E-005	0.00000E+000	2.60017E-001	2.59762E-001	8	...........
	615	30.8	2.49635E-001	-7.59661E-005	0.00000E+000	2.50018E-001	2.49759E-001	8	...........
	616	30.85	2.40035E-001	-8.01899E-005	0.00000E+000	2.40020E-001	2.39755E-001	8	...........
	617	30.9	2.29635E-001	-8.45973E-005	0.00000E+000	2.30021E-001	2.29751E-001	8	...........
	618	30.95	2.19835E-001	-8.86708E-005	0.00000E+000	2.20022E-001	2.19748E-001	8	...........
	619	31	2.09835E-001	-9.27109E-005	0.00000E+000	2.10023E-001	2.09744E-001	8	...........
	620	31.05	1.99835E-001	-9.62668E-005	0.00000E+000	2.00025E-001	1.99740E-001	8	...........
	621	31.1	1.89635E-001	-1.00424E-004	0.00000E+000	1.90026E-001	1.89737E-001	8	...........
	622	31.15	1.79635E-001	-1.05933E-004	0.00000E+000	1.79977E-001	1.79933E-001	8	...........
	623	31.2	1.69835E-001	-1.08554E-004	0.00000E+000	1.69979E-001	1.69729E-001	8	...........
	624	31.25	1.59835E-001	-1.12227E-004	0.00000E+000	1.59980E-001	1.59725E-001	8	...........
	625	31.3	1.49835E-001	-1.16401E-004	0.00000E+000	1.49981E-001	1.49722E-001	8	...........
	626	31.35	1.39835E-001	-1.20674E-004	0.00000E+000	1.39982E-001	1.39718E-001	8	...........
	627	31.4	1.29835E-001	-1.25232E-004	0.00000E+000	1.29984E-001	1.29714E-001	8	...........
	628	31.45	1.19835E-001	-1.28955E-004	0.00000E+000	1.19985E-001	1.19711E-001	8	...........
	629	31.5	1.09835E-001	-1.32978E-004	0.00000E+000	1.09986E-001	1.09907E-001	8	...........
	630	31.55	9.98349E-002	-1.37469E-004	0.00000E+000	9.99874E-002	9.97033E-002	8	...........
	631	31.6	8.98349E-002	-1.41943E-004	0.00000E+000	8.99886E-002	8.96996E-002	8	...........
	632	31.65	7.98349E-002	-1.45115E-004	0.00000E+000	7.99899E-002	7.96959E-002	8	...........
	633	31.7	6.96349E-002	-1.49356E-004	0.00000E+000	6.99912E-002	6.96922E-002	8	...........
	634	31.75	5.98349E-002	-1.52862E-004	0.00000E+000	5.99924E-002	5.98885E-002	8	...........
	635	31.8	5.00349E-002	-1.57236E-004	0.00000E+000	4.99937E-002	4.98848E-002	8	...........
	636	31.85	3.98349E-002	-1.61426E-004	0.00000E+000	3.99949E-002	4.00812E-002	8	...........
	637	31.9	2.98349E-002	-1.65049E-004	0.00000E+000	2.99962E-002	3.00775E-002	8	...........
	638	31.95	1.98349E-002	-1.68955E-004	0.00000E+000	1.99975E-002	1.98737E-002	8	...........
	639	32	9.83488E-003	-1.73029E-004	0.00000E+000	9.99874E-003	9.87005E-003	8	...........
	640	32.05	3.48799E-005	-1.75934E-004	0.00000E+000	0.00000E+000	-1.33649E-004	8	...........
	641	32.1	-9.96512E-003	-1.80041E-004	0.00000E+000	-9.99874E-003	-9.93727E-003	8	...........
	642	32.15	-2.01651E-002	-1.83396E-004	0.00000E+000	-1.99975E-002	-2.01410E-002	8	...........
	643	32.2	-2.99651E-002	-1.87103E-004	0.00000E+000	-2.99962E-002	-3.01447E-002	8	...........
	644	32.25	-4.01651E-002	-1.90041E-004	0.00000E+000	-3.99949E-002	-3.99484E-002	8	...........
	645	32.3	-4.99651E-002	-1.93313E-004	0.00000E+000	-4.99937E-002	-4.99521E-002	8	...........
	646	32.35	-5.99651E-002	-1.97804E-004	0.00000E+000	-5.99924E-002	-5.99558E-002	8	...........
	647	32.4	-6.99651E-002	-2.01226E-004	0.00000E+000	-6.99912E-002	-6.99595E-002	8	...........
	648	32.45	-7.99651E-002	-2.04682E-004	0.00000E+000	-7.99899E-002	-8.01632E-002	8	...........
	649	32.5	-9.01651E-002	-2.08321E-004	0.00000E+000	-8.99886E-002	-9.01669E-002	8	...........
	650	32.55	-9.99651E-002	-2.11059E-004	0.00000E+000	-9.99874E-002	-9.97705E-002	8	...........
	651	32.6	-1.09965E-001	-2.14048E-004	0.00000E+000	-1.09986E-001	-1.09974E-001	8	...........
	652	32.65	-1.19965E-001	-2.18355E-004	0.00000E+000	-1.19985E-001	-1.19978E-001	8	...........
	653	32.7	-1.29965E-001	-2.22211E-004	0.00000E+000	-1.29984E-001	-1.29982E-001	8	...........
	654	32.75	-1.39765E-001	-2.24866E-004	0.00000E+000	-1.39982E-001	-1.39985E-001	8	...........
	655	32.8	-1.49965E-001	-2.29106E-004	0.00000E+000	-1.49981E-001	-1.49989E-001	8	...........
	656	32.85	-1.59965E-001	-2.32295E-004	0.00000E+000	-1.59980E-001	-1.59993E-001	8	...........
	657	32.9	-1.69965E-001	-2.35884E-004	0.00000E+000	-1.69979E-001	-1.69796E-001	8	...........
	658	32.95	-1.79765E-001	-2.39173E-004	0.00000E+000	-1.79977E-001	-1.80000E-001	8	...........
	659	33	-1.89765E-001	-2.43414E-004	0.00000E+000	-1.89976E-001	-1.90004E-001	8	...........
	660	33.05	-1.99965E-001	-2.46352E-004	0.00000E+000	-1.99975E-001	-1.99807E-001	8	...........
	661	33.1	-2.09965E-001	-2.50492E-004	0.00000E+000	-2.09973E-001	-2.10011E-001	8	...........
	662	33.15	-2.19965E-001	-2.54966E-004	0.00000E+000	-2.20022E-001	-2.20015E-001	8	...........
	663	33.2	-2.30165E-001	-2.59557E-004	0.00000E+000	-2.30021E-001	-2.30019E-001	8	...........
	664	33.25	-2.39965E-001	-2.63030E-004	0.00000E+000	-2.40020E-001	-2.40022E-001	8	...........
	665	33.3	-2.49765E-001	-2.68038E-004	0.00000E+000	-2.50018E-001	-2.49826E-001	8	...........
	666	33.35	-2.59965E-001	-2.72880E-004	0.00000E+000	-2.60017E-001	-2.60030E-001	8	...........
	667	33.4	-2.69965E-001	-2.76052E-004	0.00000E+000	-2.70016E-001	-2.69833E-001	8	...........
	668	33.45	-2.79765E-001	-2.81411E-004	0.00000E+000	-2.80015E-001	-2.79837E-001	8	...........
	669	33.5	-2.89965E-001	-2.85384E-004	0.00000E+000	-2.90013E-001	-2.89841E-001	8	...........
	670	33.55	-2.99965E-001	-2.90526E-004	0.00000E+000	-3.00012E-001	-2.99844E-001	8	...........
	671	33.6	-3.09765E-001	-2.95468E-004	0.00000E+000	-3.10011E-001	-3.09848E-001	8	...........
	672	33.65	-3.19765E-001	-2.99875E-004	0.00000E+000	-3.20010E-001	-3.19852E-001	8	...........
	673	33.7	-3.29765E-001	-3.04717E-004	0.00000E+000	-3.30008E-001	-3.29856E-001	8	...........
	674	33.75	-3.39765E-001	-3.09391E-004	0.00000E+000	-3.40007E-001	-3.39659E-001	8	...........
	675	33.8	-3.49765E-001	-3.13865E-004	0.00000E+000	-3.50006E-001	-3.49863E-001	8	...........
	676	33.85	-3.59965E-001	-3.18356E-004	0.00000E+000	-3.60005E-001	-3.59667E-001	8	...........
	677	33.9	-3.69765E-001	-3.23481E-004	0.00000E+000	-3.70003E-001	-3.69870E-001	8	...........
	678	33.95	-3.79765E-001	-3.28623E-004	0.00000E+000	-3.80002E-001	-3.79674E-001	8	...........
	679	34	-3.89765E-001	-3.33665E-004	0.00000E+000	-3.90001E-001	-3.89878E-001	8	...........
	680	34.05	-3.99765E-001	-3.37605E-004	0.00000E+000	-3.99999E-001	-3.99681E-001	8	...........
	681	34.1	-4.09765E-001	-3.42513E-004	0.00000E+000	-4.09998E-001	-4.09685E-001	8	...........
	682	34.15	-4.19765E-001	-3.47655E-004	0.00000E+000	-4.19997E-001	-4.19889E-001	8	...........
	683	34.2	-4.29565E-001	-3.51445E-004	0.00000E+000	-4.29996E-001	-4.29692E-001	8	...........
	684	34.25	-4.39765E-001	-3.55786E-004	0.00000E+000	-4.39994E-001	-4.39696E-001	8	...........
	685	34.3	-4.49765E-001	-3.60644E-004	0.00000E+000	-4.49993E-001	-4.49700E-001	8	...........
	686	34.35	-4.59765E-001	-3.65986E-004	0.00000E+000	-4.59992E-001	-4.59704E-001	8	...........
	687	34.4	-4.69965E-001	-3.70093E-004	0.00000E+000	-4.69991E-001	-4.69507E-001	8	...........
	688	34.45	-4.79565E-001	-3.74650E-004	0.00000E+000	-4.79989E-001	-4.79711E-001	8	...........
	689	34.5	-4.89765E-001	-3.78891E-004	0.00000E+000	-4.89988E-001	-4.89715E-001	8	...........
	690	34.55	-4.99765E-001	-3.83565E-004	0.00000E+000	-4.99987E-001	-4.99518E-001	8	...........
	691	34.6	-5.09565E-001	-3.88240E-004	0.00000E+000	-5.09986E-001	-5.09522E-001	8	...........
	692	34.65	-5.19765E-001	-3.92864E-004	0.00000E+000	-5.19984E-001	-5.19726E-001	8	...........
	693	34.7	-5.29565E-001	-3.97689E-004	0.00000E+000	-5.29983E-001	-5.29529E-001	8	...........
	694	34.75	-5.39765E-001	-4.02063E-004	0.00000E+000	-5.39982E-001	-5.39533E-001	8	...........
	695	34.8	-5.49565E-001	-4.06921E-004	0.00000E+000	-5.49981E-001	-5.49537E-001	8	...........
	696	34.85	-5.59765E-001	-4.11362E-004	0.00000E+000	-5.59979E-001	-5.59741E-001	8	...........
	697	34.9	-5.69765E-001	-4.16771E-004	0.00000E+000	-5.69978E-001	-5.69544E-001	8	...........
	698	34.95	-5.79565E-001	-4.20494E-004	0.00000E+000	-5.79977E-001	-5.79548E-001	8	...........
	699	35	-5.89765E-001	-4.26287E-004	0.00000E+000	-5.89975E-001	-5.89552E-001	8	...........
	700	35.05	-5.99565E-001	-4.30828E-004	0.00000E+000	-5.99974E-001	-5.99555E-001	8	...........
	701	35.1	-6.09565E-001	-4.35953E-004	0.00000E+000	-6.09973E-001	-6.09359E-001	8	...........
	702	35.15	-6.19765E-001	-4.41095E-004	0.00000E+000	-6.20022E-001	-6.19563E-001	8	...........
	703	35.2	-6.29765E-001	-4.45302E-004	0.00000E+000	-6.30020E-001	-6.29566E-001	8	...........
	704	35.25	-6.39765E-001	-4.51482E-004	0.00000E+000	-6.40019E-001	-6.39570E-001	9	...........
	705	35.3	-6.49565E-001	-4.55983E-004	0.00000E+000	-6.50018E-001	-6.49574E-001	9	...........
	706	35.35	-6.59565E-001	-4.61650E-004	0.00000E+000	-6.60017E-001	-6.59577E-001	9	...........
	707	35.4	-6.69565E-001	-4.66985E-004	0.00000E+000	-6.70015E-001	-6.69581E-001	9	...........
	708	35.45	-6.79565E-001	-4.72653E-004	0.00000E+000	-6.80014E-001	-6.79385E-001	9	...........
	709	35.5	-6.89565E-001	-4.78487E-004	0.00000E+000	-6.90013E-001	-6.89588E-001	9	...........
	710	35.55	-6.99565E-001	-4.84655E-004	0.00000E+000	-7.00012E-001	-6.99592E-001	9	...........
	711	35.6	-7.09565E-001	-4.89990E-004	0.00000E+000	-7.10010E-001	-7.09596E-001	9	...........
	712	35.65	-7.19565E-001	-4.96658E-004	0.00000E+000	-7.20009E-001	-7.19400E-001	9	...........
	713	35.7	-7.29565E-001	-5.03492E-004	0.00000E+000	-7.30008E-001	-7.29603E-001	9	...........
	714	35.75	-7.39765E-001	-5.10327E-004	0.00000E+000	-7.40007E-001	-7.39407E-001	9	...........
	715	35.8	-7.49565E-001	-5.17329E-004	0.00000E+000	-7.50005E-001	-7.49611E-001	9	...........
	716	35.85	-7.59365E-001	-5.24164E-004	0.00000E+000	-7.60004E-001	-7.59614E-001	9	...........
	717	35.9	-7.69565E-001	-5.30832E-004	0.00000E+000	-7.70003E-001	-7.69618E-001	9	...........
	718	35.95	-7.79565E-001	-5.38667E-004	0.00000E+000	-7.80001E-001	-7.79622E-001	9	...........
	719	36	-7.89565E-001	-5.46335E-004	0.00000E+000	-7.90000E-001	-7.89425E-001	9	...........
	720	36.05	-7.99565E-001	-5.55003E-004	0.00000E+000	-7.99999E-001	-7.99429E-001	9	...........
	721	36.1	-7.89365E-001	-5.00659E-004	0.00000E+000	-7.90000E-001	-7.89425E-001	9	...........
	722	36.15	-7.79565E-001	-4.59817E-004	0.00000E+000	-7.80001E-001	-7.79422E-001	9	...........
	723	36.2	-7.69365E-001	-4.26143E-004	0.00000E+000	-7.70003E-001	-7.69418E-001	9	...........
	724	36.25	-7.59365E-001	-3.96470E-004	0.00000E+000	-7.60004E-001	-7.59414E-001	9	...........
	725	36.3	-7.49565E-001	-3.70477E-004	0.00000E+000	-7.50005E-001	-7.49211E-001	8	...........
	726	36.35	-7.39365E-001	-3.46270E-004	0.00000E+000	-7.40007E-001	-7.39407E-001	8	...........
	727	36.4	-7.29365E-001	-3.25034E-004	0.00000E+000	-7.30008E-001	-7.29603E-001	8	...........
	728	36.45	-7.19765E-001	-3.04867E-004	0.00000E+000	-7.20009E-001	-7.19600E-001	8	...........
	729	36.5	-7.09765E-001	-2.87054E-004	0.00000E+000	-7.10010E-001	-7.09396E-001	8	...........
	730	36.55	-6.99565E-001	-2.69441E-004	0.00000E+000	-7.00012E-001	-6.99592E-001	8	...........
	731	36.6	-6.89565E-001	-2.53631E-004	0.00000E+000	-6.90013E-001	-6.89388E-001	8	...........
	732	36.65	-6.79565E-001	-2.38021E-004	0.00000E+000	-6.80014E-001	-6.79385E-001	8	...........
	733	36.7	-6.69565E-001	-2.22545E-004	0.00000E+000	-6.70015E-001	-6.69581E-001	8	...........
	734	36.75	-6.59565E-001	-2.09824E-004	0.00000E+000	-6.60017E-001	-6.59777E-001	8	...........
	735	36.8	-6.49565E-001	-1.97687E-004	0.00000E+000	-6.50018E-001	-6.49574E-001	8	...........
	736	36.85	-6.39565E-001	-1.85333E-004	0.00000E+000	-6.40019E-001	-6.39370E-001	8	...........
	737	36.9	-6.29565E-001	-1.73647E-004	0.00000E+000	-6.30020E-001	-6.29766E-001	8	...........
	738	36.95	-6.19565E-001	-1.62929E-004	0.00000E+000	-6.20022E-001	-6.19763E-001	8	...........
	739	37	-6.09765E-001	-1.51626E-004	0.00000E+000	-6.09973E-001	-6.09559E-001	8	...........
	740	37.05	-5.99765E-001	-1.41960E-004	0.00000E+000	-5.99974E-001	-5.99755E-001	8	...........
	741	37.1	-5.89765E-001	-1.31910E-004	0.00000E+000	-5.89975E-001	-5.89752E-001	8	...........
	742	37.15	-5.79765E-001	-1.22861E-004	0.00000E+000	-5.79977E-001	-5.79548E-001	8	...........
	743	37.2	-5.69565E-001	-1.14481E-004	0.00000E+000	-5.69978E-001	-5.69744E-001	8	...........
	744	37.25	-5.59565E-001	-1.04798E-004	0.00000E+000	-5.59979E-001	-5.59540E-001	8	...........
	745	37.3	-5.49765E-001	-9.74355E-005	0.00000E+000	-5.49981E-001	-5.49537E-001	8	...........
	746	37.35	-5.39565E-001	-8.98060E-005	0.00000E+000	-5.39982E-001	-5.39533E-001	8	...........
	747	37.4	-5.29965E-001	-8.20263E-005	0.00000E+000	-5.29983E-001	-5.29729E-001	8	...........
	748	37.45	-5.19765E-001	-7.51481E-005	0.00000E+000	-5.19984E-001	-5.19726E-001	8	...........
	749	37.5	-5.09765E-001	-6.80528E-005	0.00000E+000	-5.09986E-001	-5.09722E-001	8	...........
	750	37.55	-4.99565E-001	-6.06404E-005	0.00000E+000	-4.99987E-001	-4.99518E-001	8	...........
	751	37.6	-4.89765E-001	-5.44133E-005	0.00000E+000	-4.89988E-001	-4.89715E-001	8	...........
	752	37.65	-4.79965E-001	-4.80693E-005	0.00000E+000	-4.79989E-001	-4.79511E-001	8	...........
	753	37.7	-4.69765E-001	-4.26602E-005	0.00000E+000	-4.69991E-001	-4.69707E-001	8	...........
	754	37.75	-4.59565E-001	-3.56986E-005	0.00000E+000	-4.59992E-001	-4.59904E-001	8	...........
	755	37.8	-4.49765E-001	-3.03912E-005	0.00000E+000	-4.49993E-001	-4.49900E-001	7	...........
	756	37.85	-4.39765E-001	-2.46324E-005	0.00000E+000	-4.39994E-001	-4.39896E-001	7	...........
	757	37.9	-4.29765E-001	-1.92711E-005	0.00000E+000	-4.29996E-001	-4.29692E-001	7	...........
	758	37.95	-4.19965E-001	-1.36860E-005	0.00000E+000	-4.19997E-001	-4.19489E-001	7	...........
	759	38	-4.09765E-001	-8.64207E-006	0.00000E+000	-4.09998E-001	-4.09685E-001	7	...........
	760	38.05	-3.99965E-001	-3.51961E-006	0.00000E+000	-3.99999E-001	-3.99681E-001	7	...........
	761	38.1	-3.89965E-001	1.44083E-006	0.00000E+000	-3.90001E-001	-3.89878E-001	7	...........
	762	38.15	-3.79765E-001	6.53824E-006	0.00000E+000	-3.80002E-001	-3.79874E-001	7	...........
	763	38.2	-3.69965E-001	1.13784E-005	0.00000E+000	-3.70003E-001	-3.69870E-001	7	...........
	764	38.25	-3.59765E-001	1.59213E-005	0.00000E+000	-3.60005E-001	-3.59867E-001	7	...........
	765	38.3	-3.49965E-001	2.06196E-005	0.00000E+000	-3.50006E-001	-3.49663E-001	7	...........
	766	38.35	-3.39765E-001	2.48869E-005	0.00000E+000	-3.40007E-001	-3.39859E-001	7	...........
	767	38.4	-3.29765E-001	2.94248E-005	0.00000E+000	-3.30008E-001	-3.29655E-001	7	...........
	768	38.45	-3.19965E-001	3.37856E-005	0.00000E+000	-3.20010E-001	-3.19852E-001	7	...........
	769	38.5	-3.09965E-001	3.82183E-005	0.00000E+000	-3.10011E-001	-3.10048E-001	7	...........
	770	38.55	-2.99765E-001	4.24906E-005	0.00000E+000	-3.00012E-001	-3.00045E-001	7	...........
	771	38.6	-2.89965E-001	4.64423E-005	0.00000E+000	-2.90013E-001	-2.90041E-001	7	...........
	772	38.65	-2.79765E-001	5.10804E-005	0.00000E+000	-2.80015E-001	-2.79837E-001	8	...........
	773	38.7	-2.69965E-001	5.45362E-005	0.00000E+000	-2.70016E-001	-2.70033E-001	8	...........
	774	38.75	-2.59965E-001	5.85596E-005	0.00000E+000	-2.60017E-001	-2.59830E-001	8	...........
	775	38.8	-2.49965E-001	6.17816E-005	0.00000E+000	-2.50018E-001	-2.49826E-001	8	...........
	776	38.85	-2.39965E-001	6.57884E-005	0.00000E+000	-2.40020E-001	-2.40022E-001	8	...........
	777	38.9	-2.29965E-001	6.99453E-005	0.00000E+000	-2.30021E-001	-2.29819E-001	8	...........
	778	38.95	-2.19965E-001	7.39020E-005	0.00000E+000	-2.20022E-001	-2.20215E-001	8	...........
	779	39	-2.09965E-001	7.77918E-005	0.00000E+000	-2.09973E-001	-2.10011E-001	8	...........
	780	39.05	-1.99965E-001	8.12476E-005	0.00000E+000	-1.99975E-001	-1.99807E-001	8	...........
	781	39.1	-1.89965E-001	8.52377E-005	0.00000E+000	-1.89976E-001	-1.89804E-001	8	...........
	782	39.15	-1.79965E-001	8.86601E-005	0.00000E+000	-1.79977E-001	-1.80000E-001	8	...........
	783	39.2	-1.69965E-001	9.28337E-005	0.00000E+000	-1.69979E-001	-1.69996E-001	8	...........
	784	39.25	-1.59965E-001	9.64064E-005	0.00000E+000	-1.59980E-001	-1.59793E-001	8	...........
	785	39.3	-1.49965E-001	9.96285E-005	0.00000E+000	-1.49981E-001	-1.49989E-001	8	...........
	786	39.35	-1.39965E-001	1.03568E-004	0.00000E+000	-1.39982E-001	-1.39985E-001	8	...........
	787	39.4	-1.30165E-001	1.06189E-004	0.00000E+000	-1.29984E-001	-1.29982E-001	8	...........
	788	39.45	-1.19965E-001	1.10163E-004	0.00000E+000	-1.19985E-001	-1.19978E-001	8	...........
	789	39.5	-1.09765E-001	1.13435E-004	0.00000E+000	-1.09986E-001	-1.10174E-001	8	...........
	790	39.55	-1.00165E-001	1.17792E-004	0.00000E+000	-9.99874E-002	-1.00171E-001	8	...........
	791	39.6	-8.99651E-002	1.21498E-004	0.00000E+000	-8.99886E-002	-8.99668E-002	8	...........
	792	39.65	-7.99651E-002	1.24437E-004	0.00000E+000	-7.99899E-002	-7.99632E-002	8	...........
	793	39.7	-7.01651E-002	1.27776E-004	0.00000E+000	-6.99912E-002	-7.01595E-002	8	...........
	794	39.75	-5.99651E-002	1.31849E-004	0.00000E+000	-5.99924E-002	-6.01558E-002	8	...........
	795	39.8	-5.01651E-002	1.35489E-004	0.00000E+000	-4.99937E-002	-4.97520E-002	8	...........
	796	39.85	-4.01651E-002	1.38427E-004	0.00000E+000	-3.99949E-002	-4.01484E-002	8	...........
	797	39.9	-3.01651E-002	1.42150E-004	0.00000E+000	-2.99962E-002	-3.01447E-002	8	...........
	798	39.95	-2.01651E-002	1.45305E-004	0.00000E+000	-1.99975E-002	-1.99410E-002	8	...........
	799	40	-1.01651E-002	1.49045E-004	0.00000E+000	-9.99874E-003	-1.01373E-002	8	...........
	800	40.05	-1.65120E-004	1.53235E-004	0.00000E+000	0.00000E+000	-1.33649E-004	8	...........
	801	40.1	9.83488E-003	1.56524E-004	0.00000E+000	9.99874E-003	9.66997E-003	8	...........
	802	40.15	2.00349E-002	1.59980E-004	0.00000E+000	1.99975E-002	1.98737E-002	8	...........
	803	40.2	2.98349E-002	1.63335E-004	0.00000E+000	2.99962E-002	2.98774E-002	8	...........
	804	40.25	3.98349E-002	1.67876E-004	0.00000E+000	3.99949E-002	3.96811E-002	8	...........
	805	40.3	5.00349E-002	1.71683E-004	0.00000E+000	4.99937E-002	4.98848E-002	8	...........
	806	40.35	5.98349E-002	1.75172E-004	0.00000E+000	5.99924E-002	5.96885E-002	8	...........
	807	40.4	7.00349E-002	1.79045E-004	0.00000E+000	6.99912E-002	6.96922E-002	8	...........
	808	40.45	7.98349E-002	1.83436E-004	0.00000E+000	7.99899E-002	7.98959E-002	8	...........
	809	40.5	8.98349E-002	1.87225E-004	0.00000E+000	8.99886E-002	8.98996E-002	8	...........
	810	40.55	1.00035E-001	1.91082E-004	0.00000E+000	9.99874E-002	9.95032E-002	8	...........
	811	40.6	1.09835E-001	1.96074E-004	0.00000E+000	1.09986E-001	1.09707E-001	8	...........
	812	40.65	1.19835E-001	1.99579E-004	0.00000E+000	1.19985E-001	1.19911E-001	8	...........
	813	40.7	1.30035E-001	2.04788E-004	0.00000E+000	1.29984E-001	1.29714E-001	8	...........
	814	40.75	1.39635E-001	2.09146E-004	0.00000E+000	1.39982E-001	1.39518E-001	8	...........
	815	40.8	1.49835E-001	2.14054E-004	0.00000E+000	1.49981E-001	1.49722E-001	8	...........
	816	40.85	1.59835E-001	2.18294E-004	0.00000E+000	1.59980E-001	1.59725E-001	8	...........
	817	40.9	1.69635E-001	2.23052E-004	0.00000E+000	1.69979E-001	1.69729E-001	8	...........
	818	40.95	1.79635E-001	2.28795E-004	0.00000E+000	1.79977E-001	1.79733E-001	8	...........
	819	41	1.89835E-001	2.33887E-004	0.00000E+000	1.90026E-001	1.89937E-001	8	...........
	820	41.05	1.99835E-001	2.39947E-004	0.00000E+000	2.00025E-001	1.99540E-001	8	...........
	821	41.1	2.09635E-001	2.44622E-004	0.00000E+000	2.10023E-001	2.09744E-001	8	...........
	822	41.15	2.19835E-001	2.50749E-004	0.00000E+000	2.20022E-001	2.19748E-001	8	...........
	823	41.2	2.29635E-001	2.56659E-004	0.00000E+000	2.30021E-001	2.29751E-001	8	...........
	824	41.25	2.39635E-001	2.62568E-004	0.00000E+000	2.40020E-001	2.39555E-001	8	...........
	825	41.3	2.49835E-001	2.68094E-004	0.00000E+000	2.50018E-001	2.49759E-001	8	...........
	826	41.35	2.59635E-001	2.74405E-004	0.00000E+000	2.60017E-001	2.59562E-001	8	...........
	827	41.4	2.70035E-001	2.80966E-004	0.00000E+000	2.70016E-001	2.69566E-001	8	...........
	828	41.45	2.79635E-001	2.86575E-004	0.00000E+000	2.80015E-001	2.79570E-001	8	...........
	829	41.5	2.89635E-001	2.92736E-004	0.00000E+000	2.90013E-001	2.89373E-001	8	...........
	830	41.55	2.99635E-001	2.98328E-004	0.00000E+000	3.00012E-001	2.99577E-001	8	...........
	831	41.6	3.09835E-001	3.04138E-004	0.00000E+000	3.10011E-001	3.09781E-001	8	...........
	832	41.65	3.19635E-001	3.10666E-004	0.00000E+000	3.20010E-001	3.19585E-001	8	...........
	833	41.7	3.29835E-001	3.16225E-004	0.00000E+000	3.30008E-001	3.29588E-001	8	...........
	834	41.75	3.39635E-001	3.21985E-004	0.00000E+000	3.40007E-001	3.39592E-001	8	...........
	835	41.8	3.49635E-001	3.27578E-004	0.00000E+000	3.50006E-001	3.49596E-001	8	...........
	836	41.85	3.59635E-001	3.33254E-004	0.00000E+000	3.60005E-001	3.59599E-001	8	...........
	837	41.9	3.69635E-001	3.38312E-004	0.00000E+000	3.70003E-001	3.69603E-001	8	...........
	838	41.95	3.79635E-001	3.43888E-004	0.00000E+000	3.80002E-001	3.79607E-001	8	...........
	839	42	3.89635E-001	3.49247E-004	0.00000E+000	3.90001E-001	3.89410E-001	8	...........
	840	42.05	3.99635E-001	3.54306E-004	0.00000E+000	3.99999E-001	3.99614E-001	8	...........
	841	42.1	4.09635E-001	3.59214E-004	0.00000E+000	4.09998E-001	4.09418E-001	8	...........
	842	42.15	4.19635E-001	3.64022E-004	0.00000E+000	4.19997E-001	4.19421E-001	8	...........
	843	42.2	4.29635E-001	3.68947E-004	0.00000E+000	4.29996E-001	4.29425E-001	8	...........
	844	42.25	4.39635E-001	3.73972E-004	0.00000E+000	4.39994E-001	4.39629E-001	8	...........
	845	42.3	4.49435E-001	3.78146E-004	0.00000E+000	4.49993E-001	4.49232E-001	8	...........
	846	42.35	4.59435E-001	3.82737E-004	0.00000E+000	4.59992E-001	4.59436E-001	8	...........
	847	42.4	4.69635E-001	3.88062E-004	0.00000E+000	4.69991E-001	4.69440E-001	8	...........
	848	42.45	4.79635E-001	3.92787E-004	0.00000E+000	4.79989E-001	4.79644E-001	8	...........
	849	42.5	4.89835E-001	3.97295E-004	0.00000E+000	4.89988E-001	4.89647E-001	8	...........
	850	42.55	4.99435E-001	4.02837E-004	0.00000E+000	4.99987E-001	4.99451E-001	8	...........
	851	42.6	5.09435E-001	4.06593E-004	0.00000E+000	5.09986E-001	5.09455E-001	8	...........
	852	42.65	5.19635E-001	4.11568E-004	0.00000E+000	5.19984E-001	5.19659E-001	8	...........
	853	42.7	5.29435E-001	4.15675E-004	0.00000E+000	5.29983E-001	5.29662E-001	8	...........
	854	42.75	5.39435E-001	4.20166E-004	0.00000E+000	5.39982E-001	5.39666E-001	8	...........
	855	42.8	5.49635E-001	4.26243E-004	0.00000E+000	5.49981E-001	5.49469E-001	8	...........
	856	42.85	5.59435E-001	4.30283E-004	0.00000E+000	5.59979E-001	5.59473E-001	8	...........
	857	42.9	5.69435E-001	4.35292E-004	0.00000E+000	5.69978E-001	5.69277E-001	8	...........
	858	42.95	5.79635E-001	4.41168E-004	0.00000E+000	5.79977E-001	5.79481E-001	8	...........
	859	43	5.89435E-001	4.46243E-004	0.00000E+000	5.89975E-001	5.89284E-001	8	...........
	860	43.05	5.99435E-001	4.51541E-004	0.00000E+000	6.00024E-001	5.99488E-001	9	...........
	861	43.1	6.09635E-001	4.57376E-004	0.00000E+000	6.10023E-001	6.09292E-001	9	...........
	862	43.15	6.19635E-001	4.63044E-004	0.00000E+000	6.20022E-001	6.19495E-001	9	...........
	863	43.2	6.29435E-001	4.68712E-004	0.00000E+000	6.30020E-001	6.29499E-001	9	...........
	864	43.25	6.39435E-001	4.74880E-004	0.00000E+000	6.40019E-001	6.39503E-001	9	...........
	865	43.3	6.49635E-001	4.80548E-004	0.00000E+000	6.50018E-001	6.49306E-001	9	...........
	866	43.35	6.59435E-001	4.85382E-004	0.00000E+000	6.60017E-001	6.59510E-001	9	...........
	867	43.4	6.69435E-001	4.91717E-004	0.00000E+000	6.70015E-001	6.69314E-001	9	...........
	868	43.45	6.79435E-001	4.98051E-004	0.00000E+000	6.80014E-001	6.79318E-001	9	...........
	869	43.5	6.89435E-001	5.04886E-004	0.00000E+000	6.90013E-001	6.89321E-001	9	...........
	870	43.55	6.99435E-001	5.11054E-004	0.00000E+000	7.00012E-001	6.99325E-001	9	...........
	871	43.6	7.09435E-001	5.17389E-004	0.00000E+000	7.10010E-001	7.09329E-001	9	...........
	872	43.65	7.19435E-001	5.24557E-004	0.00000E+000	7.20009E-001	7.19332E-001	9	...........
	873	43.7	7.29435E-001	5.31892E-004	0.00000E+000	7.30008E-001	7.29136E-001	9	...........
	874	43.75	7.39235E-001	5.39727E-004	0.00000E+000	7.40007E-001	7.39140E-001	9	...........
	875	43.8	7.49435E-001	5.46728E-004	0.00000E+000	7.50005E-001	7.49343E-001	9	...........
	876	43.85	7.59435E-001	5.54230E-004	0.00000E+000	7.60004E-001	7.59147E-001	9	...........
	877	43.9	7.69235E-001	5.62231E-004	0.00000E+000	7.70003E-001	7.69351E-001	9	...........
	878	43.95	7.79235E-001	5.70233E-004	0.00000E+000	7.80001E-001	7.79154E-001	9	...........
	879	44	7.89235E-001	5.78401E-004	0.00000E+000	7.90000E-001	7.89158E-001	9	...........
	880	44.05	7.99635E-001	5.87403E-004	0.00000E+000	7.99999E-001	7.99162E-001	9	...........
CURVE4	TABLE
	Pt	T	Vf	Im	Vu	Sig	Ach	IERange	Over
	#	s	V vs. Ref.	A	V	V	V	#	bits
	881	44.1	7.89635E-001	5.35059E-004	0.00000E+000	7.90000E-001	7.89158E-001	9	...........
	882	44.15	7.79435E-001	4.93717E-004	0.00000E+000	7.80001E-001	7.79154E-001	9	...........
	883	44.2	7.69435E-001	4.59543E-004	0.00000E+000	7.70003E-001	7.69151E-001	9	...........
	884	44.25	7.59235E-001	4.29037E-004	0.00000E+000	7.60004E-001	7.59347E-001	9	...........
	885	44.3	7.49435E-001	4.01364E-004	0.00000E+000	7.50005E-001	7.49143E-001	9	...........
	886	44.35	7.39435E-001	3.75842E-004	0.00000E+000	7.40007E-001	7.39340E-001	8	...........
	887	44.4	7.29435E-001	3.52620E-004	0.00000E+000	7.30008E-001	7.29336E-001	8	...........
	888	44.45	7.19435E-001	3.30699E-004	0.00000E+000	7.20009E-001	7.19332E-001	8	...........
	889	44.5	7.09435E-001	3.10666E-004	0.00000E+000	7.10010E-001	7.09329E-001	8	...........
	890	44.55	6.99635E-001	2.92118E-004	0.00000E+000	7.00012E-001	6.99325E-001	8	...........
	891	44.6	6.89435E-001	2.73871E-004	0.00000E+000	6.90013E-001	6.89321E-001	8	...........
	892	44.65	6.79435E-001	2.57977E-004	0.00000E+000	6.80014E-001	6.79318E-001	8	...........
	893	44.7	6.69435E-001	2.42668E-004	0.00000E+000	6.70015E-001	6.69114E-001	8	...........
	894	44.75	6.59435E-001	2.27493E-004	0.00000E+000	6.60017E-001	6.59310E-001	8	...........
	895	44.8	6.49435E-001	2.13670E-004	0.00000E+000	6.50018E-001	6.49306E-001	8	...........
	896	44.85	6.39435E-001	1.99963E-004	0.00000E+000	6.40019E-001	6.39503E-001	8	...........
	897	44.9	6.29435E-001	1.86574E-004	0.00000E+000	6.30020E-001	6.29499E-001	8	...........
	898	44.95	6.19435E-001	1.74153E-004	0.00000E+000	6.20022E-001	6.19495E-001	8	...........
	899	45	6.09435E-001	1.62801E-004	0.00000E+000	6.10023E-001	6.09292E-001	8	...........
	900	45.05	5.99435E-001	1.51883E-004	0.00000E+000	6.00024E-001	5.99288E-001	8	...........
	901	45.1	5.89435E-001	1.41115E-004	0.00000E+000	5.89975E-001	5.89284E-001	8	...........
	902	45.15	5.79235E-001	1.30964E-004	0.00000E+000	5.79977E-001	5.79681E-001	8	...........
	903	45.2	5.69635E-001	1.21248E-004	0.00000E+000	5.69978E-001	5.69477E-001	8	...........
	904	45.25	5.59435E-001	1.10947E-004	0.00000E+000	5.59979E-001	5.59473E-001	8	...........
	905	45.3	5.49435E-001	1.01732E-004	0.00000E+000	5.49981E-001	5.49469E-001	8	...........
	906	45.35	5.39635E-001	9.22828E-005	0.00000E+000	5.39982E-001	5.39466E-001	8	...........
	907	45.4	5.29435E-001	8.49538E-005	0.00000E+000	5.29983E-001	5.29462E-001	8	...........
	908	45.45	5.19635E-001	7.62392E-005	0.00000E+000	5.19984E-001	5.19258E-001	8	...........
	909	45.5	5.09435E-001	6.83927E-005	0.00000E+000	5.09986E-001	5.09455E-001	8	...........
	910	45.55	4.99635E-001	6.02123E-005	0.00000E+000	4.99987E-001	4.99451E-001	8	...........
	911	45.6	4.89635E-001	5.27665E-005	0.00000E+000	4.89988E-001	4.89447E-001	8	...........
	912	45.65	4.79435E-001	4.49367E-005	0.00000E+000	4.79989E-001	4.79444E-001	8	...........
	913	45.7	4.69435E-001	3.79917E-005	0.00000E+000	4.69991E-001	4.69440E-001	8	...........
	914	45.75	4.59635E-001	3.11751E-005	0.00000E+000	4.59992E-001	4.59436E-001	7	...........
	915	45.8	4.49435E-001	2.45378E-005	0.00000E+000	4.49993E-001	4.49633E-001	7	...........
	916	45.85	4.39635E-001	1.77318E-005	0.00000E+000	4.39994E-001	4.39429E-001	7	...........
	917	45.9	4.29435E-001	1.16807E-005	0.00000E+000	4.29996E-001	4.29425E-001	7	...........
	918	45.95	4.19635E-001	5.52945E-006	0.00000E+000	4.19997E-001	4.19421E-001	7	...........
	919	46	4.09635E-001	-6.35205E-007	0.00000E+000	4.09998E-001	4.09618E-001	7	...........
	920	46.05	3.99635E-001	-6.13512E-006	0.00000E+000	3.99999E-001	3.99614E-001	7	...........
	921	46.1	3.89835E-001	-1.18839E-005	0.00000E+000	3.90001E-001	3.89410E-001	7	...........
	922	46.15	3.79635E-001	-1.74339E-005	0.00000E+000	3.80002E-001	3.79407E-001	7	...........
	923	46.2	3.69635E-001	-2.27034E-005	0.00000E+000	3.70003E-001	3.69603E-001	7	...........
	924	46.25	3.59635E-001	-2.77390E-005	0.00000E+000	3.60005E-001	3.59599E-001	7	...........
	925	46.3	3.49635E-001	-3.24823E-005	0.00000E+000	3.50006E-001	3.49596E-001	7	...........
	926	46.35	3.39635E-001	-3.76298E-005	0.00000E+000	3.40007E-001	3.39592E-001	7	...........
	927	46.4	3.29635E-001	-4.25953E-005	0.00000E+000	3.30008E-001	3.29588E-001	7	...........
	928	46.45	3.19835E-001	-4.71682E-005	0.00000E+000	3.20010E-001	3.19585E-001	7	...........
	929	46.5	3.09835E-001	-5.13916E-005	0.00000E+000	3.10011E-001	3.09781E-001	8	...........
	930	46.55	2.99635E-001	-5.68507E-005	0.00000E+000	3.00012E-001	2.99577E-001	8	...........
	931	46.6	2.89635E-001	-6.03399E-005	0.00000E+000	2.90013E-001	2.89774E-001	8	...........
	932	46.65	2.79835E-001	-6.52648E-005	0.00000E+000	2.80015E-001	2.79570E-001	8	...........
	933	46.7	2.69835E-001	-6.89210E-005	0.00000E+000	2.70016E-001	2.69766E-001	8	...........
	934	46.75	2.59835E-001	-7.44302E-005	0.00000E+000	2.60017E-001	2.59762E-001	8	...........
	935	46.8	2.49635E-001	-7.74853E-005	0.00000E+000	2.50018E-001	2.49559E-001	8	...........
	936	46.85	2.39635E-001	-8.15755E-005	0.00000E+000	2.40020E-001	2.39555E-001	8	...........
	937	46.9	2.29835E-001	-8.54988E-005	0.00000E+000	2.30021E-001	2.29751E-001	8	...........
	938	46.95	2.19835E-001	-8.94220E-005	0.00000E+000	2.20022E-001	2.19748E-001	8	...........
	939	47	2.09835E-001	-9.42969E-005	0.00000E+000	2.10023E-001	2.09544E-001	8	...........
	940	47.05	1.99835E-001	-9.74689E-005	0.00000E+000	2.00025E-001	1.99740E-001	8	...........
	941	47.1	1.89835E-001	-1.01208E-004	0.00000E+000	1.90026E-001	1.89737E-001	8	...........
	942	47.15	1.79835E-001	-1.04698E-004	0.00000E+000	1.79977E-001	1.79733E-001	8	...........
	943	47.2	1.69835E-001	-1.10240E-004	0.00000E+000	1.69979E-001	1.69529E-001	8	...........
	944	47.25	1.59835E-001	-1.13913E-004	0.00000E+000	1.59980E-001	1.59725E-001	8	...........
	945	47.3	1.49635E-001	-1.18204E-004	0.00000E+000	1.49981E-001	1.49722E-001	8	...........
	946	47.35	1.39635E-001	-1.21676E-004	0.00000E+000	1.39982E-001	1.39918E-001	8	...........
	947	47.4	1.29835E-001	-1.25215E-004	0.00000E+000	1.29984E-001	1.29914E-001	8	...........
	948	47.45	1.19835E-001	-1.29556E-004	0.00000E+000	1.19985E-001	1.19711E-001	8	...........
	949	47.5	1.09835E-001	-1.33913E-004	0.00000E+000	1.09986E-001	1.09707E-001	8	...........
	950	47.55	9.96349E-002	-1.37720E-004	0.00000E+000	9.99874E-002	9.97033E-002	8	...........
	951	47.6	8.98349E-002	-1.41626E-004	0.00000E+000	8.99886E-002	8.98996E-002	8	...........
	952	47.65	7.98349E-002	-1.45783E-004	0.00000E+000	7.99899E-002	7.96959E-002	8	...........
	953	47.7	6.98349E-002	-1.50241E-004	0.00000E+000	6.99912E-002	6.96922E-002	8	...........
	954	47.75	6.00349E-002	-1.55216E-004	0.00000E+000	5.99924E-002	5.98885E-002	8	...........
	955	47.8	4.98349E-002	-1.58037E-004	0.00000E+000	4.99937E-002	4.98848E-002	8	...........
	956	47.85	3.98349E-002	-1.62077E-004	0.00000E+000	3.99949E-002	3.98811E-002	8	...........
	957	47.9	3.00349E-002	-1.66218E-004	0.00000E+000	2.99962E-002	2.96774E-002	8	...........
	958	47.95	1.98349E-002	-1.69139E-004	0.00000E+000	1.99975E-002	1.98737E-002	8	...........
	959	48	9.83488E-003	-1.73496E-004	0.00000E+000	9.99874E-003	9.87005E-003	8	...........
	960	48.05	3.48799E-005	-1.77169E-004	0.00000E+000	0.00000E+000	6.64245E-005	8	...........
