EXPLAIN
TAG	CV
TITLE	LABEL	Cyclic Voltammetry	Test Identifier
DATE	LABEL	7-7-2017	Date
TIME	LABEL	16:37:01	Time
NOTES	NOTES	1	Notes...
	2.8mg

PSTAT	PSTAT	IFC5000-01520	Potentiostat
VINIT	POTEN	0.00000E+000	F	Initial E (V)
VLIMIT1	POTEN	-8.00000E-001	F	Scan Limit 1 (V)
VLIMIT2	POTEN	8.00000E-001	F	Scan Limit 2 (V)
VFINAL	POTEN	0.00000E+000	F	Final E (V)
SCANRATE	QUANT	2.00000E+002	A Real Number
STEPSIZE	QUANT	1.00000E+001	Step Size (mV)
CYCLES	IQUANT	3	Cycles (#)
IMODE	SELECTOR	0	I/E Range Mode
IRANGE	QUANT	2.50000E+002	Max Current (mA)
AREA	QUANT	3.84800E-001	A Real Number
EQDELAY	QUANT	1.00000E+000	Equil. Time (s)
IRCOMP	SELECTOR	0	IRComp
PFCOR	QUANT	2.50000E+002	PF Corr. (ohm)
SAMPLINGMODE	SELECTOR	0	Sampling Mode
EOC	QUANT	0	Open Circuit (V)
SEQUENCER	TOGGLE	TRUE	Run as Sequence
PSTATMODEL	IQUANT	53	Pstat Model
PSTATSECTION	LABEL	IFC5000-01520	Pstat Section
PSTATSERIALNO	LABEL	01520	Pstat Serial Number
CTRLMODE	IQUANT	1	Control Mode
ELECTROMETER	IQUANT	0	RE=0 or CS=1
IESTAB	IQUANT	2	I/E Stability
CASPEED	IQUANT	4	Control Amp Speed
CONVENTION	IQUANT	1	Current Convention
ICHRANGE	IQUANT	2	Ich Range
ICHRANGEMODE	TOGGLE	F	Ich Auto Range
ICHOFFSETENABLE	TOGGLE	F	Ich Offset Enable
ICHOFFSET	QUANT	0	Ich Offset (V)
ICHFILTER	IQUANT	3	Ich Filter
VCHRANGE	IQUANT	2	Vch Range
VCHRANGEMODE	TOGGLE	F	Vch Auto Range
VCHOFFSETENABLE	TOGGLE	F	Vch Offset Enable
VCHOFFSET	QUANT	0	Vch Offset (V)
VCHFILTER	IQUANT	3	Vch Filter
IERANGELOWERLIMIT	IQUANT	7	I/E Range Lower Limit
IERANGEMODE	TOGGLE	T	I/E AutoRange
IERANGE	IQUANT	11	I/E Range
ACHSELECT	IQUANT	1	Ach Select
ACHRANGE	IQUANT	2	Ach Range
ACHOFFSETENABLE	TOGGLE	F	Ach Offset Enable
ACHOFFSET	QUANT	0	Ach Offset (V)
ACHFILTER	IQUANT	1	Ach Filter
CABLEID	IQUANT	14	Cable ID
DCCALDATE	LABEL	5-7-2017	DC Calibration Date
ACCALDATE	LABEL	12/3/2015	AC Calibration Date
FRAMEWORKVERSION	QUANT	7.01	Framework Version
INSTRUMENTVERSION	LABEL	4.00	Instrument Version
CURVE1	TABLE
	Pt	T	Vf	Im	Vu	Sig	Ach	IERange	Over
	#	s	V vs. Ref.	A	V	V	V	#	bits
	0	0.05	-3.65120E-004	-1.05321E-004	0.00000E+000	0.00000E+000	-3.33723E-004	11	...........
	1	0.1	-1.03651E-002	-9.39927E-005	0.00000E+000	-9.99874E-003	-1.05375E-002	10	...........
	2	0.15	-2.03651E-002	-9.62403E-005	0.00000E+000	-1.99975E-002	-2.03411E-002	9	...........
	3	0.2	-3.03651E-002	-1.00507E-004	0.00000E+000	-2.99962E-002	-3.03448E-002	8	...........
	4	0.25	-4.03651E-002	-1.05516E-004	0.00000E+000	-3.99949E-002	-4.05486E-002	8	...........
	5	0.3	-5.03651E-002	-1.10107E-004	0.00000E+000	-4.99937E-002	-5.03522E-002	8	...........
	6	0.35	-6.03651E-002	-1.14280E-004	0.00000E+000	-5.99924E-002	-6.03559E-002	8	...........
	7	0.4	-7.03651E-002	-1.18721E-004	0.00000E+000	-6.99912E-002	-7.01595E-002	8	...........
	8	0.45	-8.03651E-002	-1.23245E-004	0.00000E+000	-7.99899E-002	-8.01632E-002	8	...........
	9	0.5	-9.01651E-002	-1.28087E-004	0.00000E+000	-8.99886E-002	-9.01669E-002	8	...........
	10	0.55	-1.00165E-001	-1.32611E-004	0.00000E+000	-9.99874E-002	-1.00171E-001	8	...........
	11	0.6	-1.10165E-001	-1.37236E-004	0.00000E+000	-1.09986E-001	-1.10374E-001	8	...........
	12	0.65	-1.20365E-001	-1.41593E-004	0.00000E+000	-1.19985E-001	-1.20178E-001	8	...........
	13	0.7	-1.30165E-001	-1.46067E-004	0.00000E+000	-1.29984E-001	-1.30382E-001	8	...........
	14	0.75	-1.40165E-001	-1.50257E-004	0.00000E+000	-1.39982E-001	-1.40385E-001	8	...........
	15	0.8	-1.50365E-001	-1.54565E-004	0.00000E+000	-1.49981E-001	-1.50389E-001	8	...........
	16	0.85	-1.60165E-001	-1.59306E-004	0.00000E+000	-1.59980E-001	-1.60193E-001	8	...........
	17	0.9	-1.70165E-001	-1.63747E-004	0.00000E+000	-1.69979E-001	-1.70197E-001	8	...........
	18	0.95	-1.80165E-001	-1.68154E-004	0.00000E+000	-1.79977E-001	-1.80400E-001	8	...........
	19	1	-1.90365E-001	-1.72612E-004	0.00000E+000	-1.89976E-001	-1.90404E-001	8	...........
	20	1.05	-1.99965E-001	-1.77303E-004	0.00000E+000	-1.99975E-001	-2.00208E-001	8	...........
	21	1.1	-2.10365E-001	-1.81810E-004	0.00000E+000	-2.10023E-001	-2.10411E-001	8	...........
	22	1.15	-2.20165E-001	-1.86618E-004	0.00000E+000	-2.20022E-001	-2.20215E-001	8	...........
	23	1.2	-2.30165E-001	-1.91176E-004	0.00000E+000	-2.30021E-001	-2.30219E-001	8	...........
	24	1.25	-2.40365E-001	-1.95951E-004	0.00000E+000	-2.40020E-001	-2.40222E-001	8	...........
	25	1.3	-2.50165E-001	-2.00391E-004	0.00000E+000	-2.50018E-001	-2.50226E-001	8	...........
	26	1.35	-2.60165E-001	-2.04816E-004	0.00000E+000	-2.60017E-001	-2.60230E-001	8	...........
	27	1.4	-2.70165E-001	-2.09073E-004	0.00000E+000	-2.70016E-001	-2.70233E-001	8	...........
	28	1.45	-2.80365E-001	-2.14014E-004	0.00000E+000	-2.80015E-001	-2.80037E-001	8	...........
	29	1.5	-2.90165E-001	-2.18589E-004	0.00000E+000	-2.90013E-001	-2.90241E-001	8	...........
	30	1.55	-3.00165E-001	-2.23130E-004	0.00000E+000	-3.00012E-001	-3.00245E-001	8	...........
	31	1.6	-3.10165E-001	-2.28088E-004	0.00000E+000	-3.10011E-001	-3.10048E-001	8	...........
	32	1.65	-3.19965E-001	-2.32629E-004	0.00000E+000	-3.20010E-001	-3.20252E-001	8	...........
	33	1.7	-3.30165E-001	-2.37587E-004	0.00000E+000	-3.30008E-001	-3.30256E-001	8	...........
	34	1.75	-3.39965E-001	-2.42746E-004	0.00000E+000	-3.40007E-001	-3.40059E-001	8	...........
	35	1.8	-3.50165E-001	-2.47220E-004	0.00000E+000	-3.50006E-001	-3.50263E-001	8	...........
	36	1.85	-3.60165E-001	-2.51844E-004	0.00000E+000	-3.60005E-001	-3.60067E-001	8	...........
	37	1.9	-3.70165E-001	-2.56986E-004	0.00000E+000	-3.70003E-001	-3.70270E-001	8	...........
	38	1.95	-3.80165E-001	-2.61644E-004	0.00000E+000	-3.80002E-001	-3.79874E-001	8	...........
	39	2	-3.90165E-001	-2.66569E-004	0.00000E+000	-3.90001E-001	-3.90078E-001	8	...........
	40	2.05	-4.00165E-001	-2.71895E-004	0.00000E+000	-3.99999E-001	-4.00081E-001	8	...........
	41	2.1	-4.09965E-001	-2.76736E-004	0.00000E+000	-4.09998E-001	-4.10085E-001	8	...........
	42	2.15	-4.19965E-001	-2.81945E-004	0.00000E+000	-4.19997E-001	-4.19889E-001	8	...........
	43	2.2	-4.29965E-001	-2.86686E-004	0.00000E+000	-4.29996E-001	-4.30093E-001	8	...........
	44	2.25	-4.39965E-001	-2.91895E-004	0.00000E+000	-4.39994E-001	-4.40096E-001	8	...........
	45	2.3	-4.49965E-001	-2.97354E-004	0.00000E+000	-4.49993E-001	-4.49900E-001	8	...........
	46	2.35	-4.60165E-001	-3.02463E-004	0.00000E+000	-4.59992E-001	-4.59904E-001	8	...........
	47	2.4	-4.70165E-001	-3.07855E-004	0.00000E+000	-4.69991E-001	-4.70107E-001	8	...........
	48	2.45	-4.79965E-001	-3.13231E-004	0.00000E+000	-4.79989E-001	-4.79911E-001	8	...........
	49	2.5	-4.89765E-001	-3.18673E-004	0.00000E+000	-4.89988E-001	-4.89915E-001	8	...........
	50	2.55	-5.00165E-001	-3.24132E-004	0.00000E+000	-4.99987E-001	-4.99918E-001	8	...........
	51	2.6	-5.09965E-001	-3.29041E-004	0.00000E+000	-5.09986E-001	-5.09922E-001	8	...........
	52	2.65	-5.19965E-001	-3.34717E-004	0.00000E+000	-5.19984E-001	-5.19926E-001	8	...........
	53	2.7	-5.29965E-001	-3.39809E-004	0.00000E+000	-5.29983E-001	-5.30130E-001	8	...........
	54	2.75	-5.39765E-001	-3.45602E-004	0.00000E+000	-5.39982E-001	-5.39933E-001	8	...........
	55	2.8	-5.49965E-001	-3.51495E-004	0.00000E+000	-5.49981E-001	-5.49937E-001	8	...........
	56	2.85	-5.59765E-001	-3.56821E-004	0.00000E+000	-5.59979E-001	-5.59941E-001	8	...........
	57	2.9	-5.69965E-001	-3.63165E-004	0.00000E+000	-5.69978E-001	-5.69944E-001	8	...........
	58	2.95	-5.79765E-001	-3.68490E-004	0.00000E+000	-5.79977E-001	-5.79948E-001	8	...........
	59	3	-5.89965E-001	-3.74033E-004	0.00000E+000	-5.89975E-001	-5.89952E-001	8	...........
	60	3.05	-5.99765E-001	-3.80176E-004	0.00000E+000	-5.99974E-001	-5.99955E-001	8	...........
	61	3.1	-6.09965E-001	-3.86854E-004	0.00000E+000	-6.10023E-001	-6.09959E-001	8	...........
	62	3.15	-6.19965E-001	-3.92948E-004	0.00000E+000	-6.20022E-001	-6.19963E-001	8	...........
	63	3.2	-6.29965E-001	-3.99375E-004	0.00000E+000	-6.30020E-001	-6.29966E-001	8	...........
	64	3.25	-6.39965E-001	-4.05152E-004	0.00000E+000	-6.40019E-001	-6.39970E-001	8	...........
	65	3.3	-6.49965E-001	-4.12481E-004	0.00000E+000	-6.50018E-001	-6.49974E-001	8	...........
	66	3.35	-6.59765E-001	-4.19092E-004	0.00000E+000	-6.60017E-001	-6.59777E-001	8	...........
	67	3.4	-6.69765E-001	-4.25770E-004	0.00000E+000	-6.70015E-001	-6.69781E-001	8	...........
	68	3.45	-6.79765E-001	-4.32314E-004	0.00000E+000	-6.80014E-001	-6.79985E-001	8	...........
	69	3.5	-6.89765E-001	-4.39409E-004	0.00000E+000	-6.90013E-001	-6.89789E-001	8	...........
	70	3.55	-6.99765E-001	-4.46371E-004	0.00000E+000	-7.00012E-001	-6.99792E-001	8	...........
	71	3.6	-7.09765E-001	-4.54149E-004	0.00000E+000	-7.10010E-001	-7.10196E-001	9	...........
	72	3.65	-7.19765E-001	-4.61484E-004	0.00000E+000	-7.20009E-001	-7.20200E-001	9	...........
	73	3.7	-7.29765E-001	-4.68985E-004	0.00000E+000	-7.30008E-001	-7.29803E-001	9	...........
	74	3.75	-7.39965E-001	-4.77154E-004	0.00000E+000	-7.40007E-001	-7.39607E-001	9	...........
	75	3.8	-7.49965E-001	-4.84989E-004	0.00000E+000	-7.50005E-001	-7.49811E-001	9	...........
	76	3.85	-7.59965E-001	-4.94324E-004	0.00000E+000	-7.60004E-001	-7.59614E-001	9	...........
	77	3.9	-7.69765E-001	-5.02492E-004	0.00000E+000	-7.70003E-001	-7.69818E-001	9	...........
	78	3.95	-7.79765E-001	-5.11328E-004	0.00000E+000	-7.80001E-001	-7.79822E-001	9	...........
	79	4	-7.89765E-001	-5.20496E-004	0.00000E+000	-7.90000E-001	-7.89625E-001	9	...........
	80	4.05	-7.99965E-001	-5.30498E-004	0.00000E+000	-7.99999E-001	-7.99829E-001	9	...........
	81	4.1	-7.89965E-001	-4.90990E-004	0.00000E+000	-7.90000E-001	-7.89825E-001	9	...........
	82	4.15	-7.79965E-001	-4.59983E-004	0.00000E+000	-7.80001E-001	-7.79822E-001	9	...........
	83	4.2	-7.69565E-001	-4.33478E-004	0.00000E+000	-7.70003E-001	-7.70018E-001	9	...........
	84	4.25	-7.59965E-001	-4.09306E-004	0.00000E+000	-7.60004E-001	-7.59814E-001	9	...........
	85	4.3	-7.49765E-001	-3.87468E-004	0.00000E+000	-7.50005E-001	-7.49811E-001	9	...........
	86	4.35	-7.39765E-001	-3.67205E-004	0.00000E+000	-7.40007E-001	-7.39807E-001	8	...........
	87	4.4	-7.29765E-001	-3.48390E-004	0.00000E+000	-7.30008E-001	-7.29803E-001	8	...........
	88	4.45	-7.19765E-001	-3.30977E-004	0.00000E+000	-7.20009E-001	-7.20000E-001	8	...........
	89	4.5	-7.09765E-001	-3.14483E-004	0.00000E+000	-7.10010E-001	-7.09796E-001	8	...........
	90	4.55	-6.99765E-001	-2.99408E-004	0.00000E+000	-7.00012E-001	-6.99792E-001	8	...........
	91	4.6	-6.89765E-001	-2.84566E-004	0.00000E+000	-6.90013E-001	-6.89989E-001	8	...........
	92	4.65	-6.79965E-001	-2.70943E-004	0.00000E+000	-6.80014E-001	-6.79785E-001	8	...........
	93	4.7	-6.69965E-001	-2.57905E-004	0.00000E+000	-6.70015E-001	-6.69581E-001	8	...........
	94	4.75	-6.59965E-001	-2.45317E-004	0.00000E+000	-6.60017E-001	-6.59777E-001	8	...........
	95	4.8	-6.49765E-001	-2.33564E-004	0.00000E+000	-6.50018E-001	-6.49974E-001	8	...........
	96	4.85	-6.39765E-001	-2.21761E-004	0.00000E+000	-6.40019E-001	-6.39770E-001	8	...........
	97	4.9	-6.29965E-001	-2.10909E-004	0.00000E+000	-6.30020E-001	-6.29966E-001	8	...........
	98	4.95	-6.19765E-001	-2.00692E-004	0.00000E+000	-6.20022E-001	-6.19963E-001	8	...........
	99	5	-6.10165E-001	-1.90876E-004	0.00000E+000	-6.10023E-001	-6.09759E-001	8	...........
	100	5.05	-5.99965E-001	-1.81109E-004	0.00000E+000	-5.99974E-001	-5.99955E-001	8	...........
	101	5.1	-5.89765E-001	-1.72044E-004	0.00000E+000	-5.89975E-001	-5.89952E-001	8	...........
	102	5.15	-5.79965E-001	-1.63413E-004	0.00000E+000	-5.79977E-001	-5.79948E-001	8	...........
	103	5.2	-5.69765E-001	-1.54498E-004	0.00000E+000	-5.69978E-001	-5.69944E-001	8	...........
	104	5.25	-5.59765E-001	-1.46952E-004	0.00000E+000	-5.59979E-001	-5.59941E-001	8	...........
	105	5.3	-5.49965E-001	-1.39155E-004	0.00000E+000	-5.49981E-001	-5.50137E-001	8	...........
	106	5.35	-5.39965E-001	-1.31793E-004	0.00000E+000	-5.39982E-001	-5.40133E-001	8	...........
	107	5.4	-5.29965E-001	-1.23913E-004	0.00000E+000	-5.29983E-001	-5.29930E-001	8	...........
	108	5.45	-5.19965E-001	-1.16985E-004	0.00000E+000	-5.19984E-001	-5.20126E-001	8	...........
	109	5.5	-5.09965E-001	-1.10507E-004	0.00000E+000	-5.09986E-001	-5.09722E-001	8	...........
	110	5.55	-4.99965E-001	-1.03930E-004	0.00000E+000	-4.99987E-001	-4.99918E-001	8	...........
	111	5.6	-4.90165E-001	-9.76859E-005	0.00000E+000	-4.89988E-001	-4.90115E-001	8	...........
	112	5.65	-4.79965E-001	-9.17593E-005	0.00000E+000	-4.79989E-001	-4.80111E-001	8	...........
	113	5.7	-4.69965E-001	-8.56657E-005	0.00000E+000	-4.69991E-001	-4.70107E-001	8	...........
	114	5.75	-4.59765E-001	-7.99728E-005	0.00000E+000	-4.59992E-001	-4.60104E-001	8	...........
	115	5.8	-4.49965E-001	-7.44469E-005	0.00000E+000	-4.49993E-001	-4.50100E-001	8	...........
	116	5.85	-4.39965E-001	-6.91046E-005	0.00000E+000	-4.39994E-001	-4.40096E-001	8	...........
	117	5.9	-4.29965E-001	-6.33783E-005	0.00000E+000	-4.29996E-001	-4.29893E-001	8	...........
	118	5.95	-4.19965E-001	-5.83866E-005	0.00000E+000	-4.19997E-001	-4.20089E-001	8	...........
	119	6	-4.09965E-001	-5.34283E-005	0.00000E+000	-4.09998E-001	-4.10085E-001	8	...........
	120	6.05	-3.99965E-001	-4.86870E-005	0.00000E+000	-3.99999E-001	-4.00081E-001	8	...........
	121	6.1	-3.90165E-001	-4.40960E-005	0.00000E+000	-3.90001E-001	-3.90078E-001	8	...........
	122	6.15	-3.79965E-001	-3.96218E-005	0.00000E+000	-3.80002E-001	-3.80074E-001	8	...........
	123	6.2	-3.69965E-001	-3.50828E-005	0.00000E+000	-3.70003E-001	-3.70070E-001	7	...........
	124	6.25	-3.59965E-001	-3.07954E-005	0.00000E+000	-3.60005E-001	-3.60067E-001	7	...........
	125	6.3	-3.50165E-001	-2.66350E-005	0.00000E+000	-3.50006E-001	-3.50063E-001	7	...........
	126	6.35	-3.40165E-001	-2.23877E-005	0.00000E+000	-3.40007E-001	-3.40059E-001	7	...........
	127	6.4	-3.29965E-001	-1.82757E-005	0.00000E+000	-3.30008E-001	-3.30256E-001	7	...........
	128	6.45	-3.20165E-001	-1.44076E-005	0.00000E+000	-3.20010E-001	-3.20252E-001	7	...........
	129	6.5	-3.10165E-001	-1.05060E-005	0.00000E+000	-3.10011E-001	-3.10248E-001	7	...........
	130	6.55	-3.00165E-001	-6.77815E-006	0.00000E+000	-3.00012E-001	-3.00245E-001	7	...........
	131	6.6	-2.90165E-001	-2.86490E-006	0.00000E+000	-2.90013E-001	-2.90241E-001	7	...........
	132	6.65	-2.80365E-001	7.00943E-007	0.00000E+000	-2.80015E-001	-2.80037E-001	7	...........
	133	6.7	-2.70165E-001	4.25844E-006	0.00000E+000	-2.70016E-001	-2.70434E-001	7	...........
	134	6.75	-2.60165E-001	8.20508E-006	0.00000E+000	-2.60017E-001	-2.60430E-001	7	...........
	135	6.8	-2.50165E-001	1.13467E-005	0.00000E+000	-2.50018E-001	-2.50226E-001	7	...........
	136	6.85	-2.40165E-001	1.49292E-005	0.00000E+000	-2.40020E-001	-2.40222E-001	7	...........
	137	6.9	-2.30365E-001	1.85368E-005	0.00000E+000	-2.30021E-001	-2.30419E-001	7	...........
	138	6.95	-2.20165E-001	2.17904E-005	0.00000E+000	-2.20022E-001	-2.20215E-001	7	...........
	139	7	-2.10165E-001	2.52309E-005	0.00000E+000	-2.10023E-001	-2.10411E-001	7	...........
	140	7.05	-2.00165E-001	2.84360E-005	0.00000E+000	-1.99975E-001	-2.00208E-001	7	...........
	141	7.1	-1.90165E-001	3.19818E-005	0.00000E+000	-1.89976E-001	-1.90204E-001	7	...........
	142	7.15	-1.80165E-001	3.53589E-005	0.00000E+000	-1.79977E-001	-1.80200E-001	7	...........
	143	7.2	-1.70165E-001	3.86826E-005	0.00000E+000	-1.69979E-001	-1.69996E-001	7	...........
	144	7.25	-1.60365E-001	4.20514E-005	0.00000E+000	-1.59980E-001	-1.60393E-001	7	...........
	145	7.3	-1.50165E-001	4.53416E-005	0.00000E+000	-1.49981E-001	-1.50389E-001	7	...........
	146	7.35	-1.40165E-001	4.86095E-005	0.00000E+000	-1.39982E-001	-1.40185E-001	8	...........
	147	7.4	-1.30365E-001	5.19819E-005	0.00000E+000	-1.29984E-001	-1.30382E-001	8	...........
	148	7.45	-1.20165E-001	5.56380E-005	0.00000E+000	-1.19985E-001	-1.20178E-001	8	...........
	149	7.5	-1.10365E-001	5.87766E-005	0.00000E+000	-1.09986E-001	-1.10374E-001	8	...........
	150	7.55	-1.00165E-001	6.22825E-005	0.00000E+000	-9.99874E-002	-1.00371E-001	8	...........
	151	7.6	-9.03651E-002	6.59553E-005	0.00000E+000	-8.99886E-002	-9.03670E-002	8	...........
	152	7.65	-8.01651E-002	6.91106E-005	0.00000E+000	-7.99899E-002	-8.03633E-002	8	...........
	153	7.7	-7.01651E-002	7.25664E-005	0.00000E+000	-6.99912E-002	-7.03596E-002	8	...........
	154	7.75	-6.03651E-002	7.62893E-005	0.00000E+000	-5.99924E-002	-6.03559E-002	8	...........
	155	7.8	-5.01651E-002	7.95448E-005	0.00000E+000	-4.99937E-002	-5.03522E-002	8	...........
	156	7.85	-4.03651E-002	8.34513E-005	0.00000E+000	-3.99949E-002	-4.03485E-002	8	...........
	157	7.9	-3.01651E-002	8.66400E-005	0.00000E+000	-2.99962E-002	-3.03448E-002	8	...........
	158	7.95	-2.03651E-002	9.04631E-005	0.00000E+000	-1.99975E-002	-2.03411E-002	8	...........
	159	8	-1.03651E-002	9.39690E-005	0.00000E+000	-9.99874E-003	-1.05375E-002	8	...........
	160	8.05	-3.65120E-004	9.74748E-005	0.00000E+000	0.00000E+000	-5.33797E-004	8	...........
	161	8.1	9.63488E-003	1.01281E-004	0.00000E+000	9.99874E-003	9.46990E-003	8	...........
	162	8.15	1.96349E-002	1.05221E-004	0.00000E+000	1.99975E-002	1.94736E-002	8	...........
	163	8.2	2.96349E-002	1.08376E-004	0.00000E+000	2.99962E-002	2.96774E-002	8	...........
	164	8.25	3.96349E-002	1.12450E-004	0.00000E+000	3.99949E-002	3.94810E-002	8	...........
	165	8.3	4.96349E-002	1.16023E-004	0.00000E+000	4.99937E-002	4.94847E-002	8	...........
	166	8.35	5.96349E-002	1.20029E-004	0.00000E+000	5.99924E-002	5.94884E-002	8	...........
	167	8.4	6.96349E-002	1.23569E-004	0.00000E+000	6.99912E-002	6.94921E-002	8	...........
	168	8.45	7.96349E-002	1.27408E-004	0.00000E+000	7.99899E-002	7.94958E-002	8	...........
	169	8.5	8.96349E-002	1.31382E-004	0.00000E+000	8.99886E-002	8.94995E-002	8	...........
	170	8.55	9.96349E-002	1.35188E-004	0.00000E+000	9.99874E-002	9.97033E-002	8	...........
	171	8.6	1.09635E-001	1.39195E-004	0.00000E+000	1.09986E-001	1.09507E-001	8	...........
	172	8.65	1.19635E-001	1.43185E-004	0.00000E+000	1.19985E-001	1.19511E-001	8	...........
	173	8.7	1.29635E-001	1.46791E-004	0.00000E+000	1.29984E-001	1.29514E-001	8	...........
	174	8.75	1.39635E-001	1.51182E-004	0.00000E+000	1.39982E-001	1.39318E-001	8	...........
	175	8.8	1.49635E-001	1.54854E-004	0.00000E+000	1.49981E-001	1.49322E-001	8	...........
	176	8.85	1.59435E-001	1.58811E-004	0.00000E+000	1.59980E-001	1.59325E-001	8	...........
	177	8.9	1.69635E-001	1.62718E-004	0.00000E+000	1.69979E-001	1.69529E-001	8	...........
	178	8.95	1.79635E-001	1.67142E-004	0.00000E+000	1.79977E-001	1.79533E-001	8	...........
	179	9	1.89435E-001	1.70981E-004	0.00000E+000	1.89976E-001	1.89336E-001	8	...........
	180	9.05	1.99435E-001	1.75072E-004	0.00000E+000	1.99975E-001	1.99340E-001	8	...........
	181	9.1	2.09435E-001	1.79028E-004	0.00000E+000	2.10023E-001	2.09544E-001	8	...........
	182	9.15	2.19435E-001	1.83686E-004	0.00000E+000	2.20022E-001	2.19347E-001	8	...........
	183	9.2	2.29635E-001	1.87943E-004	0.00000E+000	2.30021E-001	2.29551E-001	8	...........
	184	9.25	2.39435E-001	1.92267E-004	0.00000E+000	2.40020E-001	2.39355E-001	8	...........
	185	9.3	2.49635E-001	1.96207E-004	0.00000E+000	2.50018E-001	2.49359E-001	8	...........
	186	9.35	2.59835E-001	1.99880E-004	0.00000E+000	2.60017E-001	2.59362E-001	8	...........
	187	9.4	2.69635E-001	2.04755E-004	0.00000E+000	2.70016E-001	2.69366E-001	8	...........
	188	9.45	2.79435E-001	2.08912E-004	0.00000E+000	2.80015E-001	2.79370E-001	8	...........
	189	9.5	2.89635E-001	2.12885E-004	0.00000E+000	2.90013E-001	2.89373E-001	8	...........
	190	9.55	2.99635E-001	2.17526E-004	0.00000E+000	3.00012E-001	2.99177E-001	8	...........
	191	9.6	3.09435E-001	2.21783E-004	0.00000E+000	3.10011E-001	3.09181E-001	8	...........
	192	9.65	3.19435E-001	2.26458E-004	0.00000E+000	3.20010E-001	3.19184E-001	8	...........
	193	9.7	3.29635E-001	2.30565E-004	0.00000E+000	3.30008E-001	3.29188E-001	8	...........
	194	9.75	3.39635E-001	2.35206E-004	0.00000E+000	3.40007E-001	3.39392E-001	8	...........
	195	9.8	3.49435E-001	2.39563E-004	0.00000E+000	3.50006E-001	3.48995E-001	8	...........
	196	9.85	3.59435E-001	2.44271E-004	0.00000E+000	3.60005E-001	3.59399E-001	8	...........
	197	9.9	3.69435E-001	2.48896E-004	0.00000E+000	3.70003E-001	3.69203E-001	8	...........
	198	9.95	3.79435E-001	2.52869E-004	0.00000E+000	3.80002E-001	3.79007E-001	8	...........
	199	10	3.89435E-001	2.57410E-004	0.00000E+000	3.90001E-001	3.89210E-001	8	...........
	200	10.05	3.99635E-001	2.61583E-004	0.00000E+000	3.99999E-001	3.99214E-001	8	...........
	201	10.1	4.09435E-001	2.66375E-004	0.00000E+000	4.09998E-001	4.09418E-001	8	...........
	202	10.15	4.19235E-001	2.70532E-004	0.00000E+000	4.19997E-001	4.19021E-001	8	...........
	203	10.2	4.29435E-001	2.75440E-004	0.00000E+000	4.29996E-001	4.29225E-001	8	...........
	204	10.25	4.39435E-001	2.80332E-004	0.00000E+000	4.39994E-001	4.39029E-001	8	...........
	205	10.3	4.49235E-001	2.84689E-004	0.00000E+000	4.49993E-001	4.49232E-001	8	...........
	206	10.35	4.59235E-001	2.88979E-004	0.00000E+000	4.59992E-001	4.59236E-001	8	...........
	207	10.4	4.69435E-001	2.93921E-004	0.00000E+000	4.69991E-001	4.69040E-001	8	...........
	208	10.45	4.79235E-001	2.98328E-004	0.00000E+000	4.79989E-001	4.78843E-001	8	...........
	209	10.5	4.89235E-001	3.03070E-004	0.00000E+000	4.89988E-001	4.89247E-001	8	...........
	210	10.55	4.99235E-001	3.07794E-004	0.00000E+000	4.99987E-001	4.99051E-001	8	...........
	211	10.6	5.09235E-001	3.11968E-004	0.00000E+000	5.09986E-001	5.09055E-001	8	...........
	212	10.65	5.19435E-001	3.17027E-004	0.00000E+000	5.19984E-001	5.19058E-001	8	...........
	213	10.7	5.29435E-001	3.22135E-004	0.00000E+000	5.29983E-001	5.29062E-001	8	...........
	214	10.75	5.39435E-001	3.26760E-004	0.00000E+000	5.39982E-001	5.39066E-001	8	...........
	215	10.8	5.49235E-001	3.31584E-004	0.00000E+000	5.49981E-001	5.49269E-001	8	...........
	216	10.85	5.59235E-001	3.36209E-004	0.00000E+000	5.59979E-001	5.59073E-001	8	...........
	217	10.9	5.69235E-001	3.40816E-004	0.00000E+000	5.69978E-001	5.69077E-001	8	...........
	218	10.95	5.79235E-001	3.45808E-004	0.00000E+000	5.79977E-001	5.79080E-001	8	...........
	219	11	5.89235E-001	3.50950E-004	0.00000E+000	5.89975E-001	5.89084E-001	8	...........
	220	11.05	5.99235E-001	3.55391E-004	0.00000E+000	5.99974E-001	5.99088E-001	8	...........
	221	11.1	6.09235E-001	3.60650E-004	0.00000E+000	6.10023E-001	6.09092E-001	8	...........
	222	11.15	6.19235E-001	3.64873E-004	0.00000E+000	6.20022E-001	6.19095E-001	8	...........
	223	11.2	6.29235E-001	3.69798E-004	0.00000E+000	6.30020E-001	6.29099E-001	8	...........
	224	11.25	6.39435E-001	3.74540E-004	0.00000E+000	6.40019E-001	6.38903E-001	8	...........
	225	11.3	6.49235E-001	3.80283E-004	0.00000E+000	6.50018E-001	6.49106E-001	8	...........
	226	11.35	6.59235E-001	3.84857E-004	0.00000E+000	6.60017E-001	6.59110E-001	8	...........
	227	11.4	6.69235E-001	3.90132E-004	0.00000E+000	6.70015E-001	6.69114E-001	8	...........
	228	11.45	6.79235E-001	3.94239E-004	0.00000E+000	6.80014E-001	6.78917E-001	8	...........
	229	11.5	6.89235E-001	3.99832E-004	0.00000E+000	6.90013E-001	6.89121E-001	8	...........
	230	11.55	6.99435E-001	4.04841E-004	0.00000E+000	7.00012E-001	6.99125E-001	8	...........
	231	11.6	7.09235E-001	4.09582E-004	0.00000E+000	7.10010E-001	7.08928E-001	8	...........
	232	11.65	7.19435E-001	4.14674E-004	0.00000E+000	7.20009E-001	7.19132E-001	8	...........
	233	11.7	7.29235E-001	4.19866E-004	0.00000E+000	7.30008E-001	7.29136E-001	8	...........
	234	11.75	7.39235E-001	4.25492E-004	0.00000E+000	7.40007E-001	7.38739E-001	8	...........
	235	11.8	7.49235E-001	4.30250E-004	0.00000E+000	7.50005E-001	7.48943E-001	8	...........
	236	11.85	7.59235E-001	4.35225E-004	0.00000E+000	7.60004E-001	7.58947E-001	8	...........
	237	11.9	7.69235E-001	4.40951E-004	0.00000E+000	7.70003E-001	7.69151E-001	8	...........
	238	11.95	7.79035E-001	4.47128E-004	0.00000E+000	7.80001E-001	7.78954E-001	8	...........
	239	12	7.89235E-001	4.52375E-004	0.00000E+000	7.90000E-001	7.88958E-001	9	...........
	240	12.05	7.99035E-001	4.58043E-004	0.00000E+000	7.99999E-001	7.99162E-001	9	...........
CURVE2	TABLE
	Pt	T	Vf	Im	Vu	Sig	Ach	IERange	Over
	#	s	V vs. Ref.	A	V	V	V	#	bits
	241	12.1	7.89435E-001	4.27703E-004	0.00000E+000	7.90000E-001	7.88758E-001	9	...........
	242	12.15	7.79235E-001	4.02031E-004	0.00000E+000	7.80001E-001	7.78954E-001	9	...........
	243	12.2	7.69235E-001	3.79882E-004	0.00000E+000	7.70003E-001	7.68951E-001	8	...........
	244	12.25	7.59235E-001	3.59565E-004	0.00000E+000	7.60004E-001	7.58947E-001	8	...........
	245	12.3	7.49235E-001	3.41518E-004	0.00000E+000	7.50005E-001	7.48943E-001	8	...........
	246	12.35	7.39235E-001	3.23471E-004	0.00000E+000	7.40007E-001	7.38940E-001	8	...........
	247	12.4	7.29235E-001	3.07377E-004	0.00000E+000	7.30008E-001	7.29136E-001	8	...........
	248	12.45	7.19235E-001	2.92101E-004	0.00000E+000	7.20009E-001	7.19132E-001	8	...........
	249	12.5	7.09435E-001	2.78078E-004	0.00000E+000	7.10010E-001	7.09129E-001	8	...........
	250	12.55	6.99235E-001	2.63904E-004	0.00000E+000	7.00012E-001	6.99125E-001	8	...........
	251	12.6	6.89235E-001	2.51233E-004	0.00000E+000	6.90013E-001	6.88921E-001	8	...........
	252	12.65	6.79435E-001	2.38478E-004	0.00000E+000	6.80014E-001	6.79117E-001	8	...........
	253	12.7	6.69435E-001	2.26909E-004	0.00000E+000	6.70015E-001	6.69114E-001	8	...........
	254	12.75	6.59235E-001	2.15406E-004	0.00000E+000	6.60017E-001	6.59110E-001	8	...........
	255	12.8	6.49435E-001	2.04688E-004	0.00000E+000	6.50018E-001	6.49106E-001	8	...........
	256	12.85	6.39435E-001	1.95022E-004	0.00000E+000	6.40019E-001	6.39103E-001	8	...........
	257	12.9	6.29435E-001	1.84805E-004	0.00000E+000	6.30020E-001	6.29099E-001	8	...........
	258	12.95	6.19435E-001	1.75739E-004	0.00000E+000	6.20022E-001	6.19095E-001	8	...........
	259	13	6.09435E-001	1.66607E-004	0.00000E+000	6.10023E-001	6.09092E-001	8	...........
	260	13.05	5.99435E-001	1.57859E-004	0.00000E+000	6.00024E-001	5.99088E-001	8	...........
	261	13.1	5.89235E-001	1.49362E-004	0.00000E+000	5.89975E-001	5.89084E-001	8	...........
	262	13.15	5.79235E-001	1.42133E-004	0.00000E+000	5.79977E-001	5.79080E-001	8	...........
	263	13.2	5.69435E-001	1.34253E-004	0.00000E+000	5.69978E-001	5.69077E-001	8	...........
	264	13.25	5.59235E-001	1.26874E-004	0.00000E+000	5.59979E-001	5.58873E-001	8	...........
	265	13.3	5.49235E-001	1.20180E-004	0.00000E+000	5.49981E-001	5.49269E-001	8	...........
	266	13.35	5.39035E-001	1.13201E-004	0.00000E+000	5.39982E-001	5.39266E-001	8	...........
	267	13.4	5.29235E-001	1.06306E-004	0.00000E+000	5.29983E-001	5.29062E-001	8	...........
	268	13.45	5.19235E-001	1.00363E-004	0.00000E+000	5.19984E-001	5.19258E-001	8	...........
	269	13.5	5.09435E-001	9.37019E-005	0.00000E+000	5.09986E-001	5.09055E-001	8	...........
	270	13.55	4.99235E-001	8.78754E-005	0.00000E+000	4.99987E-001	4.99251E-001	8	...........
	271	13.6	4.89435E-001	8.21158E-005	0.00000E+000	4.89988E-001	4.89047E-001	8	...........
	272	13.65	4.79435E-001	7.69237E-005	0.00000E+000	4.79989E-001	4.79244E-001	8	...........
	273	13.7	4.69235E-001	7.12475E-005	0.00000E+000	4.69991E-001	4.69040E-001	8	...........
	274	13.75	4.59235E-001	6.60889E-005	0.00000E+000	4.59992E-001	4.59236E-001	8	...........
	275	13.8	4.49435E-001	6.08467E-005	0.00000E+000	4.49993E-001	4.49032E-001	8	...........
	276	13.85	4.39435E-001	5.59886E-005	0.00000E+000	4.39994E-001	4.39229E-001	8	...........
	277	13.9	4.29235E-001	5.07798E-005	0.00000E+000	4.29996E-001	4.29025E-001	8	...........
	278	13.95	4.19435E-001	4.66229E-005	0.00000E+000	4.19997E-001	4.19221E-001	8	...........
	279	14	4.09435E-001	4.21320E-005	0.00000E+000	4.09998E-001	4.09218E-001	8	...........
	280	14.05	3.99435E-001	3.75577E-005	0.00000E+000	3.99999E-001	3.99214E-001	8	...........
	281	14.1	3.89435E-001	3.30558E-005	0.00000E+000	3.90001E-001	3.89210E-001	7	...........
	282	14.15	3.79435E-001	2.91509E-005	0.00000E+000	3.80002E-001	3.79207E-001	7	...........
	283	14.2	3.69435E-001	2.47266E-005	0.00000E+000	3.70003E-001	3.69003E-001	7	...........
	284	14.25	3.59435E-001	2.08367E-005	0.00000E+000	3.60005E-001	3.59199E-001	7	...........
	285	14.3	3.49435E-001	1.68817E-005	0.00000E+000	3.50006E-001	3.49396E-001	7	...........
	286	14.35	3.39435E-001	1.30787E-005	0.00000E+000	3.40007E-001	3.39392E-001	7	...........
	287	14.4	3.29435E-001	9.51117E-006	0.00000E+000	3.30008E-001	3.29188E-001	7	...........
	288	14.45	3.19635E-001	5.46765E-006	0.00000E+000	3.20010E-001	3.19384E-001	7	...........
	289	14.5	3.09435E-001	1.95525E-006	0.00000E+000	3.10011E-001	3.09381E-001	7	...........
	290	14.55	2.99635E-001	-1.84275E-006	0.00000E+000	3.00012E-001	2.99377E-001	7	...........
	291	14.6	2.89635E-001	-5.07623E-006	0.00000E+000	2.90013E-001	2.89373E-001	7	...........
	292	14.65	2.79635E-001	-8.75731E-006	0.00000E+000	2.80015E-001	2.79370E-001	7	...........
	293	14.7	2.69635E-001	-1.20994E-005	0.00000E+000	2.70016E-001	2.69366E-001	7	...........
	294	14.75	2.59635E-001	-1.56318E-005	0.00000E+000	2.60017E-001	2.59362E-001	7	...........
	295	14.8	2.49435E-001	-1.89772E-005	0.00000E+000	2.50018E-001	2.49359E-001	7	...........
	296	14.85	2.39635E-001	-2.21839E-005	0.00000E+000	2.40020E-001	2.39355E-001	7	...........
	297	14.9	2.29635E-001	-2.56729E-005	0.00000E+000	2.30021E-001	2.29351E-001	7	...........
	298	14.95	2.19635E-001	-2.91636E-005	0.00000E+000	2.20022E-001	2.19347E-001	7	...........
	299	15	2.09635E-001	-3.23771E-005	0.00000E+000	2.10023E-001	2.09344E-001	7	...........
	300	15.05	1.99435E-001	-3.54936E-005	0.00000E+000	2.00025E-001	1.99540E-001	7	...........
	301	15.1	1.89635E-001	-3.89626E-005	0.00000E+000	1.90026E-001	1.89336E-001	7	...........
	302	15.15	1.79635E-001	-4.21593E-005	0.00000E+000	1.79977E-001	1.79533E-001	7	...........
	303	15.2	1.69635E-001	-4.54362E-005	0.00000E+000	1.69979E-001	1.69529E-001	7	...........
	304	15.25	1.59435E-001	-4.89708E-005	0.00000E+000	1.59980E-001	1.59525E-001	8	...........
	305	15.3	1.49435E-001	-5.18757E-005	0.00000E+000	1.49981E-001	1.49322E-001	8	...........
	306	15.35	1.39635E-001	-5.52480E-005	0.00000E+000	1.39982E-001	1.39318E-001	8	...........
	307	15.4	1.29435E-001	-5.87372E-005	0.00000E+000	1.29984E-001	1.29714E-001	8	...........
	308	15.45	1.19635E-001	-6.19426E-005	0.00000E+000	1.19985E-001	1.19511E-001	8	...........
	309	15.5	1.09635E-001	-6.49643E-005	0.00000E+000	1.09986E-001	1.09507E-001	8	...........
	310	15.55	9.96349E-002	-6.86705E-005	0.00000E+000	9.99874E-002	9.95032E-002	8	...........
	311	15.6	8.96349E-002	-7.17257E-005	0.00000E+000	8.99886E-002	8.94995E-002	8	...........
	312	15.65	7.96349E-002	-7.50980E-005	0.00000E+000	7.99899E-002	7.94958E-002	8	...........
	313	15.7	6.94349E-002	-7.84369E-005	0.00000E+000	6.99912E-002	6.94921E-002	8	...........
	314	15.75	5.96349E-002	-8.17926E-005	0.00000E+000	5.99924E-002	5.96885E-002	8	...........
	315	15.8	4.94349E-002	-8.51983E-005	0.00000E+000	4.99937E-002	4.92846E-002	8	...........
	316	15.85	3.96349E-002	-8.85873E-005	0.00000E+000	3.99949E-002	3.94810E-002	8	...........
	317	15.9	2.98349E-002	-9.26274E-005	0.00000E+000	2.99962E-002	2.94773E-002	8	...........
	318	15.95	1.96349E-002	-9.56157E-005	0.00000E+000	1.99975E-002	1.94736E-002	8	...........
	319	16	9.83488E-003	-9.94722E-005	0.00000E+000	9.99874E-003	9.66997E-003	8	...........
	320	16.05	-1.65120E-004	-1.02978E-004	0.00000E+000	0.00000E+000	-3.33723E-004	8	...........
	321	16.1	-1.03651E-002	-1.06050E-004	0.00000E+000	-9.99874E-003	-1.05375E-002	8	...........
	322	16.15	-2.03651E-002	-1.09923E-004	0.00000E+000	-1.99975E-002	-2.05412E-002	8	...........
	323	16.2	-3.01651E-002	-1.13429E-004	0.00000E+000	-2.99962E-002	-3.03448E-002	8	...........
	324	16.25	-4.01651E-002	-1.17352E-004	0.00000E+000	-3.99949E-002	-4.03485E-002	8	...........
	325	16.3	-5.01651E-002	-1.20875E-004	0.00000E+000	-4.99937E-002	-5.03522E-002	8	...........
	326	16.35	-6.03651E-002	-1.24431E-004	0.00000E+000	-5.99924E-002	-6.03559E-002	8	...........
	327	16.4	-7.03651E-002	-1.28037E-004	0.00000E+000	-6.99912E-002	-7.01595E-002	8	...........
	328	16.45	-8.01651E-002	-1.31826E-004	0.00000E+000	-7.99899E-002	-8.03633E-002	8	...........
	329	16.5	-9.01651E-002	-1.35349E-004	0.00000E+000	-8.99886E-002	-9.01669E-002	8	...........
	330	16.55	-1.00165E-001	-1.39489E-004	0.00000E+000	-9.99874E-002	-1.00571E-001	8	...........
	331	16.6	-1.10365E-001	-1.43296E-004	0.00000E+000	-1.09986E-001	-1.10574E-001	8	...........
	332	16.65	-1.20365E-001	-1.47169E-004	0.00000E+000	-1.19985E-001	-1.20178E-001	8	...........
	333	16.7	-1.30165E-001	-1.51025E-004	0.00000E+000	-1.29984E-001	-1.30382E-001	8	...........
	334	16.75	-1.40165E-001	-1.54481E-004	0.00000E+000	-1.39982E-001	-1.40185E-001	8	...........
	335	16.8	-1.50165E-001	-1.58672E-004	0.00000E+000	-1.49981E-001	-1.50189E-001	8	...........
	336	16.85	-1.60165E-001	-1.63012E-004	0.00000E+000	-1.59980E-001	-1.60193E-001	8	...........
	337	16.9	-1.70165E-001	-1.66602E-004	0.00000E+000	-1.69979E-001	-1.70397E-001	8	...........
	338	16.95	-1.80365E-001	-1.70825E-004	0.00000E+000	-1.79977E-001	-1.80200E-001	8	...........
	339	17	-1.90165E-001	-1.74465E-004	0.00000E+000	-1.89976E-001	-1.90404E-001	8	...........
	340	17.05	-2.00165E-001	-1.78355E-004	0.00000E+000	-1.99975E-001	-2.00208E-001	8	...........
	341	17.1	-2.10165E-001	-1.82962E-004	0.00000E+000	-2.09973E-001	-2.10211E-001	8	...........
	342	17.15	-2.20165E-001	-1.87119E-004	0.00000E+000	-2.20022E-001	-2.20415E-001	8	...........
	343	17.2	-2.30165E-001	-1.91343E-004	0.00000E+000	-2.30021E-001	-2.30219E-001	8	...........
	344	17.25	-2.40165E-001	-1.94899E-004	0.00000E+000	-2.40020E-001	-2.40222E-001	8	...........
	345	17.3	-2.50165E-001	-1.99690E-004	0.00000E+000	-2.50018E-001	-2.50026E-001	8	...........
	346	17.35	-2.60365E-001	-2.04198E-004	0.00000E+000	-2.60017E-001	-2.60430E-001	8	...........
	347	17.4	-2.70165E-001	-2.08138E-004	0.00000E+000	-2.70016E-001	-2.70233E-001	8	...........
	348	17.45	-2.80165E-001	-2.12111E-004	0.00000E+000	-2.80015E-001	-2.80237E-001	8	...........
	349	17.5	-2.90165E-001	-2.16635E-004	0.00000E+000	-2.90013E-001	-2.90241E-001	8	...........
	350	17.55	-3.00165E-001	-2.20909E-004	0.00000E+000	-3.00012E-001	-3.00045E-001	8	...........
	351	17.6	-3.10165E-001	-2.25283E-004	0.00000E+000	-3.10011E-001	-3.10248E-001	8	...........
	352	17.65	-3.20165E-001	-2.29457E-004	0.00000E+000	-3.20010E-001	-3.20252E-001	8	...........
	353	17.7	-3.29965E-001	-2.33998E-004	0.00000E+000	-3.30008E-001	-3.30256E-001	8	...........
	354	17.75	-3.40165E-001	-2.38422E-004	0.00000E+000	-3.40007E-001	-3.40259E-001	8	...........
	355	17.8	-3.49965E-001	-2.43130E-004	0.00000E+000	-3.50006E-001	-3.50063E-001	8	...........
	356	17.85	-3.59965E-001	-2.47387E-004	0.00000E+000	-3.60005E-001	-3.59867E-001	8	...........
	357	17.9	-3.69965E-001	-2.51761E-004	0.00000E+000	-3.70003E-001	-3.70070E-001	8	...........
	358	17.95	-3.79965E-001	-2.56653E-004	0.00000E+000	-3.80002E-001	-3.80274E-001	8	...........
	359	18	-3.89965E-001	-2.60876E-004	0.00000E+000	-3.90001E-001	-3.90078E-001	8	...........
	360	18.05	-3.99965E-001	-2.65935E-004	0.00000E+000	-3.99999E-001	-3.99881E-001	8	...........
	361	18.1	-4.09765E-001	-2.70492E-004	0.00000E+000	-4.09998E-001	-4.10085E-001	8	...........
	362	18.15	-4.20165E-001	-2.74750E-004	0.00000E+000	-4.19997E-001	-4.20089E-001	8	...........
	363	18.2	-4.30165E-001	-2.79825E-004	0.00000E+000	-4.29996E-001	-4.30093E-001	8	...........
	364	18.25	-4.40165E-001	-2.84483E-004	0.00000E+000	-4.39994E-001	-4.40096E-001	8	...........
	365	18.3	-4.49965E-001	-2.89558E-004	0.00000E+000	-4.49993E-001	-4.50100E-001	8	...........
	366	18.35	-4.59965E-001	-2.93948E-004	0.00000E+000	-4.59992E-001	-4.60104E-001	8	...........
	367	18.4	-4.69965E-001	-2.98873E-004	0.00000E+000	-4.69991E-001	-4.70107E-001	8	...........
	368	18.45	-4.79965E-001	-3.04249E-004	0.00000E+000	-4.79989E-001	-4.80111E-001	8	...........
	369	18.5	-4.89965E-001	-3.09040E-004	0.00000E+000	-4.89988E-001	-4.89915E-001	8	...........
	370	18.55	-4.99965E-001	-3.13932E-004	0.00000E+000	-4.99987E-001	-5.00118E-001	8	...........
	371	18.6	-5.10165E-001	-3.19174E-004	0.00000E+000	-5.09986E-001	-5.09922E-001	8	...........
	372	18.65	-5.19765E-001	-3.24316E-004	0.00000E+000	-5.19984E-001	-5.19926E-001	8	...........
	373	18.7	-5.29965E-001	-3.29475E-004	0.00000E+000	-5.29983E-001	-5.29930E-001	8	...........
	374	18.75	-5.39565E-001	-3.34867E-004	0.00000E+000	-5.39982E-001	-5.40133E-001	8	...........
	375	18.8	-5.49965E-001	-3.40076E-004	0.00000E+000	-5.49981E-001	-5.50137E-001	8	...........
	376	18.85	-5.59765E-001	-3.45902E-004	0.00000E+000	-5.59979E-001	-5.59941E-001	8	...........
	377	18.9	-5.69765E-001	-3.51044E-004	0.00000E+000	-5.69978E-001	-5.69944E-001	8	...........
	378	18.95	-5.79765E-001	-3.56303E-004	0.00000E+000	-5.79977E-001	-5.79948E-001	8	...........
	379	19	-5.89765E-001	-3.62630E-004	0.00000E+000	-5.89975E-001	-5.89952E-001	8	...........
	380	19.05	-5.99965E-001	-3.68490E-004	0.00000E+000	-5.99974E-001	-5.99955E-001	8	...........
	381	19.1	-6.09965E-001	-3.74634E-004	0.00000E+000	-6.09973E-001	-6.09959E-001	8	...........
	382	19.15	-6.19965E-001	-3.80677E-004	0.00000E+000	-6.20022E-001	-6.19963E-001	8	...........
	383	19.2	-6.29965E-001	-3.86170E-004	0.00000E+000	-6.30020E-001	-6.29766E-001	8	...........
	384	19.25	-6.39965E-001	-3.91929E-004	0.00000E+000	-6.40019E-001	-6.39770E-001	8	...........
	385	19.3	-6.49765E-001	-3.98607E-004	0.00000E+000	-6.50018E-001	-6.49774E-001	8	...........
	386	19.35	-6.59965E-001	-4.04684E-004	0.00000E+000	-6.60017E-001	-6.59978E-001	8	...........
	387	19.4	-6.69965E-001	-4.11095E-004	0.00000E+000	-6.70015E-001	-6.69981E-001	8	...........
	388	19.45	-6.79965E-001	-4.17990E-004	0.00000E+000	-6.80014E-001	-6.79985E-001	8	...........
	389	19.5	-6.89765E-001	-4.24484E-004	0.00000E+000	-6.90013E-001	-6.89989E-001	8	...........
	390	19.55	-6.99765E-001	-4.31446E-004	0.00000E+000	-7.00012E-001	-6.99792E-001	8	...........
	391	19.6	-7.09965E-001	-4.38224E-004	0.00000E+000	-7.10010E-001	-7.09796E-001	8	...........
	392	19.65	-7.19965E-001	-4.46337E-004	0.00000E+000	-7.20009E-001	-7.20000E-001	8	...........
	393	19.7	-7.29965E-001	-4.53982E-004	0.00000E+000	-7.30008E-001	-7.29803E-001	9	...........
	394	19.75	-7.39765E-001	-4.61650E-004	0.00000E+000	-7.40007E-001	-7.40007E-001	9	...........
	395	19.8	-7.49765E-001	-4.69985E-004	0.00000E+000	-7.50005E-001	-7.49811E-001	9	...........
	396	19.85	-7.59565E-001	-4.77987E-004	0.00000E+000	-7.60004E-001	-7.59814E-001	9	...........
	397	19.9	-7.69765E-001	-4.86656E-004	0.00000E+000	-7.70003E-001	-7.69818E-001	9	...........
	398	19.95	-7.79765E-001	-4.95157E-004	0.00000E+000	-7.80001E-001	-7.80022E-001	9	...........
	399	20	-7.89765E-001	-5.04326E-004	0.00000E+000	-7.90000E-001	-7.90026E-001	9	...........
	400	20.05	-7.99765E-001	-5.14328E-004	0.00000E+000	-7.99999E-001	-7.99829E-001	9	...........
	401	20.1	-7.89565E-001	-4.75653E-004	0.00000E+000	-7.90000E-001	-7.89825E-001	9	...........
	402	20.15	-7.79965E-001	-4.45147E-004	0.00000E+000	-7.80001E-001	-7.80022E-001	9	...........
	403	20.2	-7.69765E-001	-4.19308E-004	0.00000E+000	-7.70003E-001	-7.69818E-001	9	...........
	404	20.25	-7.59765E-001	-3.95136E-004	0.00000E+000	-7.60004E-001	-7.59814E-001	9	...........
	405	20.3	-7.49765E-001	-3.73682E-004	0.00000E+000	-7.50005E-001	-7.50011E-001	8	...........
	406	20.35	-7.39765E-001	-3.53982E-004	0.00000E+000	-7.40007E-001	-7.39807E-001	8	...........
	407	20.4	-7.29765E-001	-3.36153E-004	0.00000E+000	-7.30008E-001	-7.30003E-001	8	...........
	408	20.45	-7.19965E-001	-3.18373E-004	0.00000E+000	-7.20009E-001	-7.19800E-001	8	...........
	409	20.5	-7.09765E-001	-3.02379E-004	0.00000E+000	-7.10010E-001	-7.09796E-001	8	...........
	410	20.55	-6.99765E-001	-2.87538E-004	0.00000E+000	-7.00012E-001	-6.99792E-001	8	...........
	411	20.6	-6.89965E-001	-2.73280E-004	0.00000E+000	-6.90013E-001	-6.90189E-001	8	...........
	412	20.65	-6.79965E-001	-2.59992E-004	0.00000E+000	-6.80014E-001	-6.79985E-001	8	...........
	413	20.7	-6.69765E-001	-2.46703E-004	0.00000E+000	-6.70015E-001	-6.69781E-001	8	...........
	414	20.75	-6.59765E-001	-2.34015E-004	0.00000E+000	-6.60017E-001	-6.59777E-001	8	...........
	415	20.8	-6.49965E-001	-2.22712E-004	0.00000E+000	-6.50018E-001	-6.49974E-001	8	...........
	416	20.85	-6.39965E-001	-2.11994E-004	0.00000E+000	-6.40019E-001	-6.39770E-001	8	...........
	417	20.9	-6.29765E-001	-2.01894E-004	0.00000E+000	-6.30020E-001	-6.29766E-001	8	...........
	418	20.95	-6.20165E-001	-1.91426E-004	0.00000E+000	-6.20022E-001	-6.19963E-001	8	...........
	419	21	-6.09765E-001	-1.81410E-004	0.00000E+000	-6.09973E-001	-6.09959E-001	8	...........
	420	21.05	-5.99965E-001	-1.72228E-004	0.00000E+000	-5.99974E-001	-5.99755E-001	8	...........
	421	21.1	-5.89765E-001	-1.63446E-004	0.00000E+000	-5.89975E-001	-5.89752E-001	8	...........
	422	21.15	-5.79965E-001	-1.54832E-004	0.00000E+000	-5.79977E-001	-5.79948E-001	8	...........
	423	21.2	-5.69765E-001	-1.46501E-004	0.00000E+000	-5.69978E-001	-5.69944E-001	8	...........
	424	21.25	-5.59965E-001	-1.38621E-004	0.00000E+000	-5.59979E-001	-5.59941E-001	8	...........
	425	21.3	-5.49965E-001	-1.31109E-004	0.00000E+000	-5.49981E-001	-5.50137E-001	8	...........
	426	21.35	-5.39965E-001	-1.23846E-004	0.00000E+000	-5.39982E-001	-5.39933E-001	8	...........
	427	21.4	-5.29965E-001	-1.16384E-004	0.00000E+000	-5.29983E-001	-5.29930E-001	8	...........
	428	21.45	-5.19965E-001	-1.09973E-004	0.00000E+000	-5.19984E-001	-5.20126E-001	8	...........
	429	21.5	-5.09965E-001	-1.02961E-004	0.00000E+000	-5.09986E-001	-5.09922E-001	8	...........
	430	21.55	-4.99965E-001	-9.67343E-005	0.00000E+000	-4.99987E-001	-4.99918E-001	8	...........
	431	21.6	-4.89965E-001	-9.04237E-005	0.00000E+000	-4.89988E-001	-4.90115E-001	8	...........
	432	21.65	-4.79765E-001	-8.44136E-005	0.00000E+000	-4.79989E-001	-4.80111E-001	8	...........
	433	21.7	-4.69965E-001	-7.92550E-005	0.00000E+000	-4.69991E-001	-4.70107E-001	8	...........
	434	21.75	-4.59765E-001	-7.35955E-005	0.00000E+000	-4.59992E-001	-4.60104E-001	8	...........
	435	21.8	-4.49965E-001	-6.75854E-005	0.00000E+000	-4.49993E-001	-4.50100E-001	8	...........
	436	21.85	-4.39965E-001	-6.28942E-005	0.00000E+000	-4.39994E-001	-4.40096E-001	8	...........
	437	21.9	-4.29965E-001	-5.73683E-005	0.00000E+000	-4.29996E-001	-4.30093E-001	8	...........
	438	21.95	-4.19965E-001	-5.27438E-005	0.00000E+000	-4.19997E-001	-4.20089E-001	8	...........
	439	22	-4.09965E-001	-4.79858E-005	0.00000E+000	-4.09998E-001	-4.09885E-001	8	...........
	440	22.05	-4.00165E-001	-4.30943E-005	0.00000E+000	-3.99999E-001	-4.00081E-001	8	...........
	441	22.1	-3.89765E-001	-3.80525E-005	0.00000E+000	-3.90001E-001	-3.90078E-001	8	...........
	442	22.15	-3.79965E-001	-3.39571E-005	0.00000E+000	-3.80002E-001	-3.80074E-001	7	...........
	443	22.2	-3.70165E-001	-2.95160E-005	0.00000E+000	-3.70003E-001	-3.70070E-001	7	...........
	444	22.25	-3.60365E-001	-2.54124E-005	0.00000E+000	-3.60005E-001	-3.60267E-001	7	...........
	445	22.3	-3.49965E-001	-2.12252E-005	0.00000E+000	-3.50006E-001	-3.50263E-001	7	...........
	446	22.35	-3.40165E-001	-1.73354E-005	0.00000E+000	-3.40007E-001	-3.40259E-001	7	...........
	447	22.4	-3.29965E-001	-1.33303E-005	0.00000E+000	-3.30008E-001	-3.30056E-001	7	...........
	448	22.45	-3.19965E-001	-9.45879E-006	0.00000E+000	-3.20010E-001	-3.20052E-001	7	...........
	449	22.5	-3.10365E-001	-5.60902E-006	0.00000E+000	-3.10011E-001	-3.10248E-001	7	...........
	450	22.55	-2.99965E-001	-1.84275E-006	0.00000E+000	-3.00012E-001	-3.00245E-001	7	...........
	451	22.6	-2.90165E-001	1.71809E-006	0.00000E+000	-2.90013E-001	-2.90041E-001	7	...........
	452	22.65	-2.80165E-001	5.21378E-006	0.00000E+000	-2.80015E-001	-2.80237E-001	7	...........
	453	22.7	-2.70165E-001	8.77796E-006	0.00000E+000	-2.70016E-001	-2.70233E-001	7	...........
	454	22.75	-2.60165E-001	1.24841E-005	0.00000E+000	-2.60017E-001	-2.60230E-001	7	...........
	455	22.8	-2.50165E-001	1.59297E-005	0.00000E+000	-2.50018E-001	-2.50426E-001	7	...........
	456	22.85	-2.40165E-001	1.95690E-005	0.00000E+000	-2.40020E-001	-2.40222E-001	7	...........
	457	22.9	-2.30165E-001	2.26338E-005	0.00000E+000	-2.30021E-001	-2.30219E-001	7	...........
	458	22.95	-2.20165E-001	2.62581E-005	0.00000E+000	-2.20022E-001	-2.20215E-001	7	...........
	459	23	-2.10165E-001	2.94715E-005	0.00000E+000	-2.09973E-001	-2.10411E-001	7	...........
	460	23.05	-2.00365E-001	3.30524E-005	0.00000E+000	-1.99975E-001	-2.00008E-001	7	...........
	461	23.1	-1.90165E-001	3.63160E-005	0.00000E+000	-1.89976E-001	-1.90204E-001	7	...........
	462	23.15	-1.80165E-001	3.98634E-005	0.00000E+000	-1.79977E-001	-1.80200E-001	7	...........
	463	23.2	-1.70165E-001	4.30468E-005	0.00000E+000	-1.69979E-001	-1.70197E-001	7	...........
	464	23.25	-1.60165E-001	4.63337E-005	0.00000E+000	-1.59980E-001	-1.60193E-001	7	...........
	465	23.3	-1.50165E-001	4.98783E-005	0.00000E+000	-1.49981E-001	-1.50389E-001	8	...........
	466	23.35	-1.40165E-001	5.28166E-005	0.00000E+000	-1.39982E-001	-1.40385E-001	8	...........
	467	23.4	-1.30365E-001	5.65729E-005	0.00000E+000	-1.29984E-001	-1.30382E-001	8	...........
	468	23.45	-1.20165E-001	6.02624E-005	0.00000E+000	-1.19985E-001	-1.20578E-001	8	...........
	469	23.5	-1.10165E-001	6.30003E-005	0.00000E+000	-1.09986E-001	-1.10374E-001	8	...........
	470	23.55	-1.00165E-001	6.68234E-005	0.00000E+000	-9.99874E-002	-1.00371E-001	8	...........
	471	23.6	-9.03651E-002	7.01457E-005	0.00000E+000	-8.99886E-002	-9.01669E-002	8	...........
	472	23.65	-8.01651E-002	7.37684E-005	0.00000E+000	-7.99899E-002	-8.03633E-002	8	...........
	473	23.7	-7.03651E-002	7.71407E-005	0.00000E+000	-6.99912E-002	-7.03596E-002	8	...........
	474	23.75	-6.01651E-002	8.06800E-005	0.00000E+000	-5.99924E-002	-6.03559E-002	8	...........
	475	23.8	-5.03651E-002	8.43695E-005	0.00000E+000	-4.99937E-002	-5.05523E-002	8	...........
	476	23.85	-4.03651E-002	8.80924E-005	0.00000E+000	-3.99949E-002	-4.05486E-002	8	...........
	477	23.9	-3.03651E-002	9.12477E-005	0.00000E+000	-2.99962E-002	-3.05449E-002	8	...........
	478	23.95	-2.03651E-002	9.51543E-005	0.00000E+000	-1.99975E-002	-2.03411E-002	8	...........
	479	24	-1.01651E-002	9.86602E-005	0.00000E+000	-9.99874E-003	-1.03374E-002	8	...........
	480	24.05	-3.65120E-004	1.02600E-004	0.00000E+000	0.00000E+000	-3.33723E-004	8	...........
	481	24.1	9.63488E-003	1.05755E-004	0.00000E+000	9.99874E-003	9.46990E-003	8	...........
	482	24.15	1.96349E-002	1.09679E-004	0.00000E+000	1.99975E-002	1.94736E-002	8	...........
	483	24.2	2.96349E-002	1.13852E-004	0.00000E+000	2.99962E-002	2.96774E-002	8	...........
	484	24.25	3.98349E-002	1.17408E-004	0.00000E+000	3.99949E-002	3.94810E-002	8	...........
	485	24.3	4.96349E-002	1.21165E-004	0.00000E+000	4.99937E-002	4.94847E-002	8	...........
	486	24.35	5.98349E-002	1.24871E-004	0.00000E+000	5.99924E-002	5.94884E-002	8	...........
	487	24.4	6.96349E-002	1.29011E-004	0.00000E+000	6.99912E-002	6.94921E-002	8	...........
	488	24.45	7.96349E-002	1.33018E-004	0.00000E+000	7.99899E-002	7.94958E-002	8	...........
	489	24.5	8.96349E-002	1.36440E-004	0.00000E+000	8.99886E-002	8.92994E-002	8	...........
	490	24.55	9.96349E-002	1.40447E-004	0.00000E+000	9.99874E-002	9.95032E-002	8	...........
	491	24.6	1.09635E-001	1.44287E-004	0.00000E+000	1.09986E-001	1.09507E-001	8	...........
	492	24.65	1.19635E-001	1.48160E-004	0.00000E+000	1.19985E-001	1.19310E-001	8	...........
	493	24.7	1.29635E-001	1.52200E-004	0.00000E+000	1.29984E-001	1.29314E-001	8	...........
	494	24.75	1.39635E-001	1.56374E-004	0.00000E+000	1.39982E-001	1.39518E-001	8	...........
	495	24.8	1.49635E-001	1.60247E-004	0.00000E+000	1.49981E-001	1.49122E-001	8	...........
	496	24.85	1.59635E-001	1.64671E-004	0.00000E+000	1.59980E-001	1.59325E-001	8	...........
	497	24.9	1.69635E-001	1.68928E-004	0.00000E+000	1.69979E-001	1.69529E-001	8	...........
	498	24.95	1.79435E-001	1.72584E-004	0.00000E+000	1.79977E-001	1.79333E-001	8	...........
	499	25	1.89635E-001	1.76741E-004	0.00000E+000	1.90026E-001	1.89536E-001	8	...........
	500	25.05	1.99635E-001	1.81132E-004	0.00000E+000	2.00025E-001	1.99340E-001	8	...........
	501	25.1	2.09635E-001	1.85205E-004	0.00000E+000	2.10023E-001	2.09544E-001	8	...........
	502	25.15	2.19435E-001	1.89212E-004	0.00000E+000	2.20022E-001	2.19347E-001	8	...........
	503	25.2	2.29635E-001	1.93269E-004	0.00000E+000	2.30021E-001	2.29151E-001	8	...........
	504	25.25	2.39435E-001	1.97342E-004	0.00000E+000	2.40020E-001	2.39355E-001	8	...........
	505	25.3	2.49635E-001	2.01716E-004	0.00000E+000	2.50018E-001	2.49359E-001	8	...........
	506	25.35	2.59435E-001	2.06558E-004	0.00000E+000	2.60017E-001	2.59562E-001	8	...........
	507	25.4	2.69435E-001	2.10565E-004	0.00000E+000	2.70016E-001	2.69366E-001	8	...........
	508	25.45	2.79435E-001	2.14822E-004	0.00000E+000	2.80015E-001	2.79170E-001	8	...........
	509	25.5	2.89635E-001	2.19112E-004	0.00000E+000	2.90013E-001	2.89173E-001	8	...........
	510	25.55	2.99435E-001	2.23386E-004	0.00000E+000	3.00012E-001	2.99177E-001	8	...........
	511	25.6	3.09435E-001	2.27877E-004	0.00000E+000	3.10011E-001	3.09381E-001	8	...........
	512	25.65	3.19635E-001	2.32001E-004	0.00000E+000	3.20010E-001	3.19384E-001	8	...........
	513	25.7	3.29435E-001	2.36475E-004	0.00000E+000	3.30008E-001	3.29388E-001	8	...........
	514	25.75	3.39435E-001	2.41350E-004	0.00000E+000	3.40007E-001	3.39192E-001	8	...........
	515	25.8	3.49635E-001	2.45440E-004	0.00000E+000	3.50006E-001	3.49195E-001	8	...........
	516	25.85	3.59435E-001	2.49847E-004	0.00000E+000	3.60005E-001	3.59199E-001	8	...........
	517	25.9	3.69435E-001	2.54305E-004	0.00000E+000	3.70003E-001	3.69203E-001	8	...........
	518	25.95	3.79435E-001	2.58745E-004	0.00000E+000	3.80002E-001	3.79407E-001	8	...........
	519	26	3.89435E-001	2.63220E-004	0.00000E+000	3.90001E-001	3.89210E-001	8	...........
	520	26.05	3.99435E-001	2.67777E-004	0.00000E+000	3.99999E-001	3.99214E-001	8	...........
	521	26.1	4.09435E-001	2.72318E-004	0.00000E+000	4.09998E-001	4.09218E-001	8	...........
	522	26.15	4.19435E-001	2.76909E-004	0.00000E+000	4.19997E-001	4.19221E-001	8	...........
	523	26.2	4.29435E-001	2.81417E-004	0.00000E+000	4.29996E-001	4.29225E-001	8	...........
	524	26.25	4.39435E-001	2.85407E-004	0.00000E+000	4.39994E-001	4.39229E-001	8	...........
	525	26.3	4.49435E-001	2.90866E-004	0.00000E+000	4.49993E-001	4.49433E-001	8	...........
	526	26.35	4.59435E-001	2.95340E-004	0.00000E+000	4.59992E-001	4.59036E-001	8	...........
	527	26.4	4.69435E-001	2.99764E-004	0.00000E+000	4.69991E-001	4.69240E-001	8	...........
	528	26.45	4.79235E-001	3.04205E-004	0.00000E+000	4.79989E-001	4.79043E-001	8	...........
	529	26.5	4.89235E-001	3.08913E-004	0.00000E+000	4.89988E-001	4.89247E-001	8	...........
	530	26.55	4.99235E-001	3.13287E-004	0.00000E+000	4.99987E-001	4.99051E-001	8	...........
	531	26.6	5.09235E-001	3.18178E-004	0.00000E+000	5.09986E-001	5.09055E-001	8	...........
	532	26.65	5.19435E-001	3.23003E-004	0.00000E+000	5.19984E-001	5.19058E-001	8	...........
	533	26.7	5.29235E-001	3.27544E-004	0.00000E+000	5.29983E-001	5.29062E-001	8	...........
	534	26.75	5.39435E-001	3.32169E-004	0.00000E+000	5.39982E-001	5.39066E-001	8	...........
	535	26.8	5.49435E-001	3.36526E-004	0.00000E+000	5.49981E-001	5.49269E-001	8	...........
	536	26.85	5.59235E-001	3.41935E-004	0.00000E+000	5.59979E-001	5.59073E-001	8	...........
	537	26.9	5.69235E-001	3.46209E-004	0.00000E+000	5.69978E-001	5.69077E-001	8	...........
	538	26.95	5.79435E-001	3.51201E-004	0.00000E+000	5.79977E-001	5.78880E-001	8	...........
	539	27	5.89235E-001	3.56176E-004	0.00000E+000	5.89975E-001	5.89284E-001	8	...........
	540	27.05	5.99235E-001	3.60700E-004	0.00000E+000	6.00024E-001	5.99088E-001	8	...........
	541	27.1	6.09435E-001	3.65708E-004	0.00000E+000	6.10023E-001	6.09292E-001	8	...........
	542	27.15	6.19235E-001	3.70917E-004	0.00000E+000	6.20022E-001	6.19095E-001	8	...........
	543	27.2	6.29235E-001	3.75358E-004	0.00000E+000	6.30020E-001	6.29099E-001	8	...........
	544	27.25	6.39235E-001	3.79849E-004	0.00000E+000	6.40019E-001	6.38903E-001	8	...........
	545	27.3	6.49435E-001	3.85441E-004	0.00000E+000	6.50018E-001	6.49106E-001	8	...........
	546	27.35	6.59235E-001	3.90350E-004	0.00000E+000	6.60017E-001	6.58910E-001	8	...........
	547	27.4	6.69235E-001	3.95057E-004	0.00000E+000	6.70015E-001	6.69114E-001	8	...........
	548	27.45	6.79235E-001	4.00149E-004	0.00000E+000	6.80014E-001	6.78917E-001	8	...........
	549	27.5	6.89235E-001	4.04674E-004	0.00000E+000	6.90013E-001	6.88921E-001	8	...........
	550	27.55	6.99035E-001	4.10300E-004	0.00000E+000	7.00012E-001	6.98925E-001	8	...........
	551	27.6	7.09235E-001	4.14590E-004	0.00000E+000	7.10010E-001	7.08928E-001	8	...........
	552	27.65	7.19235E-001	4.20884E-004	0.00000E+000	7.20009E-001	7.19132E-001	8	...........
	553	27.7	7.29235E-001	4.25375E-004	0.00000E+000	7.30008E-001	7.28936E-001	8	...........
	554	27.75	7.39235E-001	4.29966E-004	0.00000E+000	7.40007E-001	7.38940E-001	8	...........
	555	27.8	7.49235E-001	4.36043E-004	0.00000E+000	7.50005E-001	7.49143E-001	8	...........
	556	27.85	7.59235E-001	4.40784E-004	0.00000E+000	7.60004E-001	7.58947E-001	8	...........
	557	27.9	7.69235E-001	4.46627E-004	0.00000E+000	7.70003E-001	7.68951E-001	8	...........
	558	27.95	7.79235E-001	4.51708E-004	0.00000E+000	7.80001E-001	7.78954E-001	9	...........
	559	28	7.89235E-001	4.57209E-004	0.00000E+000	7.90000E-001	7.88958E-001	9	...........
	560	28.05	7.99235E-001	4.62710E-004	0.00000E+000	7.99999E-001	7.98962E-001	9	...........
CURVE3	TABLE
	Pt	T	Vf	Im	Vu	Sig	Ach	IERange	Over
	#	s	V vs. Ref.	A	V	V	V	#	bits
	561	28.1	7.89035E-001	4.32037E-004	0.00000E+000	7.90000E-001	7.88758E-001	9	...........
	562	28.15	7.79235E-001	4.07032E-004	0.00000E+000	7.80001E-001	7.79154E-001	9	...........
	563	28.2	7.69235E-001	3.85361E-004	0.00000E+000	7.70003E-001	7.68951E-001	9	...........
	564	28.25	7.59235E-001	3.64423E-004	0.00000E+000	7.60004E-001	7.59147E-001	8	...........
	565	28.3	7.49235E-001	3.45725E-004	0.00000E+000	7.50005E-001	7.48943E-001	8	...........
	566	28.35	7.39235E-001	3.28112E-004	0.00000E+000	7.40007E-001	7.38940E-001	8	...........
	567	28.4	7.29435E-001	3.12168E-004	0.00000E+000	7.30008E-001	7.29136E-001	8	...........
	568	28.45	7.19235E-001	2.96358E-004	0.00000E+000	7.20009E-001	7.18932E-001	8	...........
	569	28.5	7.09435E-001	2.81717E-004	0.00000E+000	7.10010E-001	7.09129E-001	8	...........
	570	28.55	6.99035E-001	2.67660E-004	0.00000E+000	7.00012E-001	6.99125E-001	8	...........
	571	28.6	6.89235E-001	2.54772E-004	0.00000E+000	6.90013E-001	6.88921E-001	8	...........
	572	28.65	6.79235E-001	2.42168E-004	0.00000E+000	6.80014E-001	6.79117E-001	8	...........
	573	28.7	6.69435E-001	2.30364E-004	0.00000E+000	6.70015E-001	6.68914E-001	8	...........
	574	28.75	6.59235E-001	2.19045E-004	0.00000E+000	6.60017E-001	6.58910E-001	8	...........
	575	28.8	6.49235E-001	2.08327E-004	0.00000E+000	6.50018E-001	6.49106E-001	8	...........
	576	28.85	6.39435E-001	1.97827E-004	0.00000E+000	6.40019E-001	6.39103E-001	8	...........
	577	28.9	6.29235E-001	1.88160E-004	0.00000E+000	6.30020E-001	6.28899E-001	8	...........
	578	28.95	6.19235E-001	1.78594E-004	0.00000E+000	6.20022E-001	6.19095E-001	8	...........
	579	29	6.09435E-001	1.69713E-004	0.00000E+000	6.10023E-001	6.09092E-001	8	...........
	580	29.05	5.99235E-001	1.61382E-004	0.00000E+000	6.00024E-001	5.99088E-001	8	...........
	581	29.1	5.89435E-001	1.52801E-004	0.00000E+000	5.89975E-001	5.89084E-001	8	...........
	582	29.15	5.79235E-001	1.44971E-004	0.00000E+000	5.79977E-001	5.79280E-001	8	...........
	583	29.2	5.69235E-001	1.37108E-004	0.00000E+000	5.69978E-001	5.69077E-001	8	...........
	584	29.25	5.59435E-001	1.29145E-004	0.00000E+000	5.59979E-001	5.59073E-001	8	...........
	585	29.3	5.49435E-001	1.21849E-004	0.00000E+000	5.49981E-001	5.49069E-001	8	...........
	586	29.35	5.39435E-001	1.15705E-004	0.00000E+000	5.39982E-001	5.39066E-001	8	...........
	587	29.4	5.29235E-001	1.08627E-004	0.00000E+000	5.29983E-001	5.29262E-001	8	...........
	588	29.45	5.19235E-001	1.02333E-004	0.00000E+000	5.19984E-001	5.19058E-001	8	...........
	589	29.5	5.09235E-001	9.62228E-005	0.00000E+000	5.09986E-001	5.09055E-001	8	...........
	590	29.55	4.99235E-001	9.02628E-005	0.00000E+000	4.99987E-001	4.99051E-001	8	...........
	591	29.6	4.89235E-001	8.41191E-005	0.00000E+000	4.89988E-001	4.89047E-001	8	...........
	592	29.65	4.79435E-001	7.88436E-005	0.00000E+000	4.79989E-001	4.79244E-001	8	...........
	593	29.7	4.69435E-001	7.34011E-005	0.00000E+000	4.69991E-001	4.69040E-001	8	...........
	594	29.75	4.59235E-001	6.83426E-005	0.00000E+000	4.59992E-001	4.59236E-001	8	...........
	595	29.8	4.49435E-001	6.30504E-005	0.00000E+000	4.49993E-001	4.49232E-001	8	...........
	596	29.85	4.39235E-001	5.81923E-005	0.00000E+000	4.39994E-001	4.39229E-001	8	...........
	597	29.9	4.29635E-001	5.36012E-005	0.00000E+000	4.29996E-001	4.29225E-001	8	...........
	598	29.95	4.19235E-001	4.87097E-005	0.00000E+000	4.19997E-001	4.19221E-001	8	...........
	599	30	4.09435E-001	4.38015E-005	0.00000E+000	4.09998E-001	4.09218E-001	8	...........
	600	30.05	3.99435E-001	3.93106E-005	0.00000E+000	3.99999E-001	3.99214E-001	8	...........
	601	30.1	3.89435E-001	3.50383E-005	0.00000E+000	3.90001E-001	3.89410E-001	7	...........
	602	30.15	3.79435E-001	3.06423E-005	0.00000E+000	3.80002E-001	3.79207E-001	7	...........
	603	30.2	3.69435E-001	2.68477E-005	0.00000E+000	3.70003E-001	3.69403E-001	7	...........
	604	30.25	3.59435E-001	2.25787E-005	0.00000E+000	3.60005E-001	3.59399E-001	7	...........
	605	30.3	3.49435E-001	1.87072E-005	0.00000E+000	3.50006E-001	3.49195E-001	7	...........
	606	30.35	3.39435E-001	1.47839E-005	0.00000E+000	3.40007E-001	3.39192E-001	7	...........
	607	30.4	3.29435E-001	1.10427E-005	0.00000E+000	3.30008E-001	3.29388E-001	7	...........
	608	30.45	3.19435E-001	7.43847E-006	0.00000E+000	3.20010E-001	3.19184E-001	7	...........
	609	30.5	3.09635E-001	3.38159E-006	0.00000E+000	3.10011E-001	3.09181E-001	7	...........
	610	30.55	2.99435E-001	4.45599E-008	0.00000E+000	3.00012E-001	2.99377E-001	7	...........
	611	30.6	2.89635E-001	-3.67494E-006	0.00000E+000	2.90013E-001	2.89373E-001	7	...........
	612	30.65	2.79635E-001	-7.24246E-006	0.00000E+000	2.80015E-001	2.79370E-001	7	...........
	613	30.7	2.69635E-001	-1.06446E-005	0.00000E+000	2.70016E-001	2.69366E-001	7	...........
	614	30.75	2.59635E-001	-1.39666E-005	0.00000E+000	2.60017E-001	2.59362E-001	7	...........
	615	30.8	2.49635E-001	-1.76260E-005	0.00000E+000	2.50018E-001	2.49359E-001	7	...........
	616	30.85	2.39435E-001	-2.10582E-005	0.00000E+000	2.40020E-001	2.39355E-001	7	...........
	617	30.9	2.29635E-001	-2.43502E-005	0.00000E+000	2.30021E-001	2.29551E-001	7	...........
	618	30.95	2.19635E-001	-2.75886E-005	0.00000E+000	2.20022E-001	2.19548E-001	7	...........
	619	31	2.09635E-001	-3.10025E-005	0.00000E+000	2.10023E-001	2.09344E-001	7	...........
	620	31.05	1.99835E-001	-3.43362E-005	0.00000E+000	2.00025E-001	1.99340E-001	7	...........
	621	31.1	1.89635E-001	-3.74644E-005	0.00000E+000	1.90026E-001	1.89536E-001	7	...........
	622	31.15	1.79435E-001	-4.08533E-005	0.00000E+000	1.79977E-001	1.79333E-001	7	...........
	623	31.2	1.69635E-001	-4.40700E-005	0.00000E+000	1.69979E-001	1.69329E-001	7	...........
	624	31.25	1.59635E-001	-4.71933E-005	0.00000E+000	1.59980E-001	1.59325E-001	7	...........
	625	31.3	1.49435E-001	-5.06737E-005	0.00000E+000	1.49981E-001	1.49522E-001	8	...........
	626	31.35	1.39635E-001	-5.37288E-005	0.00000E+000	1.39982E-001	1.39518E-001	8	...........
	627	31.4	1.29635E-001	-5.75018E-005	0.00000E+000	1.29984E-001	1.29514E-001	8	...........
	628	31.45	1.19635E-001	-6.05569E-005	0.00000E+000	1.19985E-001	1.19511E-001	8	...........
	629	31.5	1.09835E-001	-6.35620E-005	0.00000E+000	1.09986E-001	1.09507E-001	8	...........
	630	31.55	9.96349E-002	-6.68675E-005	0.00000E+000	9.99874E-002	9.95032E-002	8	...........
	631	31.6	8.96349E-002	-7.01564E-005	0.00000E+000	8.99886E-002	8.94995E-002	8	...........
	632	31.65	7.96349E-002	-7.37624E-005	0.00000E+000	7.99899E-002	7.96959E-002	8	...........
	633	31.7	6.96349E-002	-7.70513E-005	0.00000E+000	6.99912E-002	6.92920E-002	8	...........
	634	31.75	5.98349E-002	-8.07241E-005	0.00000E+000	5.99924E-002	5.94884E-002	8	...........
	635	31.8	4.96349E-002	-8.35956E-005	0.00000E+000	4.99937E-002	4.96848E-002	8	...........
	636	31.85	3.94349E-002	-8.72684E-005	0.00000E+000	3.99949E-002	3.94810E-002	8	...........
	637	31.9	2.96349E-002	-9.07075E-005	0.00000E+000	2.99962E-002	2.94773E-002	8	...........
	638	31.95	1.96349E-002	-9.42468E-005	0.00000E+000	1.99975E-002	1.96737E-002	8	...........
	639	32	9.63488E-003	-9.73520E-005	0.00000E+000	9.99874E-003	9.66997E-003	8	...........
	640	32.05	-3.65120E-004	-1.01175E-004	0.00000E+000	0.00000E+000	-3.33723E-004	8	...........
	641	32.1	-1.03651E-002	-1.04564E-004	0.00000E+000	-9.99874E-003	-1.03374E-002	8	...........
	642	32.15	-2.03651E-002	-1.07903E-004	0.00000E+000	-1.99975E-002	-2.03411E-002	8	...........
	643	32.2	-3.03651E-002	-1.11376E-004	0.00000E+000	-2.99962E-002	-3.05449E-002	8	...........
	644	32.25	-4.03651E-002	-1.15098E-004	0.00000E+000	-3.99949E-002	-4.03485E-002	8	...........
	645	32.3	-5.01651E-002	-1.19105E-004	0.00000E+000	-4.99937E-002	-5.01521E-002	8	...........
	646	32.35	-6.03651E-002	-1.22344E-004	0.00000E+000	-5.99924E-002	-6.05560E-002	8	...........
	647	32.4	-7.03651E-002	-1.26301E-004	0.00000E+000	-6.99912E-002	-7.03596E-002	8	...........
	648	32.45	-8.03651E-002	-1.29890E-004	0.00000E+000	-7.99899E-002	-8.01632E-002	8	...........
	649	32.5	-9.01651E-002	-1.33329E-004	0.00000E+000	-8.99886E-002	-9.03670E-002	8	...........
	650	32.55	-1.00165E-001	-1.37503E-004	0.00000E+000	-9.99874E-002	-1.00371E-001	8	...........
	651	32.6	-1.10165E-001	-1.41142E-004	0.00000E+000	-1.09986E-001	-1.10174E-001	8	...........
	652	32.65	-1.20165E-001	-1.44598E-004	0.00000E+000	-1.19985E-001	-1.20378E-001	8	...........
	653	32.7	-1.30165E-001	-1.48521E-004	0.00000E+000	-1.29984E-001	-1.30382E-001	8	...........
	654	32.75	-1.40365E-001	-1.52328E-004	0.00000E+000	-1.39982E-001	-1.40185E-001	8	...........
	655	32.8	-1.50165E-001	-1.56301E-004	0.00000E+000	-1.49981E-001	-1.50389E-001	8	...........
	656	32.85	-1.60165E-001	-1.60207E-004	0.00000E+000	-1.59980E-001	-1.60193E-001	8	...........
	657	32.9	-1.70365E-001	-1.64181E-004	0.00000E+000	-1.69979E-001	-1.70397E-001	8	...........
	658	32.95	-1.80165E-001	-1.68488E-004	0.00000E+000	-1.79977E-001	-1.80200E-001	8	...........
	659	33	-1.90165E-001	-1.71910E-004	0.00000E+000	-1.89976E-001	-1.90204E-001	8	...........
	660	33.05	-2.00165E-001	-1.75951E-004	0.00000E+000	-1.99975E-001	-2.00208E-001	8	...........
	661	33.1	-2.10165E-001	-1.80241E-004	0.00000E+000	-2.09973E-001	-2.10211E-001	8	...........
	662	33.15	-2.20165E-001	-1.84131E-004	0.00000E+000	-2.20022E-001	-2.20215E-001	8	...........
	663	33.2	-2.30365E-001	-1.88088E-004	0.00000E+000	-2.30021E-001	-2.30219E-001	8	...........
	664	33.25	-2.40165E-001	-1.92612E-004	0.00000E+000	-2.40020E-001	-2.40222E-001	8	...........
	665	33.3	-2.50165E-001	-1.96568E-004	0.00000E+000	-2.50018E-001	-2.50226E-001	8	...........
	666	33.35	-2.59965E-001	-2.00475E-004	0.00000E+000	-2.60017E-001	-2.60430E-001	8	...........
	667	33.4	-2.70165E-001	-2.04916E-004	0.00000E+000	-2.70016E-001	-2.70233E-001	8	...........
	668	33.45	-2.80165E-001	-2.09056E-004	0.00000E+000	-2.80015E-001	-2.80037E-001	8	...........
	669	33.5	-2.89965E-001	-2.13363E-004	0.00000E+000	-2.90013E-001	-2.90241E-001	8	...........
	670	33.55	-3.00165E-001	-2.17687E-004	0.00000E+000	-3.00012E-001	-3.00045E-001	8	...........
	671	33.6	-3.10165E-001	-2.21594E-004	0.00000E+000	-3.10011E-001	-3.10248E-001	8	...........
	672	33.65	-3.19965E-001	-2.26018E-004	0.00000E+000	-3.20010E-001	-3.20252E-001	8	...........
	673	33.7	-3.30165E-001	-2.30525E-004	0.00000E+000	-3.30008E-001	-3.30056E-001	8	...........
	674	33.75	-3.40165E-001	-2.34866E-004	0.00000E+000	-3.40007E-001	-3.40259E-001	8	...........
	675	33.8	-3.49965E-001	-2.39741E-004	0.00000E+000	-3.50006E-001	-3.50263E-001	8	...........
	676	33.85	-3.59965E-001	-2.43965E-004	0.00000E+000	-3.60005E-001	-3.60067E-001	8	...........
	677	33.9	-3.69965E-001	-2.48806E-004	0.00000E+000	-3.70003E-001	-3.70070E-001	8	...........
	678	33.95	-3.80165E-001	-2.53197E-004	0.00000E+000	-3.80002E-001	-3.79874E-001	8	...........
	679	34	-3.90165E-001	-2.57704E-004	0.00000E+000	-3.90001E-001	-3.90078E-001	8	...........
	680	34.05	-4.00165E-001	-2.62512E-004	0.00000E+000	-3.99999E-001	-4.00081E-001	8	...........
	681	34.1	-4.09965E-001	-2.67087E-004	0.00000E+000	-4.09998E-001	-4.10085E-001	8	...........
	682	34.15	-4.19965E-001	-2.71995E-004	0.00000E+000	-4.19997E-001	-4.20089E-001	8	...........
	683	34.2	-4.30165E-001	-2.76536E-004	0.00000E+000	-4.29996E-001	-4.29893E-001	8	...........
	684	34.25	-4.39965E-001	-2.80993E-004	0.00000E+000	-4.39994E-001	-4.40096E-001	8	...........
	685	34.3	-4.50165E-001	-2.86402E-004	0.00000E+000	-4.49993E-001	-4.50100E-001	8	...........
	686	34.35	-4.59965E-001	-2.90776E-004	0.00000E+000	-4.59992E-001	-4.60104E-001	8	...........
	687	34.4	-4.69965E-001	-2.95818E-004	0.00000E+000	-4.69991E-001	-4.69907E-001	8	...........
	688	34.45	-4.80165E-001	-3.00693E-004	0.00000E+000	-4.79989E-001	-4.80111E-001	8	...........
	689	34.5	-4.89965E-001	-3.05535E-004	0.00000E+000	-4.89988E-001	-4.90115E-001	8	...........
	690	34.55	-4.99965E-001	-3.10493E-004	0.00000E+000	-4.99987E-001	-5.00319E-001	8	...........
	691	34.6	-5.09965E-001	-3.15668E-004	0.00000E+000	-5.09986E-001	-5.10122E-001	8	...........
	692	34.65	-5.19965E-001	-3.21077E-004	0.00000E+000	-5.19984E-001	-5.20126E-001	8	...........
	693	34.7	-5.29965E-001	-3.26219E-004	0.00000E+000	-5.29983E-001	-5.30130E-001	8	...........
	694	34.75	-5.39965E-001	-3.31194E-004	0.00000E+000	-5.39982E-001	-5.40133E-001	8	...........
	695	34.8	-5.49965E-001	-3.36486E-004	0.00000E+000	-5.49981E-001	-5.49937E-001	8	...........
	696	34.85	-5.59965E-001	-3.42213E-004	0.00000E+000	-5.59979E-001	-5.59941E-001	8	...........
	697	34.9	-5.70165E-001	-3.47772E-004	0.00000E+000	-5.69978E-001	-5.69944E-001	8	...........
	698	34.95	-5.79965E-001	-3.52647E-004	0.00000E+000	-5.79977E-001	-5.79948E-001	8	...........
	699	35	-5.89765E-001	-3.58907E-004	0.00000E+000	-5.89975E-001	-5.89952E-001	8	...........
	700	35.05	-5.99765E-001	-3.64517E-004	0.00000E+000	-5.99974E-001	-5.99955E-001	8	...........
	701	35.1	-6.09965E-001	-3.70544E-004	0.00000E+000	-6.09973E-001	-6.09959E-001	8	...........
	702	35.15	-6.19765E-001	-3.76637E-004	0.00000E+000	-6.20022E-001	-6.20163E-001	8	...........
	703	35.2	-6.29965E-001	-3.81863E-004	0.00000E+000	-6.30020E-001	-6.29766E-001	8	...........
	704	35.25	-6.39965E-001	-3.88290E-004	0.00000E+000	-6.40019E-001	-6.39970E-001	8	...........
	705	35.3	-6.49965E-001	-3.94450E-004	0.00000E+000	-6.50018E-001	-6.49574E-001	8	...........
	706	35.35	-6.59965E-001	-4.01429E-004	0.00000E+000	-6.60017E-001	-6.59978E-001	8	...........
	707	35.4	-6.69965E-001	-4.07489E-004	0.00000E+000	-6.70015E-001	-6.69981E-001	8	...........
	708	35.45	-6.79765E-001	-4.14434E-004	0.00000E+000	-6.80014E-001	-6.79785E-001	8	...........
	709	35.5	-6.89965E-001	-4.21145E-004	0.00000E+000	-6.90013E-001	-6.89989E-001	8	...........
	710	35.55	-6.99765E-001	-4.28190E-004	0.00000E+000	-7.00012E-001	-6.99992E-001	8	...........
	711	35.6	-7.09765E-001	-4.34851E-004	0.00000E+000	-7.10010E-001	-7.09996E-001	8	...........
	712	35.65	-7.19765E-001	-4.42281E-004	0.00000E+000	-7.20009E-001	-7.19800E-001	8	...........
	713	35.7	-7.29965E-001	-4.49977E-004	0.00000E+000	-7.30008E-001	-7.29803E-001	8	...........
	714	35.75	-7.39965E-001	-4.57316E-004	0.00000E+000	-7.40007E-001	-7.39807E-001	9	...........
	715	35.8	-7.49565E-001	-4.65318E-004	0.00000E+000	-7.50005E-001	-7.49811E-001	9	...........
	716	35.85	-7.59965E-001	-4.74653E-004	0.00000E+000	-7.60004E-001	-7.59814E-001	9	...........
	717	35.9	-7.69765E-001	-4.82821E-004	0.00000E+000	-7.70003E-001	-7.69818E-001	9	...........
	718	35.95	-7.79565E-001	-4.90823E-004	0.00000E+000	-7.80001E-001	-7.79622E-001	9	...........
	719	36	-7.89765E-001	-5.00325E-004	0.00000E+000	-7.90000E-001	-7.89625E-001	9	...........
	720	36.05	-7.99565E-001	-5.09827E-004	0.00000E+000	-7.99999E-001	-7.99829E-001	9	...........
	721	36.1	-7.89765E-001	-4.71819E-004	0.00000E+000	-7.90000E-001	-7.89825E-001	9	...........
	722	36.15	-7.79965E-001	-4.41479E-004	0.00000E+000	-7.80001E-001	-7.79822E-001	9	...........
	723	36.2	-7.69965E-001	-4.15307E-004	0.00000E+000	-7.70003E-001	-7.69818E-001	9	...........
	724	36.25	-7.59965E-001	-3.91802E-004	0.00000E+000	-7.60004E-001	-7.60015E-001	9	...........
	725	36.3	-7.49965E-001	-3.70093E-004	0.00000E+000	-7.50005E-001	-7.49811E-001	8	...........
	726	36.35	-7.39965E-001	-3.50009E-004	0.00000E+000	-7.40007E-001	-7.39807E-001	8	...........
	727	36.4	-7.29965E-001	-3.31845E-004	0.00000E+000	-7.30008E-001	-7.30003E-001	8	...........
	728	36.45	-7.19765E-001	-3.15468E-004	0.00000E+000	-7.20009E-001	-7.20000E-001	8	...........
	729	36.5	-7.09965E-001	-2.98974E-004	0.00000E+000	-7.10010E-001	-7.09996E-001	8	...........
	730	36.55	-6.99965E-001	-2.84266E-004	0.00000E+000	-7.00012E-001	-6.99792E-001	8	...........
	731	36.6	-6.89765E-001	-2.69791E-004	0.00000E+000	-6.90013E-001	-6.89989E-001	8	...........
	732	36.65	-6.79765E-001	-2.56836E-004	0.00000E+000	-6.80014E-001	-6.79985E-001	8	...........
	733	36.7	-6.69565E-001	-2.43965E-004	0.00000E+000	-6.70015E-001	-6.69981E-001	8	...........
	734	36.75	-6.59765E-001	-2.32045E-004	0.00000E+000	-6.60017E-001	-6.59978E-001	8	...........
	735	36.8	-6.49965E-001	-2.20509E-004	0.00000E+000	-6.50018E-001	-6.49774E-001	8	...........
	736	36.85	-6.39965E-001	-2.09323E-004	0.00000E+000	-6.40019E-001	-6.39970E-001	8	...........
	737	36.9	-6.29965E-001	-1.98321E-004	0.00000E+000	-6.30020E-001	-6.29766E-001	8	...........
	738	36.95	-6.19965E-001	-1.88472E-004	0.00000E+000	-6.20022E-001	-6.20163E-001	8	...........
	739	37	-6.09765E-001	-1.79273E-004	0.00000E+000	-6.09973E-001	-6.09959E-001	8	...........
	740	37.05	-5.99765E-001	-1.69807E-004	0.00000E+000	-5.99974E-001	-5.99755E-001	8	...........
	741	37.1	-5.89965E-001	-1.60859E-004	0.00000E+000	-5.89975E-001	-5.89952E-001	8	...........
	742	37.15	-5.79965E-001	-1.52778E-004	0.00000E+000	-5.79977E-001	-5.79948E-001	8	...........
	743	37.2	-5.69965E-001	-1.44481E-004	0.00000E+000	-5.69978E-001	-5.69944E-001	8	...........
	744	37.25	-5.59965E-001	-1.36284E-004	0.00000E+000	-5.59979E-001	-5.59741E-001	8	...........
	745	37.3	-5.49965E-001	-1.28988E-004	0.00000E+000	-5.49981E-001	-5.49937E-001	8	...........
	746	37.35	-5.39765E-001	-1.21376E-004	0.00000E+000	-5.39982E-001	-5.39933E-001	8	...........
	747	37.4	-5.29765E-001	-1.14381E-004	0.00000E+000	-5.29983E-001	-5.30130E-001	8	...........
	748	37.45	-5.19965E-001	-1.07886E-004	0.00000E+000	-5.19984E-001	-5.20126E-001	8	...........
	749	37.5	-5.09765E-001	-1.01242E-004	0.00000E+000	-5.09986E-001	-5.09922E-001	8	...........
	750	37.55	-4.99965E-001	-9.50147E-005	0.00000E+000	-4.99987E-001	-4.99718E-001	8	...........
	751	37.6	-4.90165E-001	-8.90547E-005	0.00000E+000	-4.89988E-001	-4.89715E-001	8	...........
	752	37.65	-4.79965E-001	-8.30280E-005	0.00000E+000	-4.79989E-001	-4.79911E-001	8	...........
	753	37.7	-4.69965E-001	-7.70680E-005	0.00000E+000	-4.69991E-001	-4.69907E-001	8	...........
	754	37.75	-4.59965E-001	-7.18091E-005	0.00000E+000	-4.59992E-001	-4.60104E-001	8	...........
	755	37.8	-4.50165E-001	-6.65837E-005	0.00000E+000	-4.49993E-001	-4.49900E-001	8	...........
	756	37.85	-4.39965E-001	-6.12080E-005	0.00000E+000	-4.39994E-001	-4.40096E-001	8	...........
	757	37.9	-4.30165E-001	-5.59325E-005	0.00000E+000	-4.29996E-001	-4.30293E-001	8	...........
	758	37.95	-4.19765E-001	-5.09241E-005	0.00000E+000	-4.19997E-001	-4.20089E-001	8	...........
	759	38	-4.10165E-001	-4.63164E-005	0.00000E+000	-4.09998E-001	-4.10085E-001	8	...........
	760	38.05	-4.00165E-001	-4.15083E-005	0.00000E+000	-3.99999E-001	-4.00081E-001	8	...........
	761	38.1	-3.89965E-001	-3.71844E-005	0.00000E+000	-3.90001E-001	-3.90078E-001	8	...........
	762	38.15	-3.80165E-001	-3.26543E-005	0.00000E+000	-3.80002E-001	-3.80274E-001	7	...........
	763	38.2	-3.70165E-001	-2.82667E-005	0.00000E+000	-3.70003E-001	-3.70070E-001	7	...........
	764	38.25	-3.60165E-001	-2.42216E-005	0.00000E+000	-3.60005E-001	-3.60267E-001	7	...........
	765	38.3	-3.50165E-001	-2.00678E-005	0.00000E+000	-3.50006E-001	-3.50263E-001	7	...........
	766	38.35	-3.40165E-001	-1.59441E-005	0.00000E+000	-3.40007E-001	-3.40259E-001	7	...........
	767	38.4	-3.29965E-001	-1.21328E-005	0.00000E+000	-3.30008E-001	-3.30256E-001	7	...........
	768	38.45	-3.20165E-001	-8.32975E-006	0.00000E+000	-3.20010E-001	-3.20252E-001	7	...........
	769	38.5	-3.10165E-001	-4.50502E-006	0.00000E+000	-3.10011E-001	-3.10248E-001	7	...........
	770	38.55	-3.00165E-001	-8.77382E-007	0.00000E+000	-3.00012E-001	-3.00245E-001	7	...........
	771	38.6	-2.90165E-001	2.98242E-006	0.00000E+000	-2.90013E-001	-2.90041E-001	7	...........
	772	38.65	-2.80165E-001	6.39627E-006	0.00000E+000	-2.80015E-001	-2.80237E-001	7	...........
	773	38.7	-2.70165E-001	1.01625E-005	0.00000E+000	-2.70016E-001	-2.70233E-001	7	...........
	774	38.75	-2.60165E-001	1.34962E-005	0.00000E+000	-2.60017E-001	-2.60430E-001	7	...........
	775	38.8	-2.49965E-001	1.70303E-005	0.00000E+000	-2.50018E-001	-2.50226E-001	7	...........
	776	38.85	-2.40165E-001	2.04208E-005	0.00000E+000	-2.40020E-001	-2.40222E-001	7	...........
	777	38.9	-2.30165E-001	2.37979E-005	0.00000E+000	-2.30021E-001	-2.30219E-001	7	...........
	778	38.95	-2.20165E-001	2.71333E-005	0.00000E+000	-2.20022E-001	-2.20415E-001	7	...........
	779	39	-2.10165E-001	3.05405E-005	0.00000E+000	-2.09973E-001	-2.10411E-001	7	...........
	780	39.05	-2.00165E-001	3.38491E-005	0.00000E+000	-1.99975E-001	-2.00208E-001	7	...........
	781	39.1	-1.90165E-001	3.73682E-005	0.00000E+000	-1.89976E-001	-1.90404E-001	7	...........
	782	39.15	-1.80165E-001	4.05699E-005	0.00000E+000	-1.79977E-001	-1.80200E-001	7	...........
	783	39.2	-1.70165E-001	4.39704E-005	0.00000E+000	-1.69979E-001	-1.70197E-001	7	...........
	784	39.25	-1.60165E-001	4.74010E-005	0.00000E+000	-1.59980E-001	-1.60393E-001	7	...........
	785	39.3	-1.49965E-001	5.05628E-005	0.00000E+000	-1.49981E-001	-1.50389E-001	8	...........
	786	39.35	-1.40165E-001	5.39685E-005	0.00000E+000	-1.39982E-001	-1.40385E-001	8	...........
	787	39.4	-1.30165E-001	5.77916E-005	0.00000E+000	-1.29984E-001	-1.30382E-001	8	...........
	788	39.45	-1.20165E-001	6.06965E-005	0.00000E+000	-1.19985E-001	-1.20378E-001	8	...........
	789	39.5	-1.10165E-001	6.39353E-005	0.00000E+000	-1.09986E-001	-1.10374E-001	8	...........
	790	39.55	-1.00165E-001	6.78752E-005	0.00000E+000	-9.99874E-002	-1.00371E-001	8	...........
	791	39.6	-9.01651E-002	7.09637E-005	0.00000E+000	-8.99886E-002	-9.03670E-002	8	...........
	792	39.65	-8.01651E-002	7.46198E-005	0.00000E+000	-7.99899E-002	-8.01632E-002	8	...........
	793	39.7	-7.01651E-002	7.80756E-005	0.00000E+000	-6.99912E-002	-7.03596E-002	8	...........
	794	39.75	-6.03651E-002	8.16817E-005	0.00000E+000	-5.99924E-002	-6.05560E-002	8	...........
	795	39.8	-5.03651E-002	8.50874E-005	0.00000E+000	-4.99937E-002	-5.03522E-002	8	...........
	796	39.85	-4.03651E-002	8.86601E-005	0.00000E+000	-3.99949E-002	-4.05486E-002	8	...........
	797	39.9	-3.03651E-002	9.21492E-005	0.00000E+000	-2.99962E-002	-3.05449E-002	8	...........
	798	39.95	-2.05651E-002	9.60558E-005	0.00000E+000	-1.99975E-002	-2.01410E-002	8	...........
	799	40	-1.03651E-002	9.93113E-005	0.00000E+000	-9.99874E-003	-1.05375E-002	8	...........
	800	40.05	-1.65120E-004	1.03201E-004	0.00000E+000	0.00000E+000	-5.33797E-004	8	...........
	801	40.1	9.83488E-003	1.06891E-004	0.00000E+000	9.99874E-003	9.46990E-003	8	...........
	802	40.15	1.96349E-002	1.10697E-004	0.00000E+000	1.99975E-002	1.96737E-002	8	...........
	803	40.2	2.98349E-002	1.14136E-004	0.00000E+000	2.99962E-002	2.96774E-002	8	...........
	804	40.25	3.96349E-002	1.18326E-004	0.00000E+000	3.99949E-002	3.94810E-002	8	...........
	805	40.3	4.96349E-002	1.21832E-004	0.00000E+000	4.99937E-002	4.96848E-002	8	...........
	806	40.35	5.96349E-002	1.25522E-004	0.00000E+000	5.99924E-002	5.94884E-002	8	...........
	807	40.4	6.96349E-002	1.29378E-004	0.00000E+000	6.99912E-002	6.94921E-002	8	...........
	808	40.45	7.96349E-002	1.33435E-004	0.00000E+000	7.99899E-002	7.94958E-002	8	...........
	809	40.5	8.96349E-002	1.37292E-004	0.00000E+000	8.99886E-002	8.94995E-002	8	...........
	810	40.55	9.96349E-002	1.40931E-004	0.00000E+000	9.99874E-002	9.93031E-002	8	...........
	811	40.6	1.09635E-001	1.45088E-004	0.00000E+000	1.09986E-001	1.09507E-001	8	...........
	812	40.65	1.19635E-001	1.48928E-004	0.00000E+000	1.19985E-001	1.19711E-001	8	...........
	813	40.7	1.29635E-001	1.52667E-004	0.00000E+000	1.29984E-001	1.29114E-001	8	...........
	814	40.75	1.39635E-001	1.56991E-004	0.00000E+000	1.39982E-001	1.39518E-001	8	...........
	815	40.8	1.49635E-001	1.61265E-004	0.00000E+000	1.49981E-001	1.49522E-001	8	...........
	816	40.85	1.59635E-001	1.64988E-004	0.00000E+000	1.59980E-001	1.59525E-001	8	...........
	817	40.9	1.69635E-001	1.69229E-004	0.00000E+000	1.69979E-001	1.69529E-001	8	...........
	818	40.95	1.79635E-001	1.73552E-004	0.00000E+000	1.79977E-001	1.79333E-001	8	...........
	819	41	1.89635E-001	1.77709E-004	0.00000E+000	1.90026E-001	1.89336E-001	8	...........
	820	41.05	1.99435E-001	1.81516E-004	0.00000E+000	2.00025E-001	1.99540E-001	8	...........
	821	41.1	2.09635E-001	1.85790E-004	0.00000E+000	2.10023E-001	2.09544E-001	8	...........
	822	41.15	2.19635E-001	1.89730E-004	0.00000E+000	2.20022E-001	2.19347E-001	8	...........
	823	41.2	2.29835E-001	1.94404E-004	0.00000E+000	2.30021E-001	2.29351E-001	8	...........
	824	41.25	2.39635E-001	1.98344E-004	0.00000E+000	2.40020E-001	2.39355E-001	8	...........
	825	41.3	2.49635E-001	2.02284E-004	0.00000E+000	2.50018E-001	2.49359E-001	8	...........
	826	41.35	2.59635E-001	2.06858E-004	0.00000E+000	2.60017E-001	2.59362E-001	8	...........
	827	41.4	2.69435E-001	2.11182E-004	0.00000E+000	2.70016E-001	2.69366E-001	8	...........
	828	41.45	2.79635E-001	2.15272E-004	0.00000E+000	2.80015E-001	2.79370E-001	8	...........
	829	41.5	2.89835E-001	2.19546E-004	0.00000E+000	2.90013E-001	2.89173E-001	8	...........
	830	41.55	2.99435E-001	2.23837E-004	0.00000E+000	3.00012E-001	2.99377E-001	8	...........
	831	41.6	3.09635E-001	2.28912E-004	0.00000E+000	3.10011E-001	3.09181E-001	8	...........
	832	41.65	3.19635E-001	2.32752E-004	0.00000E+000	3.20010E-001	3.19184E-001	8	...........
	833	41.7	3.29435E-001	2.37360E-004	0.00000E+000	3.30008E-001	3.29388E-001	8	...........
	834	41.75	3.39435E-001	2.41967E-004	0.00000E+000	3.40007E-001	3.39192E-001	8	...........
	835	41.8	3.49435E-001	2.45857E-004	0.00000E+000	3.50006E-001	3.49195E-001	8	...........
	836	41.85	3.59435E-001	2.50932E-004	0.00000E+000	3.60005E-001	3.59199E-001	8	...........
	837	41.9	3.69435E-001	2.55089E-004	0.00000E+000	3.70003E-001	3.69403E-001	8	...........
	838	41.95	3.79035E-001	2.59363E-004	0.00000E+000	3.80002E-001	3.79207E-001	8	...........
	839	42	3.89435E-001	2.63954E-004	0.00000E+000	3.90001E-001	3.89410E-001	8	...........
	840	42.05	3.99435E-001	2.68545E-004	0.00000E+000	3.99999E-001	3.99414E-001	8	...........
	841	42.1	4.09235E-001	2.73370E-004	0.00000E+000	4.09998E-001	4.09418E-001	8	...........
	842	42.15	4.19435E-001	2.77610E-004	0.00000E+000	4.19997E-001	4.19221E-001	8	...........
	843	42.2	4.29235E-001	2.82402E-004	0.00000E+000	4.29996E-001	4.29225E-001	8	...........
	844	42.25	4.39435E-001	2.87060E-004	0.00000E+000	4.39994E-001	4.39029E-001	8	...........
	845	42.3	4.49435E-001	2.91434E-004	0.00000E+000	4.49993E-001	4.49232E-001	8	...........
	846	42.35	4.59435E-001	2.95841E-004	0.00000E+000	4.59992E-001	4.59036E-001	8	...........
	847	42.4	4.69235E-001	3.00766E-004	0.00000E+000	4.69991E-001	4.69040E-001	8	...........
	848	42.45	4.79435E-001	3.05307E-004	0.00000E+000	4.79989E-001	4.79043E-001	8	...........
	849	42.5	4.89435E-001	3.10082E-004	0.00000E+000	4.89988E-001	4.89047E-001	8	...........
	850	42.55	4.99235E-001	3.14439E-004	0.00000E+000	4.99987E-001	4.99051E-001	8	...........
	851	42.6	5.09435E-001	3.18813E-004	0.00000E+000	5.09986E-001	5.09055E-001	8	...........
	852	42.65	5.19235E-001	3.23771E-004	0.00000E+000	5.19984E-001	5.19258E-001	8	...........
	853	42.7	5.29235E-001	3.28512E-004	0.00000E+000	5.29983E-001	5.29062E-001	8	...........
	854	42.75	5.39235E-001	3.32603E-004	0.00000E+000	5.39982E-001	5.39066E-001	8	...........
	855	42.8	5.49235E-001	3.37327E-004	0.00000E+000	5.49981E-001	5.48869E-001	8	...........
	856	42.85	5.59235E-001	3.41818E-004	0.00000E+000	5.59979E-001	5.59073E-001	8	...........
	857	42.9	5.69235E-001	3.47294E-004	0.00000E+000	5.69978E-001	5.69277E-001	8	...........
	858	42.95	5.79235E-001	3.51802E-004	0.00000E+000	5.79977E-001	5.79080E-001	8	...........
	859	43	5.89235E-001	3.56125E-004	0.00000E+000	5.89975E-001	5.89084E-001	8	...........
	860	43.05	5.99235E-001	3.61050E-004	0.00000E+000	6.00024E-001	5.99088E-001	8	...........
	861	43.1	6.09035E-001	3.66142E-004	0.00000E+000	6.10023E-001	6.08891E-001	8	...........
	862	43.15	6.19235E-001	3.71084E-004	0.00000E+000	6.20022E-001	6.19095E-001	8	...........
	863	43.2	6.29235E-001	3.76443E-004	0.00000E+000	6.30020E-001	6.28899E-001	8	...........
	864	43.25	6.39435E-001	3.81134E-004	0.00000E+000	6.40019E-001	6.38903E-001	8	...........
	865	43.3	6.49235E-001	3.85575E-004	0.00000E+000	6.50018E-001	6.49106E-001	8	...........
	866	43.35	6.59235E-001	3.90266E-004	0.00000E+000	6.60017E-001	6.59110E-001	8	...........
	867	43.4	6.69235E-001	3.95458E-004	0.00000E+000	6.70015E-001	6.69114E-001	8	...........
	868	43.45	6.79235E-001	4.00684E-004	0.00000E+000	6.80014E-001	6.79318E-001	8	...........
	869	43.5	6.89035E-001	4.05909E-004	0.00000E+000	6.90013E-001	6.88921E-001	8	...........
	870	43.55	6.99235E-001	4.10517E-004	0.00000E+000	7.00012E-001	6.99125E-001	8	...........
	871	43.6	7.09235E-001	4.15725E-004	0.00000E+000	7.10010E-001	7.08928E-001	8	...........
	872	43.65	7.19035E-001	4.21051E-004	0.00000E+000	7.20009E-001	7.18932E-001	8	...........
	873	43.7	7.29035E-001	4.26026E-004	0.00000E+000	7.30008E-001	7.29136E-001	8	...........
	874	43.75	7.39435E-001	4.31702E-004	0.00000E+000	7.40007E-001	7.38940E-001	8	...........
	875	43.8	7.49235E-001	4.36727E-004	0.00000E+000	7.50005E-001	7.48943E-001	8	...........
	876	43.85	7.59035E-001	4.41869E-004	0.00000E+000	7.60004E-001	7.58947E-001	8	...........
	877	43.9	7.69235E-001	4.47161E-004	0.00000E+000	7.70003E-001	7.68951E-001	8	...........
	878	43.95	7.79435E-001	4.53042E-004	0.00000E+000	7.80001E-001	7.79154E-001	9	...........
	879	44	7.89235E-001	4.58376E-004	0.00000E+000	7.90000E-001	7.88958E-001	9	...........
	880	44.05	7.99235E-001	4.63711E-004	0.00000E+000	7.99999E-001	7.98962E-001	9	...........
CURVE4	TABLE
	Pt	T	Vf	Im	Vu	Sig	Ach	IERange	Over
	#	s	V vs. Ref.	A	V	V	V	#	bits
	881	44.1	7.89035E-001	4.33204E-004	0.00000E+000	7.90000E-001	7.88958E-001	9	...........
	882	44.15	7.79235E-001	4.08199E-004	0.00000E+000	7.80001E-001	7.78954E-001	9	...........
	883	44.2	7.69235E-001	3.86028E-004	0.00000E+000	7.70003E-001	7.69151E-001	9	...........
	884	44.25	7.59235E-001	3.65408E-004	0.00000E+000	7.60004E-001	7.58947E-001	8	...........
	885	44.3	7.49235E-001	3.46392E-004	0.00000E+000	7.50005E-001	7.48743E-001	8	...........
	886	44.35	7.39035E-001	3.28896E-004	0.00000E+000	7.40007E-001	7.38940E-001	8	...........
	887	44.4	7.29035E-001	3.12202E-004	0.00000E+000	7.30008E-001	7.28936E-001	8	...........
	888	44.45	7.19435E-001	2.96225E-004	0.00000E+000	7.20009E-001	7.19132E-001	8	...........
	889	44.5	7.09235E-001	2.82736E-004	0.00000E+000	7.10010E-001	7.08928E-001	8	...........
	890	44.55	6.99235E-001	2.68362E-004	0.00000E+000	7.00012E-001	6.99125E-001	8	...........
	891	44.6	6.89235E-001	2.55907E-004	0.00000E+000	6.90013E-001	6.88921E-001	8	...........
	892	44.65	6.79435E-001	2.42952E-004	0.00000E+000	6.80014E-001	6.79117E-001	8	...........
	893	44.7	6.69435E-001	2.31099E-004	0.00000E+000	6.70015E-001	6.69114E-001	8	...........
	894	44.75	6.59035E-001	2.20081E-004	0.00000E+000	6.60017E-001	6.58910E-001	8	...........
	895	44.8	6.49435E-001	2.09012E-004	0.00000E+000	6.50018E-001	6.49106E-001	8	...........
	896	44.85	6.39235E-001	1.99029E-004	0.00000E+000	6.40019E-001	6.39103E-001	8	...........
	897	44.9	6.29435E-001	1.89212E-004	0.00000E+000	6.30020E-001	6.29099E-001	8	...........
	898	44.95	6.19235E-001	1.79546E-004	0.00000E+000	6.20022E-001	6.19095E-001	8	...........
	899	45	6.09235E-001	1.70547E-004	0.00000E+000	6.10023E-001	6.09092E-001	8	...........
	900	45.05	5.99435E-001	1.61616E-004	0.00000E+000	6.00024E-001	5.99088E-001	8	...........
	901	45.1	5.89235E-001	1.53285E-004	0.00000E+000	5.89975E-001	5.89284E-001	8	...........
	902	45.15	5.79235E-001	1.45405E-004	0.00000E+000	5.79977E-001	5.79080E-001	8	...........
	903	45.2	5.69235E-001	1.37692E-004	0.00000E+000	5.69978E-001	5.69077E-001	8	...........
	904	45.25	5.59235E-001	1.30196E-004	0.00000E+000	5.59979E-001	5.58873E-001	8	...........
	905	45.3	5.49235E-001	1.23268E-004	0.00000E+000	5.49981E-001	5.49069E-001	8	...........
	906	45.35	5.39235E-001	1.16407E-004	0.00000E+000	5.39982E-001	5.39066E-001	8	...........
	907	45.4	5.29435E-001	1.09612E-004	0.00000E+000	5.29983E-001	5.29062E-001	8	...........
	908	45.45	5.19235E-001	1.02901E-004	0.00000E+000	5.19984E-001	5.19258E-001	8	...........
	909	45.5	5.09435E-001	9.69740E-005	0.00000E+000	5.09986E-001	5.09055E-001	8	...........
	910	45.55	4.99435E-001	9.06801E-005	0.00000E+000	4.99987E-001	4.99251E-001	8	...........
	911	45.6	4.89235E-001	8.53044E-005	0.00000E+000	4.89988E-001	4.89447E-001	8	...........
	912	45.65	4.79235E-001	7.93444E-005	0.00000E+000	4.79989E-001	4.79043E-001	8	...........
	913	45.7	4.69235E-001	7.43026E-005	0.00000E+000	4.69991E-001	4.69040E-001	8	...........
	914	45.75	4.59235E-001	6.87099E-005	0.00000E+000	4.59992E-001	4.59236E-001	8	...........
	915	45.8	4.49435E-001	6.36514E-005	0.00000E+000	4.49993E-001	4.49032E-001	8	...........
	916	45.85	4.39235E-001	5.86764E-005	0.00000E+000	4.39994E-001	4.39229E-001	8	...........
	917	45.9	4.29235E-001	5.37181E-005	0.00000E+000	4.29996E-001	4.29425E-001	8	...........
	918	45.95	4.19435E-001	4.90102E-005	0.00000E+000	4.19997E-001	4.19221E-001	8	...........
	919	46	4.09235E-001	4.44192E-005	0.00000E+000	4.09998E-001	4.09218E-001	8	...........
	920	46.05	3.99235E-001	4.00953E-005	0.00000E+000	3.99999E-001	3.99214E-001	8	...........
	921	46.1	3.89435E-001	3.53907E-005	0.00000E+000	3.90001E-001	3.89210E-001	7	...........
	922	46.15	3.79435E-001	3.12052E-005	0.00000E+000	3.80002E-001	3.79207E-001	7	...........
	923	46.2	3.69635E-001	2.70197E-005	0.00000E+000	3.70003E-001	3.69203E-001	7	...........
	924	46.25	3.59435E-001	2.31633E-005	0.00000E+000	3.60005E-001	3.59399E-001	7	...........
	925	46.3	3.49435E-001	1.89293E-005	0.00000E+000	3.50006E-001	3.49195E-001	7	...........
	926	46.35	3.39435E-001	1.52650E-005	0.00000E+000	3.40007E-001	3.39192E-001	7	...........
	927	46.4	3.29435E-001	1.12498E-005	0.00000E+000	3.30008E-001	3.29388E-001	7	...........
	928	46.45	3.19635E-001	7.37333E-006	0.00000E+000	3.20010E-001	3.19184E-001	7	...........
	929	46.5	3.09635E-001	3.65049E-006	0.00000E+000	3.10011E-001	3.09381E-001	7	...........
	930	46.55	2.99635E-001	8.46443E-008	0.00000E+000	3.00012E-001	2.99377E-001	7	...........
	931	46.6	2.89635E-001	-3.33088E-006	0.00000E+000	2.90013E-001	2.89173E-001	7	...........
	932	46.65	2.79635E-001	-6.94015E-006	0.00000E+000	2.80015E-001	2.79370E-001	7	...........
	933	46.7	2.69635E-001	-1.05611E-005	0.00000E+000	2.70016E-001	2.69166E-001	7	...........
	934	46.75	2.59435E-001	-1.38631E-005	0.00000E+000	2.60017E-001	2.59362E-001	7	...........
	935	46.8	2.49635E-001	-1.73905E-005	0.00000E+000	2.50018E-001	2.49359E-001	7	...........
	936	46.85	2.39435E-001	-2.07242E-005	0.00000E+000	2.40020E-001	2.39355E-001	7	...........
	937	46.9	2.29635E-001	-2.40963E-005	0.00000E+000	2.30021E-001	2.29351E-001	7	...........
	938	46.95	2.19435E-001	-2.75269E-005	0.00000E+000	2.20022E-001	2.19347E-001	7	...........
	939	47	2.09635E-001	-3.08004E-005	0.00000E+000	2.10023E-001	2.09544E-001	7	...........
	940	47.05	1.99435E-001	-3.39704E-005	0.00000E+000	2.00025E-001	1.99340E-001	7	...........
	941	47.1	1.89635E-001	-3.72774E-005	0.00000E+000	1.90026E-001	1.89336E-001	7	...........
	942	47.15	1.79635E-001	-4.08583E-005	0.00000E+000	1.79977E-001	1.79333E-001	7	...........
	943	47.2	1.69635E-001	-4.39164E-005	0.00000E+000	1.69979E-001	1.69329E-001	7	...........
	944	47.25	1.59635E-001	-4.71716E-005	0.00000E+000	1.59980E-001	1.59525E-001	7	...........
	945	47.3	1.49435E-001	-5.03899E-005	0.00000E+000	1.49981E-001	1.49322E-001	8	...........
	946	47.35	1.39635E-001	-5.38791E-005	0.00000E+000	1.39982E-001	1.39318E-001	8	...........
	947	47.4	1.29835E-001	-5.72347E-005	0.00000E+000	1.29984E-001	1.29314E-001	8	...........
	948	47.45	1.19635E-001	-6.02230E-005	0.00000E+000	1.19985E-001	1.19511E-001	8	...........
	949	47.5	1.09635E-001	-6.34952E-005	0.00000E+000	1.09986E-001	1.09307E-001	8	...........
	950	47.55	9.96349E-002	-6.71012E-005	0.00000E+000	9.99874E-002	9.95032E-002	8	...........
	951	47.6	8.96349E-002	-7.00562E-005	0.00000E+000	8.99886E-002	8.94995E-002	8	...........
	952	47.65	7.96349E-002	-7.34786E-005	0.00000E+000	7.99899E-002	7.94958E-002	8	...........
	953	47.7	6.96349E-002	-7.68342E-005	0.00000E+000	6.99912E-002	6.92920E-002	8	...........
	954	47.75	5.98349E-002	-8.04236E-005	0.00000E+000	5.99924E-002	5.94884E-002	8	...........
	955	47.8	4.96349E-002	-8.35288E-005	0.00000E+000	4.99937E-002	4.94847E-002	8	...........
	956	47.85	3.96349E-002	-8.72350E-005	0.00000E+000	3.99949E-002	3.94810E-002	8	...........
	957	47.9	2.96349E-002	-9.04237E-005	0.00000E+000	2.99962E-002	2.94773E-002	8	...........
	958	47.95	1.96349E-002	-9.40298E-005	0.00000E+000	1.99975E-002	1.94736E-002	8	...........
	959	48	9.63488E-003	-9.71350E-005	0.00000E+000	9.99874E-003	9.66997E-003	8	...........
	960	48.05	-3.65120E-004	-1.00774E-004	0.00000E+000	0.00000E+000	-5.33797E-004	8	...........
