EXPLAIN
TAG	CV
TITLE	LABEL	Cyclic Voltammetry	Test Identifier
DATE	LABEL	7-7-2017	Date
TIME	LABEL	16:25:42	Time
NOTES	NOTES	1	Notes...
	2.8mg

PSTAT	PSTAT	IFC5000-01520	Potentiostat
VINIT	POTEN	0.00000E+000	F	Initial E (V)
VLIMIT1	POTEN	-8.00000E-001	F	Scan Limit 1 (V)
VLIMIT2	POTEN	8.00000E-001	F	Scan Limit 2 (V)
VFINAL	POTEN	0.00000E+000	F	Final E (V)
SCANRATE	QUANT	2.50000E+001	A Real Number
STEPSIZE	QUANT	1.00000E+001	Step Size (mV)
CYCLES	IQUANT	3	Cycles (#)
IMODE	SELECTOR	0	I/E Range Mode
IRANGE	QUANT	2.50000E+002	Max Current (mA)
AREA	QUANT	3.84800E-001	A Real Number
EQDELAY	QUANT	1.00000E+000	Equil. Time (s)
IRCOMP	SELECTOR	0	IRComp
PFCOR	QUANT	2.50000E+002	PF Corr. (ohm)
SAMPLINGMODE	SELECTOR	0	Sampling Mode
EOC	QUANT	0	Open Circuit (V)
SEQUENCER	TOGGLE	TRUE	Run as Sequence
PSTATMODEL	IQUANT	53	Pstat Model
PSTATSECTION	LABEL	IFC5000-01520	Pstat Section
PSTATSERIALNO	LABEL	01520	Pstat Serial Number
CTRLMODE	IQUANT	1	Control Mode
ELECTROMETER	IQUANT	0	RE=0 or CS=1
IESTAB	IQUANT	2	I/E Stability
CASPEED	IQUANT	4	Control Amp Speed
CONVENTION	IQUANT	1	Current Convention
ICHRANGE	IQUANT	2	Ich Range
ICHRANGEMODE	TOGGLE	F	Ich Auto Range
ICHOFFSETENABLE	TOGGLE	F	Ich Offset Enable
ICHOFFSET	QUANT	0	Ich Offset (V)
ICHFILTER	IQUANT	3	Ich Filter
VCHRANGE	IQUANT	2	Vch Range
VCHRANGEMODE	TOGGLE	F	Vch Auto Range
VCHOFFSETENABLE	TOGGLE	F	Vch Offset Enable
VCHOFFSET	QUANT	0	Vch Offset (V)
VCHFILTER	IQUANT	3	Vch Filter
IERANGELOWERLIMIT	IQUANT	7	I/E Range Lower Limit
IERANGEMODE	TOGGLE	T	I/E AutoRange
IERANGE	IQUANT	11	I/E Range
ACHSELECT	IQUANT	1	Ach Select
ACHRANGE	IQUANT	2	Ach Range
ACHOFFSETENABLE	TOGGLE	F	Ach Offset Enable
ACHOFFSET	QUANT	0	Ach Offset (V)
ACHFILTER	IQUANT	1	Ach Filter
CABLEID	IQUANT	14	Cable ID
DCCALDATE	LABEL	5-7-2017	DC Calibration Date
ACCALDATE	LABEL	12/3/2015	AC Calibration Date
FRAMEWORKVERSION	QUANT	7.01	Framework Version
INSTRUMENTVERSION	LABEL	4.00	Instrument Version
CURVE1	TABLE
	Pt	T	Vf	Im	Vu	Sig	Ach	IERange	Over
	#	s	V vs. Ref.	A	V	V	V	#	bits
	0	0.4	-3.65120E-004	-1.88640E-004	0.00000E+000	0.00000E+000	-5.33797E-004	11	...........
	1	0.8	-1.03651E-002	-1.42391E-004	0.00000E+000	-9.99874E-003	-1.05375E-002	10	...........
	2	1.2	-2.03651E-002	-1.33581E-004	0.00000E+000	-1.99975E-002	-2.03411E-002	9	...........
	3	1.6	-3.03651E-002	-1.28287E-004	0.00000E+000	-2.99962E-002	-3.03448E-002	8	...........
	4	2	-4.03651E-002	-1.24781E-004	0.00000E+000	-3.99949E-002	-4.05486E-002	8	...........
	5	2.4	-5.03651E-002	-1.21609E-004	0.00000E+000	-4.99937E-002	-5.03522E-002	8	...........
	6	2.8	-6.03651E-002	-1.18871E-004	0.00000E+000	-5.99924E-002	-6.05560E-002	8	...........
	7	3.2	-7.03651E-002	-1.17002E-004	0.00000E+000	-6.99912E-002	-7.03596E-002	8	...........
	8	3.6	-8.03651E-002	-1.15249E-004	0.00000E+000	-7.99899E-002	-8.03633E-002	8	...........
	9	4	-9.01651E-002	-1.14130E-004	0.00000E+000	-8.99886E-002	-9.03670E-002	8	...........
	10	4.4	-1.00165E-001	-1.12578E-004	0.00000E+000	-9.99874E-002	-1.00371E-001	8	...........
	11	4.8	-1.10365E-001	-1.11876E-004	0.00000E+000	-1.09986E-001	-1.10374E-001	8	...........
	12	5.2	-1.20365E-001	-1.11275E-004	0.00000E+000	-1.19985E-001	-1.20378E-001	8	...........
	13	5.6	-1.30365E-001	-1.10758E-004	0.00000E+000	-1.29984E-001	-1.30582E-001	8	...........
	14	6	-1.40165E-001	-1.10023E-004	0.00000E+000	-1.39982E-001	-1.40185E-001	8	...........
	15	6.4	-1.50165E-001	-1.10224E-004	0.00000E+000	-1.49981E-001	-1.50189E-001	8	...........
	16	6.8	-1.60365E-001	-1.10023E-004	0.00000E+000	-1.59980E-001	-1.60393E-001	8	...........
	17	7.2	-1.69965E-001	-1.10307E-004	0.00000E+000	-1.69979E-001	-1.70397E-001	8	...........
	18	7.6	-1.79965E-001	-1.10591E-004	0.00000E+000	-1.79977E-001	-1.80200E-001	8	...........
	19	8	-1.90165E-001	-1.10908E-004	0.00000E+000	-1.89976E-001	-1.90404E-001	8	...........
	20	8.4	-2.00165E-001	-1.10941E-004	0.00000E+000	-2.00025E-001	-2.00408E-001	8	...........
	21	8.8	-2.10365E-001	-1.11292E-004	0.00000E+000	-2.10023E-001	-2.10211E-001	8	...........
	22	9.2	-2.20165E-001	-1.11359E-004	0.00000E+000	-2.20022E-001	-2.20415E-001	8	...........
	23	9.6	-2.29965E-001	-1.12294E-004	0.00000E+000	-2.30021E-001	-2.30219E-001	8	...........
	24	10	-2.40365E-001	-1.12778E-004	0.00000E+000	-2.40020E-001	-2.40222E-001	8	...........
	25	10.4	-2.50165E-001	-1.13362E-004	0.00000E+000	-2.50018E-001	-2.50226E-001	8	...........
	26	10.8	-2.60165E-001	-1.14464E-004	0.00000E+000	-2.60017E-001	-2.60230E-001	8	...........
	27	11.2	-2.70165E-001	-1.14681E-004	0.00000E+000	-2.70016E-001	-2.70233E-001	8	...........
	28	11.6	-2.80165E-001	-1.15282E-004	0.00000E+000	-2.80015E-001	-2.80437E-001	8	...........
	29	12	-2.90165E-001	-1.16000E-004	0.00000E+000	-2.90013E-001	-2.90241E-001	8	...........
	30	12.4	-3.00165E-001	-1.17002E-004	0.00000E+000	-3.00012E-001	-3.00245E-001	8	...........
	31	12.8	-3.10165E-001	-1.18003E-004	0.00000E+000	-3.10011E-001	-3.10248E-001	8	...........
	32	13.2	-3.19965E-001	-1.18871E-004	0.00000E+000	-3.20010E-001	-3.20252E-001	8	...........
	33	13.6	-3.30165E-001	-1.19489E-004	0.00000E+000	-3.30008E-001	-3.30256E-001	8	...........
	34	14	-3.39965E-001	-1.21042E-004	0.00000E+000	-3.40007E-001	-3.40059E-001	8	...........
	35	14.4	-3.50365E-001	-1.22110E-004	0.00000E+000	-3.50006E-001	-3.50263E-001	8	...........
	36	14.8	-3.59965E-001	-1.22912E-004	0.00000E+000	-3.60005E-001	-3.60267E-001	8	...........
	37	15.2	-3.69965E-001	-1.23913E-004	0.00000E+000	-3.70003E-001	-3.70270E-001	8	...........
	38	15.6	-3.79965E-001	-1.25232E-004	0.00000E+000	-3.80002E-001	-3.80074E-001	8	...........
	39	16	-3.90165E-001	-1.26568E-004	0.00000E+000	-3.90001E-001	-3.90078E-001	8	...........
	40	16.4	-4.00165E-001	-1.27803E-004	0.00000E+000	-3.99999E-001	-4.00282E-001	8	...........
	41	16.8	-4.09965E-001	-1.28738E-004	0.00000E+000	-4.09998E-001	-4.10285E-001	8	...........
	42	17.2	-4.19965E-001	-1.29473E-004	0.00000E+000	-4.19997E-001	-4.20089E-001	8	...........
	43	17.6	-4.30165E-001	-1.31476E-004	0.00000E+000	-4.29996E-001	-4.30093E-001	8	...........
	44	18	-4.39965E-001	-1.32811E-004	0.00000E+000	-4.39994E-001	-4.40096E-001	8	...........
	45	18.4	-4.50165E-001	-1.34197E-004	0.00000E+000	-4.49993E-001	-4.50100E-001	8	...........
	46	18.8	-4.59965E-001	-1.35867E-004	0.00000E+000	-4.59992E-001	-4.60304E-001	8	...........
	47	19.2	-4.69965E-001	-1.37369E-004	0.00000E+000	-4.69991E-001	-4.69907E-001	8	...........
	48	19.6	-4.79965E-001	-1.39222E-004	0.00000E+000	-4.79989E-001	-4.80111E-001	8	...........
	49	20	-4.89965E-001	-1.40775E-004	0.00000E+000	-4.89988E-001	-4.90115E-001	8	...........
	50	20.4	-5.00165E-001	-1.42428E-004	0.00000E+000	-4.99987E-001	-5.00118E-001	8	...........
	51	20.8	-5.09965E-001	-1.44548E-004	0.00000E+000	-5.09986E-001	-5.09922E-001	8	...........
	52	21.2	-5.20165E-001	-1.45950E-004	0.00000E+000	-5.19984E-001	-5.20126E-001	8	...........
	53	21.6	-5.29965E-001	-1.47686E-004	0.00000E+000	-5.29983E-001	-5.29930E-001	8	...........
	54	22	-5.39965E-001	-1.50090E-004	0.00000E+000	-5.39982E-001	-5.39933E-001	8	...........
	55	22.4	-5.49965E-001	-1.52161E-004	0.00000E+000	-5.49981E-001	-5.49937E-001	8	...........
	56	22.8	-5.59765E-001	-1.53747E-004	0.00000E+000	-5.59979E-001	-5.59941E-001	8	...........
	57	23.2	-5.69965E-001	-1.56217E-004	0.00000E+000	-5.69978E-001	-5.69944E-001	8	...........
	58	23.6	-5.79965E-001	-1.58354E-004	0.00000E+000	-5.79977E-001	-5.79948E-001	8	...........
	59	24	-5.89965E-001	-1.60825E-004	0.00000E+000	-5.89975E-001	-5.89952E-001	8	...........
	60	24.4	-6.00165E-001	-1.63346E-004	0.00000E+000	-6.00024E-001	-5.99955E-001	8	...........
	61	24.8	-6.09765E-001	-1.65717E-004	0.00000E+000	-6.10023E-001	-6.09959E-001	8	...........
	62	25.2	-6.19965E-001	-1.68455E-004	0.00000E+000	-6.20022E-001	-6.20163E-001	8	...........
	63	25.6	-6.29965E-001	-1.71243E-004	0.00000E+000	-6.30020E-001	-6.29966E-001	8	...........
	64	26	-6.39765E-001	-1.74198E-004	0.00000E+000	-6.40019E-001	-6.39970E-001	8	...........
	65	26.4	-6.49965E-001	-1.77036E-004	0.00000E+000	-6.50018E-001	-6.49774E-001	8	...........
	66	26.8	-6.59965E-001	-1.80291E-004	0.00000E+000	-6.60017E-001	-6.59978E-001	8	...........
	67	27.2	-6.69965E-001	-1.83580E-004	0.00000E+000	-6.70015E-001	-6.69981E-001	8	...........
	68	27.6	-6.79765E-001	-1.87303E-004	0.00000E+000	-6.80014E-001	-6.79985E-001	8	...........
	69	28	-6.89965E-001	-1.91343E-004	0.00000E+000	-6.90013E-001	-6.90189E-001	8	...........
	70	28.4	-6.99765E-001	-1.95366E-004	0.00000E+000	-7.00012E-001	-6.99792E-001	8	...........
	71	28.8	-7.09765E-001	-1.98922E-004	0.00000E+000	-7.10010E-001	-7.10196E-001	8	...........
	72	29.2	-7.19765E-001	-2.03463E-004	0.00000E+000	-7.20009E-001	-7.19600E-001	8	...........
	73	29.6	-7.29765E-001	-2.07988E-004	0.00000E+000	-7.30008E-001	-7.30003E-001	8	...........
	74	30	-7.39965E-001	-2.12929E-004	0.00000E+000	-7.40007E-001	-7.39807E-001	8	...........
	75	30.4	-7.49765E-001	-2.18071E-004	0.00000E+000	-7.50005E-001	-7.49811E-001	8	...........
	76	30.8	-7.59765E-001	-2.23447E-004	0.00000E+000	-7.60004E-001	-7.60015E-001	8	...........
	77	31.2	-7.69765E-001	-2.28672E-004	0.00000E+000	-7.70003E-001	-7.70018E-001	8	...........
	78	31.6	-7.79765E-001	-2.34515E-004	0.00000E+000	-7.80001E-001	-7.79822E-001	8	...........
	79	32	-7.89765E-001	-2.40359E-004	0.00000E+000	-7.90000E-001	-7.89825E-001	8	...........
	80	32.4	-7.99965E-001	-2.46686E-004	0.00000E+000	-7.99999E-001	-7.99829E-001	8	...........
	81	32.8	-7.89765E-001	-2.26919E-004	0.00000E+000	-7.90000E-001	-7.89825E-001	8	...........
	82	33.2	-7.79765E-001	-2.10058E-004	0.00000E+000	-7.80001E-001	-7.79822E-001	8	...........
	83	33.6	-7.69765E-001	-1.94799E-004	0.00000E+000	-7.70003E-001	-7.69818E-001	8	...........
	84	34	-7.59765E-001	-1.80942E-004	0.00000E+000	-7.60004E-001	-7.59614E-001	8	...........
	85	34.4	-7.49965E-001	-1.69122E-004	0.00000E+000	-7.50005E-001	-7.49811E-001	8	...........
	86	34.8	-7.39765E-001	-1.56969E-004	0.00000E+000	-7.40007E-001	-7.39807E-001	8	...........
	87	35.2	-7.29965E-001	-1.46284E-004	0.00000E+000	-7.30008E-001	-7.29803E-001	8	...........
	88	35.6	-7.19765E-001	-1.36217E-004	0.00000E+000	-7.20009E-001	-7.19800E-001	8	...........
	89	36	-7.09765E-001	-1.27452E-004	0.00000E+000	-7.10010E-001	-7.09996E-001	8	...........
	90	36.4	-6.99965E-001	-1.18638E-004	0.00000E+000	-7.00012E-001	-6.99792E-001	8	...........
	91	36.8	-6.89965E-001	-1.10240E-004	0.00000E+000	-6.90013E-001	-6.90189E-001	8	...........
	92	37.2	-6.80165E-001	-1.03045E-004	0.00000E+000	-6.80014E-001	-6.79985E-001	8	...........
	93	37.6	-6.69765E-001	-9.61166E-005	0.00000E+000	-6.70015E-001	-6.70181E-001	8	...........
	94	38	-6.59765E-001	-8.94554E-005	0.00000E+000	-6.60017E-001	-6.59777E-001	8	...........
	95	38.4	-6.49965E-001	-8.28610E-005	0.00000E+000	-6.50018E-001	-6.49974E-001	8	...........
	96	38.8	-6.39765E-001	-7.69845E-005	0.00000E+000	-6.40019E-001	-6.39770E-001	8	...........
	97	39.2	-6.29965E-001	-7.13417E-005	0.00000E+000	-6.30020E-001	-6.29966E-001	8	...........
	98	39.6	-6.19965E-001	-6.61497E-005	0.00000E+000	-6.20022E-001	-6.19963E-001	8	...........
	99	40	-6.09965E-001	-6.07239E-005	0.00000E+000	-6.10023E-001	-6.09959E-001	8	...........
	100	40.4	-5.99965E-001	-5.59659E-005	0.00000E+000	-6.00024E-001	-5.99755E-001	8	...........
	101	40.8	-5.89765E-001	-5.15919E-005	0.00000E+000	-5.89975E-001	-5.89952E-001	8	...........
	102	41.2	-5.79965E-001	-4.73181E-005	0.00000E+000	-5.79977E-001	-5.79948E-001	8	...........
	103	41.6	-5.69765E-001	-4.29941E-005	0.00000E+000	-5.69978E-001	-5.69944E-001	8	...........
	104	42	-5.59965E-001	-3.92545E-005	0.00000E+000	-5.59979E-001	-5.59941E-001	8	...........
	105	42.4	-5.49765E-001	-3.52765E-005	0.00000E+000	-5.49981E-001	-5.49937E-001	7	...........
	106	42.8	-5.39965E-001	-3.16890E-005	0.00000E+000	-5.39982E-001	-5.39933E-001	7	...........
	107	43.2	-5.29765E-001	-2.81482E-005	0.00000E+000	-5.29983E-001	-5.29930E-001	7	...........
	108	43.6	-5.20165E-001	-2.49498E-005	0.00000E+000	-5.19984E-001	-5.20126E-001	7	...........
	109	44	-5.09765E-001	-2.15359E-005	0.00000E+000	-5.09986E-001	-5.09922E-001	7	...........
	110	44.4	-4.99965E-001	-1.83776E-005	0.00000E+000	-4.99987E-001	-5.00118E-001	7	...........
	111	44.8	-4.89965E-001	-1.54698E-005	0.00000E+000	-4.89988E-001	-4.90115E-001	7	...........
	112	45.2	-4.79965E-001	-1.25069E-005	0.00000E+000	-4.79989E-001	-4.80111E-001	7	...........
	113	45.6	-4.69965E-001	-9.87467E-006	0.00000E+000	-4.69991E-001	-4.70307E-001	7	...........
	114	46	-4.59965E-001	-7.23745E-006	0.00000E+000	-4.59992E-001	-4.60104E-001	7	...........
	115	46.4	-4.49965E-001	-4.53843E-006	0.00000E+000	-4.49993E-001	-4.50100E-001	7	...........
	116	46.8	-4.39965E-001	-1.78095E-006	0.00000E+000	-4.39994E-001	-4.40096E-001	7	...........
	117	47.2	-4.29765E-001	3.46863E-007	0.00000E+000	-4.29996E-001	-4.30093E-001	7	...........
	118	47.6	-4.19965E-001	2.80371E-006	0.00000E+000	-4.19997E-001	-4.20089E-001	7	...........
	119	48	-4.09965E-001	5.09520E-006	0.00000E+000	-4.09998E-001	-4.10085E-001	7	...........
	120	48.4	-3.99965E-001	7.39671E-006	0.00000E+000	-3.99999E-001	-3.99881E-001	7	...........
	121	48.8	-3.90165E-001	9.79343E-006	0.00000E+000	-3.90001E-001	-3.90078E-001	7	...........
	122	49.2	-3.80165E-001	1.18528E-005	0.00000E+000	-3.80002E-001	-3.80074E-001	7	...........
	123	49.6	-3.70165E-001	1.38787E-005	0.00000E+000	-3.70003E-001	-3.70070E-001	7	...........
	124	50	-3.60165E-001	1.60215E-005	0.00000E+000	-3.60005E-001	-3.60267E-001	7	...........
	125	50.4	-3.49965E-001	1.82880E-005	0.00000E+000	-3.50006E-001	-3.50063E-001	7	...........
	126	50.8	-3.40165E-001	2.00701E-005	0.00000E+000	-3.40007E-001	-3.40059E-001	7	...........
	127	51.2	-3.30165E-001	2.18305E-005	0.00000E+000	-3.30008E-001	-3.30256E-001	7	...........
	128	51.6	-3.20165E-001	2.37846E-005	0.00000E+000	-3.20010E-001	-3.20252E-001	7	...........
	129	52	-3.09965E-001	2.56418E-005	0.00000E+000	-3.10011E-001	-3.10048E-001	7	...........
	130	52.4	-3.00165E-001	2.74924E-005	0.00000E+000	-3.00012E-001	-3.00245E-001	7	...........
	131	52.8	-2.90165E-001	2.93062E-005	0.00000E+000	-2.90013E-001	-2.90241E-001	7	...........
	132	53.2	-2.79965E-001	3.09029E-005	0.00000E+000	-2.80015E-001	-2.80037E-001	7	...........
	133	53.6	-2.70365E-001	3.26482E-005	0.00000E+000	-2.70016E-001	-2.70233E-001	7	...........
	134	54	-2.60165E-001	3.43418E-005	0.00000E+000	-2.60017E-001	-2.60230E-001	7	...........
	135	54.4	-2.50165E-001	3.61155E-005	0.00000E+000	-2.50018E-001	-2.50026E-001	7	...........
	136	54.8	-2.40365E-001	3.75001E-005	0.00000E+000	-2.40020E-001	-2.40422E-001	7	...........
	137	55.2	-2.30165E-001	3.92572E-005	0.00000E+000	-2.30021E-001	-2.30219E-001	7	...........
	138	55.6	-2.20165E-001	4.07236E-005	0.00000E+000	-2.20022E-001	-2.20415E-001	7	...........
	139	56	-2.10365E-001	4.23904E-005	0.00000E+000	-2.10023E-001	-2.10411E-001	7	...........
	140	56.4	-2.00165E-001	4.35930E-005	0.00000E+000	-2.00025E-001	-2.00208E-001	7	...........
	141	56.8	-1.90165E-001	4.51947E-005	0.00000E+000	-1.89976E-001	-1.90404E-001	7	...........
	142	57.2	-1.80165E-001	4.65394E-005	0.00000E+000	-1.79977E-001	-1.80400E-001	8	...........
	143	57.6	-1.70365E-001	4.80586E-005	0.00000E+000	-1.69979E-001	-1.70197E-001	8	...........
	144	58	-1.60165E-001	4.91939E-005	0.00000E+000	-1.59980E-001	-1.60393E-001	8	...........
	145	58.4	-1.50365E-001	5.07965E-005	0.00000E+000	-1.49981E-001	-1.50189E-001	8	...........
	146	58.8	-1.40165E-001	5.24159E-005	0.00000E+000	-1.39982E-001	-1.40185E-001	8	...........
	147	59.2	-1.30365E-001	5.37181E-005	0.00000E+000	-1.29984E-001	-1.30382E-001	8	...........
	148	59.6	-1.20165E-001	5.46697E-005	0.00000E+000	-1.19985E-001	-1.20378E-001	8	...........
	149	60	-1.10165E-001	5.59552E-005	0.00000E+000	-1.09986E-001	-1.10374E-001	8	...........
	150	60.4	-1.00165E-001	5.71405E-005	0.00000E+000	-9.99874E-002	-1.00371E-001	8	...........
	151	60.8	-9.01651E-002	5.87766E-005	0.00000E+000	-8.99886E-002	-9.03670E-002	8	...........
	152	61.2	-8.03651E-002	6.00120E-005	0.00000E+000	-7.99899E-002	-8.01632E-002	8	...........
	153	61.6	-7.01651E-002	6.08634E-005	0.00000E+000	-6.99912E-002	-7.03596E-002	8	...........
	154	62	-6.03651E-002	6.21990E-005	0.00000E+000	-5.99924E-002	-6.03559E-002	8	...........
	155	62.4	-5.01651E-002	6.33009E-005	0.00000E+000	-4.99937E-002	-5.03522E-002	8	...........
	156	62.8	-4.01651E-002	6.44528E-005	0.00000E+000	-3.99949E-002	-4.03485E-002	8	...........
	157	63.2	-3.01651E-002	6.57216E-005	0.00000E+000	-2.99962E-002	-3.05449E-002	8	...........
	158	63.6	-2.03651E-002	6.71907E-005	0.00000E+000	-1.99975E-002	-2.03411E-002	8	...........
	159	64	-1.01651E-002	6.81256E-005	0.00000E+000	-9.99874E-003	-1.01373E-002	8	...........
	160	64.4	-3.65120E-004	6.90605E-005	0.00000E+000	0.00000E+000	-5.33797E-004	8	...........
	161	64.8	9.63488E-003	7.00622E-005	0.00000E+000	9.99874E-003	9.66997E-003	8	...........
	162	65.2	1.96349E-002	7.16649E-005	0.00000E+000	1.99975E-002	1.94736E-002	8	...........
	163	65.6	2.96349E-002	7.20322E-005	0.00000E+000	2.99962E-002	2.96774E-002	8	...........
	164	66	3.96349E-002	7.32342E-005	0.00000E+000	3.99949E-002	3.94810E-002	8	...........
	165	66.4	4.96349E-002	7.43861E-005	0.00000E+000	4.99937E-002	4.94847E-002	8	...........
	166	66.8	5.98349E-002	7.54880E-005	0.00000E+000	5.99924E-002	5.94884E-002	8	...........
	167	67.2	6.96349E-002	7.67568E-005	0.00000E+000	6.99912E-002	6.92920E-002	8	...........
	168	67.6	7.96349E-002	7.76249E-005	0.00000E+000	7.99899E-002	7.92957E-002	8	...........
	169	68	8.96349E-002	7.84262E-005	0.00000E+000	8.99886E-002	8.94995E-002	8	...........
	170	68.4	9.96349E-002	7.94279E-005	0.00000E+000	9.99874E-002	9.93031E-002	8	...........
	171	68.8	1.09635E-001	8.00456E-005	0.00000E+000	1.09986E-001	1.09507E-001	8	...........
	172	69.2	1.19435E-001	8.14814E-005	0.00000E+000	1.19985E-001	1.19310E-001	8	...........
	173	69.6	1.29635E-001	8.22994E-005	0.00000E+000	1.29984E-001	1.29514E-001	8	...........
	174	70	1.39635E-001	8.33011E-005	0.00000E+000	1.39982E-001	1.39318E-001	8	...........
	175	70.4	1.49435E-001	8.43361E-005	0.00000E+000	1.49981E-001	1.49522E-001	8	...........
	176	70.8	1.59635E-001	8.46533E-005	0.00000E+000	1.59980E-001	1.59525E-001	8	...........
	177	71.2	1.69835E-001	8.59221E-005	0.00000E+000	1.69979E-001	1.69529E-001	8	...........
	178	71.6	1.79635E-001	8.64397E-005	0.00000E+000	1.79977E-001	1.79333E-001	8	...........
	179	72	1.89635E-001	8.77586E-005	0.00000E+000	1.89976E-001	1.89336E-001	8	...........
	180	72.4	1.99635E-001	8.81091E-005	0.00000E+000	2.00025E-001	1.99340E-001	8	...........
	181	72.8	2.09635E-001	8.91442E-005	0.00000E+000	2.10023E-001	2.09344E-001	8	...........
	182	73.2	2.19635E-001	8.97953E-005	0.00000E+000	2.20022E-001	2.19347E-001	8	...........
	183	73.6	2.29435E-001	9.10808E-005	0.00000E+000	2.30021E-001	2.29351E-001	8	...........
	184	74	2.39635E-001	9.15482E-005	0.00000E+000	2.40020E-001	2.39355E-001	8	...........
	185	74.4	2.49635E-001	9.22494E-005	0.00000E+000	2.50018E-001	2.49359E-001	8	...........
	186	74.8	2.59635E-001	9.29339E-005	0.00000E+000	2.60017E-001	2.59162E-001	8	...........
	187	75.2	2.69635E-001	9.37853E-005	0.00000E+000	2.70016E-001	2.69366E-001	8	...........
	188	75.6	2.79635E-001	9.42528E-005	0.00000E+000	2.80015E-001	2.79170E-001	8	...........
	189	76	2.89435E-001	9.52044E-005	0.00000E+000	2.90013E-001	2.89373E-001	8	...........
	190	76.4	2.99435E-001	9.57052E-005	0.00000E+000	3.00012E-001	2.99177E-001	8	...........
	191	76.8	3.09435E-001	9.59556E-005	0.00000E+000	3.10011E-001	3.09181E-001	8	...........
	192	77.2	3.19435E-001	9.70408E-005	0.00000E+000	3.20010E-001	3.19184E-001	8	...........
	193	77.6	3.29435E-001	9.75750E-005	0.00000E+000	3.30008E-001	3.29388E-001	8	...........
	194	78	3.39635E-001	9.81927E-005	0.00000E+000	3.40007E-001	3.39192E-001	8	...........
	195	78.4	3.49435E-001	9.88104E-005	0.00000E+000	3.50006E-001	3.49396E-001	8	...........
	196	78.8	3.59435E-001	9.91109E-005	0.00000E+000	3.60005E-001	3.59399E-001	8	...........
	197	79.2	3.69635E-001	1.00129E-004	0.00000E+000	3.70003E-001	3.69203E-001	8	...........
	198	79.6	3.79435E-001	1.00814E-004	0.00000E+000	3.80002E-001	3.79207E-001	8	...........
	199	80	3.89435E-001	1.01248E-004	0.00000E+000	3.90001E-001	3.89210E-001	8	...........
	200	80.4	3.99235E-001	1.01815E-004	0.00000E+000	3.99999E-001	3.99214E-001	8	...........
	201	80.8	4.09435E-001	1.02283E-004	0.00000E+000	4.09998E-001	4.09218E-001	8	...........
	202	81.2	4.19435E-001	1.02700E-004	0.00000E+000	4.19997E-001	4.19221E-001	8	...........
	203	81.6	4.29435E-001	1.03351E-004	0.00000E+000	4.29996E-001	4.29025E-001	8	...........
	204	82	4.39435E-001	1.03618E-004	0.00000E+000	4.39994E-001	4.39029E-001	8	...........
	205	82.4	4.49435E-001	1.04353E-004	0.00000E+000	4.49993E-001	4.49232E-001	8	...........
	206	82.8	4.59435E-001	1.04620E-004	0.00000E+000	4.59992E-001	4.59236E-001	8	...........
	207	83.2	4.69435E-001	1.05154E-004	0.00000E+000	4.69991E-001	4.69240E-001	8	...........
	208	83.6	4.79435E-001	1.05739E-004	0.00000E+000	4.79989E-001	4.79244E-001	8	...........
	209	84	4.89435E-001	1.06440E-004	0.00000E+000	4.89988E-001	4.89047E-001	8	...........
	210	84.4	4.99435E-001	1.06557E-004	0.00000E+000	4.99987E-001	4.99051E-001	8	...........
	211	84.8	5.09235E-001	1.06740E-004	0.00000E+000	5.09986E-001	5.08855E-001	8	...........
	212	85.2	5.19235E-001	1.07191E-004	0.00000E+000	5.19984E-001	5.19058E-001	8	...........
	213	85.6	5.29435E-001	1.07959E-004	0.00000E+000	5.29983E-001	5.29062E-001	8	...........
	214	86	5.39435E-001	1.08226E-004	0.00000E+000	5.39982E-001	5.39066E-001	8	...........
	215	86.4	5.49435E-001	1.08744E-004	0.00000E+000	5.49981E-001	5.49069E-001	8	...........
	216	86.8	5.59235E-001	1.09345E-004	0.00000E+000	5.59979E-001	5.59073E-001	8	...........
	217	87.2	5.69235E-001	1.09528E-004	0.00000E+000	5.69978E-001	5.69077E-001	8	...........
	218	87.6	5.79035E-001	1.10747E-004	0.00000E+000	5.79977E-001	5.79080E-001	8	...........
	219	88	5.89235E-001	1.10781E-004	0.00000E+000	5.89975E-001	5.89084E-001	8	...........
	220	88.4	5.99235E-001	1.11215E-004	0.00000E+000	6.00024E-001	5.99088E-001	8	...........
	221	88.8	6.09435E-001	1.11398E-004	0.00000E+000	6.10023E-001	6.09092E-001	8	...........
	222	89.2	6.19235E-001	1.12500E-004	0.00000E+000	6.20022E-001	6.19095E-001	8	...........
	223	89.6	6.29235E-001	1.13134E-004	0.00000E+000	6.30020E-001	6.29299E-001	8	...........
	224	90	6.39235E-001	1.13485E-004	0.00000E+000	6.40019E-001	6.39103E-001	8	...........
	225	90.4	6.49235E-001	1.14320E-004	0.00000E+000	6.50018E-001	6.49106E-001	8	...........
	226	90.8	6.59435E-001	1.15121E-004	0.00000E+000	6.60017E-001	6.59310E-001	8	...........
	227	91.2	6.69235E-001	1.15622E-004	0.00000E+000	6.70015E-001	6.69114E-001	8	...........
	228	91.6	6.79435E-001	1.15939E-004	0.00000E+000	6.80014E-001	6.78917E-001	8	...........
	229	92	6.89235E-001	1.16841E-004	0.00000E+000	6.90013E-001	6.89121E-001	8	...........
	230	92.4	6.99235E-001	1.17492E-004	0.00000E+000	7.00012E-001	6.99125E-001	8	...........
	231	92.8	7.09235E-001	1.18577E-004	0.00000E+000	7.10010E-001	7.08928E-001	8	...........
	232	93.2	7.19435E-001	1.19178E-004	0.00000E+000	7.20009E-001	7.19132E-001	8	...........
	233	93.6	7.29235E-001	1.20046E-004	0.00000E+000	7.30008E-001	7.29136E-001	8	...........
	234	94	7.39235E-001	1.21048E-004	0.00000E+000	7.40007E-001	7.38940E-001	8	...........
	235	94.4	7.49435E-001	1.22099E-004	0.00000E+000	7.50005E-001	7.48943E-001	8	...........
	236	94.8	7.59235E-001	1.22918E-004	0.00000E+000	7.60004E-001	7.58947E-001	8	...........
	237	95.2	7.69035E-001	1.24303E-004	0.00000E+000	7.70003E-001	7.68951E-001	8	...........
	238	95.6	7.79235E-001	1.24921E-004	0.00000E+000	7.80001E-001	7.78954E-001	8	...........
	239	96	7.89235E-001	1.26290E-004	0.00000E+000	7.90000E-001	7.88958E-001	8	...........
	240	96.4	7.99235E-001	1.27542E-004	0.00000E+000	7.99999E-001	7.99162E-001	8	...........
CURVE2	TABLE
	Pt	T	Vf	Im	Vu	Sig	Ach	IERange	Over
	#	s	V vs. Ref.	A	V	V	V	#	bits
	241	96.8	7.89035E-001	1.15705E-004	0.00000E+000	7.90000E-001	7.88958E-001	8	...........
	242	97.2	7.79235E-001	1.04921E-004	0.00000E+000	7.80001E-001	7.78954E-001	8	...........
	243	97.6	7.69035E-001	9.61560E-005	0.00000E+000	7.70003E-001	7.68951E-001	8	...........
	244	98	7.59035E-001	8.80758E-005	0.00000E+000	7.60004E-001	7.59147E-001	8	...........
	245	98.4	7.49235E-001	8.06132E-005	0.00000E+000	7.50005E-001	7.48943E-001	8	...........
	246	98.8	7.39235E-001	7.40856E-005	0.00000E+000	7.40007E-001	7.39140E-001	8	...........
	247	99.2	7.29235E-001	6.80922E-005	0.00000E+000	7.30008E-001	7.29136E-001	8	...........
	248	99.6	7.19235E-001	6.24661E-005	0.00000E+000	7.20009E-001	7.18932E-001	8	...........
	249	100	7.09235E-001	5.73242E-005	0.00000E+000	7.10010E-001	7.09129E-001	8	...........
	250	100.4	6.99235E-001	5.21321E-005	0.00000E+000	7.00012E-001	6.99125E-001	8	...........
	251	100.8	6.89035E-001	4.75912E-005	0.00000E+000	6.90013E-001	6.88921E-001	8	...........
	252	101.2	6.79235E-001	4.30001E-005	0.00000E+000	6.80014E-001	6.79117E-001	8	...........
	253	101.6	6.69235E-001	3.86261E-005	0.00000E+000	6.70015E-001	6.69114E-001	8	...........
	254	102	6.59435E-001	3.42433E-005	0.00000E+000	6.60017E-001	6.59110E-001	7	...........
	255	102.4	6.49435E-001	3.11467E-005	0.00000E+000	6.50018E-001	6.49106E-001	7	...........
	256	102.8	6.39435E-001	2.74139E-005	0.00000E+000	6.40019E-001	6.38903E-001	7	...........
	257	103.2	6.29435E-001	2.39733E-005	0.00000E+000	6.30020E-001	6.28899E-001	7	...........
	258	103.6	6.19035E-001	2.05077E-005	0.00000E+000	6.20022E-001	6.19295E-001	7	...........
	259	104	6.09235E-001	1.77970E-005	0.00000E+000	6.10023E-001	6.08891E-001	7	...........
	260	104.4	5.99235E-001	1.49326E-005	0.00000E+000	6.00024E-001	5.99088E-001	7	...........
	261	104.8	5.89435E-001	1.18828E-005	0.00000E+000	5.89975E-001	5.89084E-001	7	...........
	262	105.2	5.79235E-001	9.19049E-006	0.00000E+000	5.79977E-001	5.79080E-001	7	...........
	263	105.6	5.69235E-001	6.82217E-006	0.00000E+000	5.69978E-001	5.69077E-001	7	...........
	264	106	5.59235E-001	4.25343E-006	0.00000E+000	5.59979E-001	5.59073E-001	7	...........
	265	106.4	5.49235E-001	1.99367E-006	0.00000E+000	5.49981E-001	5.49069E-001	7	...........
	266	106.8	5.39435E-001	-3.54614E-007	0.00000E+000	5.39982E-001	5.39266E-001	7	...........
	267	107.2	5.29435E-001	-2.60268E-006	0.00000E+000	5.29983E-001	5.29062E-001	7	...........
	268	107.6	5.19435E-001	-4.57016E-006	0.00000E+000	5.19984E-001	5.19058E-001	7	...........
	269	108	5.09435E-001	-6.65288E-006	0.00000E+000	5.09986E-001	5.09255E-001	7	...........
	270	108.4	4.99235E-001	-8.58696E-006	0.00000E+000	4.99987E-001	4.99051E-001	7	...........
	271	108.8	4.89235E-001	-1.03006E-005	0.00000E+000	4.89988E-001	4.89247E-001	7	...........
	272	109.2	4.79435E-001	-1.20309E-005	0.00000E+000	4.79989E-001	4.79244E-001	7	...........
	273	109.6	4.69435E-001	-1.39783E-005	0.00000E+000	4.69991E-001	4.69240E-001	7	...........
	274	110	4.59435E-001	-1.56335E-005	0.00000E+000	4.59992E-001	4.59236E-001	7	...........
	275	110.4	4.49435E-001	-1.72252E-005	0.00000E+000	4.49993E-001	4.49032E-001	7	...........
	276	110.8	4.39435E-001	-1.88636E-005	0.00000E+000	4.39994E-001	4.39429E-001	7	...........
	277	111.2	4.29435E-001	-2.04503E-005	0.00000E+000	4.29996E-001	4.29225E-001	7	...........
	278	111.6	4.19435E-001	-2.19651E-005	0.00000E+000	4.19997E-001	4.19421E-001	7	...........
	279	112	4.09435E-001	-2.31944E-005	0.00000E+000	4.09998E-001	4.09218E-001	7	...........
	280	112.4	3.99435E-001	-2.47694E-005	0.00000E+000	3.99999E-001	3.99214E-001	7	...........
	281	112.8	3.89435E-001	-2.61840E-005	0.00000E+000	3.90001E-001	3.89210E-001	7	...........
	282	113.2	3.79435E-001	-2.74584E-005	0.00000E+000	3.80002E-001	3.79207E-001	7	...........
	283	113.6	3.69435E-001	-2.87645E-005	0.00000E+000	3.70003E-001	3.69203E-001	7	...........
	284	114	3.59435E-001	-3.01106E-005	0.00000E+000	3.60005E-001	3.59399E-001	7	...........
	285	114.4	3.49635E-001	-3.15553E-005	0.00000E+000	3.50006E-001	3.49396E-001	7	...........
	286	114.8	3.39635E-001	-3.24639E-005	0.00000E+000	3.40007E-001	3.39192E-001	7	...........
	287	115.2	3.29235E-001	-3.37466E-005	0.00000E+000	3.30008E-001	3.29188E-001	7	...........
	288	115.6	3.19435E-001	-3.48372E-005	0.00000E+000	3.20010E-001	3.19384E-001	7	...........
	289	116	3.09435E-001	-3.63387E-005	0.00000E+000	3.10011E-001	3.09381E-001	7	...........
	290	116.4	2.99635E-001	-3.73225E-005	0.00000E+000	3.00012E-001	2.99377E-001	7	...........
	291	116.8	2.89635E-001	-3.85701E-005	0.00000E+000	2.90013E-001	2.89373E-001	7	...........
	292	117.2	2.79435E-001	-3.96591E-005	0.00000E+000	2.80015E-001	2.79370E-001	7	...........
	293	117.6	2.69635E-001	-4.06712E-005	0.00000E+000	2.70016E-001	2.69366E-001	7	...........
	294	118	2.59635E-001	-4.19489E-005	0.00000E+000	2.60017E-001	2.59362E-001	7	...........
	295	118.4	2.49635E-001	-4.29243E-005	0.00000E+000	2.50018E-001	2.49359E-001	7	...........
	296	118.8	2.39635E-001	-4.42604E-005	0.00000E+000	2.40020E-001	2.39555E-001	7	...........
	297	119.2	2.29635E-001	-4.52993E-005	0.00000E+000	2.30021E-001	2.29351E-001	7	...........
	298	119.6	2.19635E-001	-4.63331E-005	0.00000E+000	2.20022E-001	2.19347E-001	8	...........
	299	120	2.09635E-001	-4.73347E-005	0.00000E+000	2.10023E-001	2.09544E-001	8	...........
	300	120.4	1.99635E-001	-4.83364E-005	0.00000E+000	2.00025E-001	1.99540E-001	8	...........
	301	120.8	1.89635E-001	-4.95885E-005	0.00000E+000	1.89976E-001	1.89336E-001	8	...........
	302	121.2	1.79635E-001	-5.04734E-005	0.00000E+000	1.79977E-001	1.79333E-001	8	...........
	303	121.6	1.69635E-001	-5.11411E-005	0.00000E+000	1.69979E-001	1.69329E-001	8	...........
	304	122	1.59635E-001	-5.28941E-005	0.00000E+000	1.59980E-001	1.59525E-001	8	...........
	305	122.4	1.49435E-001	-5.35952E-005	0.00000E+000	1.49981E-001	1.49322E-001	8	...........
	306	122.8	1.39635E-001	-5.45301E-005	0.00000E+000	1.39982E-001	1.39518E-001	8	...........
	307	123.2	1.29435E-001	-5.55151E-005	0.00000E+000	1.29984E-001	1.29314E-001	8	...........
	308	123.6	1.19635E-001	-5.66170E-005	0.00000E+000	1.19985E-001	1.19310E-001	8	...........
	309	124	1.09635E-001	-5.74684E-005	0.00000E+000	1.09986E-001	1.09507E-001	8	...........
	310	124.4	9.96349E-002	-5.84033E-005	0.00000E+000	9.99874E-002	9.95032E-002	8	...........
	311	124.8	8.96349E-002	-5.92714E-005	0.00000E+000	8.99886E-002	8.92994E-002	8	...........
	312	125.2	7.96349E-002	-6.07072E-005	0.00000E+000	7.99899E-002	7.94958E-002	8	...........
	313	125.6	6.96349E-002	-6.14751E-005	0.00000E+000	6.99912E-002	6.94921E-002	8	...........
	314	126	5.98349E-002	-6.23266E-005	0.00000E+000	5.99924E-002	5.96885E-002	8	...........
	315	126.4	4.96349E-002	-6.34618E-005	0.00000E+000	4.99937E-002	4.96848E-002	8	...........
	316	126.8	3.98349E-002	-6.44802E-005	0.00000E+000	3.99949E-002	3.94810E-002	8	...........
	317	127.2	2.98349E-002	-6.52815E-005	0.00000E+000	2.99962E-002	2.96774E-002	8	...........
	318	127.6	1.96349E-002	-6.62999E-005	0.00000E+000	1.99975E-002	1.94736E-002	8	...........
	319	128	9.83488E-003	-6.73350E-005	0.00000E+000	9.99874E-003	9.66997E-003	8	...........
	320	128.4	-3.65120E-004	-6.84201E-005	0.00000E+000	0.00000E+000	-5.33797E-004	8	...........
	321	128.8	-1.01651E-002	-6.94218E-005	0.00000E+000	-9.99874E-003	-1.03374E-002	8	...........
	322	129.2	-2.05651E-002	-7.04569E-005	0.00000E+000	-1.99975E-002	-2.03411E-002	8	...........
	323	129.6	-3.01651E-002	-7.11914E-005	0.00000E+000	-2.99962E-002	-3.03448E-002	8	...........
	324	130	-4.05651E-002	-7.21764E-005	0.00000E+000	-3.99949E-002	-4.03485E-002	8	...........
	325	130.4	-5.03651E-002	-7.33617E-005	0.00000E+000	-4.99937E-002	-5.05523E-002	8	...........
	326	130.8	-6.01651E-002	-7.45304E-005	0.00000E+000	-5.99924E-002	-6.03559E-002	8	...........
	327	131.2	-7.03651E-002	-7.52649E-005	0.00000E+000	-6.99912E-002	-7.01595E-002	8	...........
	328	131.6	-8.01651E-002	-7.61498E-005	0.00000E+000	-7.99899E-002	-8.05634E-002	8	...........
	329	132	-9.03651E-002	-7.69511E-005	0.00000E+000	-8.99886E-002	-9.03670E-002	8	...........
	330	132.4	-1.00165E-001	-7.80196E-005	0.00000E+000	-9.99874E-002	-1.00371E-001	8	...........
	331	132.8	-1.10365E-001	-7.87875E-005	0.00000E+000	-1.09986E-001	-1.10374E-001	8	...........
	332	133.2	-1.20165E-001	-7.96056E-005	0.00000E+000	-1.19985E-001	-1.20178E-001	8	...........
	333	133.6	-1.30365E-001	-8.06239E-005	0.00000E+000	-1.29984E-001	-1.30382E-001	8	...........
	334	134	-1.40165E-001	-8.15588E-005	0.00000E+000	-1.39982E-001	-1.40185E-001	8	...........
	335	134.4	-1.49965E-001	-8.25104E-005	0.00000E+000	-1.49981E-001	-1.50189E-001	8	...........
	336	134.8	-1.60165E-001	-8.31949E-005	0.00000E+000	-1.59980E-001	-1.60193E-001	8	...........
	337	135.2	-1.70365E-001	-8.46307E-005	0.00000E+000	-1.69979E-001	-1.70197E-001	8	...........
	338	135.6	-1.79965E-001	-8.54988E-005	0.00000E+000	-1.79977E-001	-1.80200E-001	8	...........
	339	136	-1.89965E-001	-8.62834E-005	0.00000E+000	-1.89976E-001	-1.90004E-001	8	...........
	340	136.4	-2.00165E-001	-8.71182E-005	0.00000E+000	-2.00025E-001	-2.00008E-001	8	...........
	341	136.8	-2.10165E-001	-8.82534E-005	0.00000E+000	-2.10023E-001	-2.10411E-001	8	...........
	342	137.2	-2.20165E-001	-8.91549E-005	0.00000E+000	-2.20022E-001	-2.20415E-001	8	...........
	343	137.6	-2.30165E-001	-8.99896E-005	0.00000E+000	-2.30021E-001	-2.30419E-001	8	...........
	344	138	-2.40165E-001	-9.10414E-005	0.00000E+000	-2.40020E-001	-2.40422E-001	8	...........
	345	138.4	-2.49965E-001	-9.17760E-005	0.00000E+000	-2.50018E-001	-2.50426E-001	8	...........
	346	138.8	-2.60165E-001	-9.29112E-005	0.00000E+000	-2.60017E-001	-2.60430E-001	8	...........
	347	139.2	-2.70165E-001	-9.35790E-005	0.00000E+000	-2.70016E-001	-2.70033E-001	8	...........
	348	139.6	-2.80165E-001	-9.46307E-005	0.00000E+000	-2.80015E-001	-2.80037E-001	8	...........
	349	140	-2.90165E-001	-9.55156E-005	0.00000E+000	-2.90013E-001	-2.90441E-001	8	...........
	350	140.4	-3.00165E-001	-9.65506E-005	0.00000E+000	-3.00012E-001	-3.00045E-001	8	...........
	351	140.8	-3.10165E-001	-9.74689E-005	0.00000E+000	-3.10011E-001	-3.10048E-001	8	...........
	352	141.2	-3.20165E-001	-9.86208E-005	0.00000E+000	-3.20010E-001	-3.20252E-001	8	...........
	353	141.6	-3.29965E-001	-9.95557E-005	0.00000E+000	-3.30008E-001	-3.30256E-001	8	...........
	354	142	-3.40165E-001	-1.00574E-004	0.00000E+000	-3.40007E-001	-3.40259E-001	8	...........
	355	142.4	-3.50165E-001	-1.01526E-004	0.00000E+000	-3.50006E-001	-3.50263E-001	8	...........
	356	142.8	-3.60165E-001	-1.02360E-004	0.00000E+000	-3.60005E-001	-3.60267E-001	8	...........
	357	143.2	-3.69965E-001	-1.03429E-004	0.00000E+000	-3.70003E-001	-3.70070E-001	8	...........
	358	143.6	-3.79965E-001	-1.03913E-004	0.00000E+000	-3.80002E-001	-3.80074E-001	8	...........
	359	144	-3.89965E-001	-1.05683E-004	0.00000E+000	-3.90001E-001	-3.90078E-001	8	...........
	360	144.4	-4.00165E-001	-1.06284E-004	0.00000E+000	-3.99999E-001	-4.00081E-001	8	...........
	361	144.8	-4.09965E-001	-1.07135E-004	0.00000E+000	-4.09998E-001	-4.10085E-001	8	...........
	362	145.2	-4.20165E-001	-1.07803E-004	0.00000E+000	-4.19997E-001	-4.20089E-001	8	...........
	363	145.6	-4.29965E-001	-1.08738E-004	0.00000E+000	-4.29996E-001	-4.29893E-001	8	...........
	364	146	-4.39965E-001	-1.09890E-004	0.00000E+000	-4.39994E-001	-4.39896E-001	8	...........
	365	146.4	-4.49965E-001	-1.11108E-004	0.00000E+000	-4.49993E-001	-4.50100E-001	8	...........
	366	146.8	-4.60165E-001	-1.11743E-004	0.00000E+000	-4.59992E-001	-4.59904E-001	8	...........
	367	147.2	-4.69965E-001	-1.13262E-004	0.00000E+000	-4.69991E-001	-4.69907E-001	8	...........
	368	147.6	-4.79965E-001	-1.14247E-004	0.00000E+000	-4.79989E-001	-4.80111E-001	8	...........
	369	148	-4.89965E-001	-1.15315E-004	0.00000E+000	-4.89988E-001	-4.90115E-001	8	...........
	370	148.4	-5.00165E-001	-1.16684E-004	0.00000E+000	-4.99987E-001	-4.99918E-001	8	...........
	371	148.8	-5.09965E-001	-1.17619E-004	0.00000E+000	-5.09986E-001	-5.09922E-001	8	...........
	372	149.2	-5.19965E-001	-1.18721E-004	0.00000E+000	-5.19984E-001	-5.19926E-001	8	...........
	373	149.6	-5.29965E-001	-1.20374E-004	0.00000E+000	-5.29983E-001	-5.29930E-001	8	...........
	374	150	-5.39765E-001	-1.21476E-004	0.00000E+000	-5.39982E-001	-5.39933E-001	8	...........
	375	150.4	-5.49965E-001	-1.22962E-004	0.00000E+000	-5.49981E-001	-5.49937E-001	8	...........
	376	150.8	-5.59765E-001	-1.24731E-004	0.00000E+000	-5.59979E-001	-5.59941E-001	8	...........
	377	151.2	-5.69965E-001	-1.25733E-004	0.00000E+000	-5.69978E-001	-5.69944E-001	8	...........
	378	151.6	-5.79965E-001	-1.27202E-004	0.00000E+000	-5.79977E-001	-5.79948E-001	8	...........
	379	152	-5.89965E-001	-1.28905E-004	0.00000E+000	-5.89975E-001	-5.89952E-001	8	...........
	380	152.4	-5.99765E-001	-1.30675E-004	0.00000E+000	-6.00024E-001	-6.00155E-001	8	...........
	381	152.8	-6.09965E-001	-1.32027E-004	0.00000E+000	-6.10023E-001	-6.09959E-001	8	...........
	382	153.2	-6.19965E-001	-1.34197E-004	0.00000E+000	-6.20022E-001	-6.19963E-001	8	...........
	383	153.6	-6.29965E-001	-1.35599E-004	0.00000E+000	-6.30020E-001	-6.29966E-001	8	...........
	384	154	-6.39965E-001	-1.37686E-004	0.00000E+000	-6.40019E-001	-6.39770E-001	8	...........
	385	154.4	-6.49965E-001	-1.40090E-004	0.00000E+000	-6.50018E-001	-6.49774E-001	8	...........
	386	154.8	-6.59765E-001	-1.42361E-004	0.00000E+000	-6.60017E-001	-6.59777E-001	8	...........
	387	155.2	-6.69965E-001	-1.44648E-004	0.00000E+000	-6.70015E-001	-6.69981E-001	8	...........
	388	155.6	-6.79765E-001	-1.47603E-004	0.00000E+000	-6.80014E-001	-6.79985E-001	8	...........
	389	156	-6.89765E-001	-1.50358E-004	0.00000E+000	-6.90013E-001	-6.89989E-001	8	...........
	390	156.4	-6.99765E-001	-1.53747E-004	0.00000E+000	-7.00012E-001	-6.99792E-001	8	...........
	391	156.8	-7.09765E-001	-1.57019E-004	0.00000E+000	-7.10010E-001	-7.09796E-001	8	...........
	392	157.2	-7.19765E-001	-1.60157E-004	0.00000E+000	-7.20009E-001	-7.20000E-001	8	...........
	393	157.6	-7.29765E-001	-1.63630E-004	0.00000E+000	-7.30008E-001	-7.29803E-001	8	...........
	394	158	-7.39765E-001	-1.67570E-004	0.00000E+000	-7.40007E-001	-7.39807E-001	8	...........
	395	158.4	-7.49765E-001	-1.71677E-004	0.00000E+000	-7.50005E-001	-7.49811E-001	8	...........
	396	158.8	-7.59565E-001	-1.76368E-004	0.00000E+000	-7.60004E-001	-7.59814E-001	8	...........
	397	159.2	-7.69765E-001	-1.81026E-004	0.00000E+000	-7.70003E-001	-7.69818E-001	8	...........
	398	159.6	-7.79765E-001	-1.85884E-004	0.00000E+000	-7.80001E-001	-7.79822E-001	8	...........
	399	160	-7.89765E-001	-1.90976E-004	0.00000E+000	-7.90000E-001	-7.89825E-001	8	...........
	400	160.4	-7.99765E-001	-1.96702E-004	0.00000E+000	-7.99999E-001	-7.99829E-001	8	...........
	401	160.8	-7.89765E-001	-1.79724E-004	0.00000E+000	-7.90000E-001	-7.89825E-001	8	...........
	402	161.2	-7.79765E-001	-1.64231E-004	0.00000E+000	-7.80001E-001	-7.79622E-001	8	...........
	403	161.6	-7.69765E-001	-1.51877E-004	0.00000E+000	-7.70003E-001	-7.70018E-001	8	...........
	404	162	-7.59765E-001	-1.39690E-004	0.00000E+000	-7.60004E-001	-7.59814E-001	8	...........
	405	162.4	-7.49765E-001	-1.28988E-004	0.00000E+000	-7.50005E-001	-7.49811E-001	8	...........
	406	162.8	-7.39765E-001	-1.19072E-004	0.00000E+000	-7.40007E-001	-7.39807E-001	8	...........
	407	163.2	-7.29765E-001	-1.09623E-004	0.00000E+000	-7.30008E-001	-7.29603E-001	8	...........
	408	163.6	-7.19765E-001	-1.01526E-004	0.00000E+000	-7.20009E-001	-7.19800E-001	8	...........
	409	164	-7.09965E-001	-9.41132E-005	0.00000E+000	-7.10010E-001	-7.09796E-001	8	...........
	410	164.4	-6.99765E-001	-8.67676E-005	0.00000E+000	-7.00012E-001	-6.99792E-001	8	...........
	411	164.8	-6.89965E-001	-8.02900E-005	0.00000E+000	-6.90013E-001	-6.89989E-001	8	...........
	412	165.2	-6.79965E-001	-7.36622E-005	0.00000E+000	-6.80014E-001	-6.79985E-001	8	...........
	413	165.6	-6.69965E-001	-6.75687E-005	0.00000E+000	-6.70015E-001	-6.69981E-001	8	...........
	414	166	-6.59765E-001	-6.18758E-005	0.00000E+000	-6.60017E-001	-6.59777E-001	8	...........
	415	166.4	-6.49965E-001	-5.69175E-005	0.00000E+000	-6.50018E-001	-6.49974E-001	8	...........
	416	166.8	-6.39765E-001	-5.18590E-005	0.00000E+000	-6.40019E-001	-6.39770E-001	8	...........
	417	167.2	-6.29965E-001	-4.72346E-005	0.00000E+000	-6.30020E-001	-6.29966E-001	8	...........
	418	167.6	-6.19965E-001	-4.27270E-005	0.00000E+000	-6.20022E-001	-6.19963E-001	8	...........
	419	168	-6.09965E-001	-3.86034E-005	0.00000E+000	-6.10023E-001	-6.09959E-001	8	...........
	420	168.4	-5.99765E-001	-3.43612E-005	0.00000E+000	-6.00024E-001	-5.99955E-001	7	...........
	421	168.8	-5.89765E-001	-3.07703E-005	0.00000E+000	-5.89975E-001	-5.89952E-001	7	...........
	422	169.2	-5.79965E-001	-2.69239E-005	0.00000E+000	-5.79977E-001	-5.79948E-001	7	...........
	423	169.6	-5.69965E-001	-2.34716E-005	0.00000E+000	-5.69978E-001	-5.69744E-001	7	...........
	424	170	-5.59965E-001	-2.00428E-005	0.00000E+000	-5.59979E-001	-5.59941E-001	7	...........
	425	170.4	-5.49965E-001	-1.67775E-005	0.00000E+000	-5.49981E-001	-5.49937E-001	7	...........
	426	170.8	-5.39965E-001	-1.37328E-005	0.00000E+000	-5.39982E-001	-5.39933E-001	7	...........
	427	171.2	-5.29965E-001	-1.04926E-005	0.00000E+000	-5.29983E-001	-5.30130E-001	7	...........
	428	171.6	-5.19965E-001	-7.77692E-006	0.00000E+000	-5.19984E-001	-5.20326E-001	7	...........
	429	172	-5.09965E-001	-5.17310E-006	0.00000E+000	-5.09986E-001	-5.09922E-001	7	...........
	430	172.4	-5.00165E-001	-2.37387E-006	0.00000E+000	-4.99987E-001	-5.00118E-001	7	...........
	431	172.8	-4.89765E-001	-4.39599E-008	0.00000E+000	-4.89988E-001	-4.89915E-001	7	...........
	432	173.2	-4.79965E-001	2.56320E-006	0.00000E+000	-4.79989E-001	-4.80111E-001	7	...........
	433	173.6	-4.69965E-001	4.89812E-006	0.00000E+000	-4.69991E-001	-4.70107E-001	7	...........
	434	174	-4.59965E-001	7.45517E-006	0.00000E+000	-4.59992E-001	-4.60104E-001	7	...........
	435	174.4	-4.49965E-001	9.61472E-006	0.00000E+000	-4.49993E-001	-4.50100E-001	7	...........
	436	174.8	-4.40165E-001	1.18728E-005	0.00000E+000	-4.39994E-001	-4.40096E-001	7	...........
	437	175.2	-4.29965E-001	1.40123E-005	0.00000E+000	-4.29996E-001	-4.30093E-001	7	...........
	438	175.6	-4.20165E-001	1.59030E-005	0.00000E+000	-4.19997E-001	-4.20089E-001	7	...........
	439	176	-4.09965E-001	1.81894E-005	0.00000E+000	-4.09998E-001	-4.10085E-001	7	...........
	440	176.4	-3.99965E-001	2.01269E-005	0.00000E+000	-3.99999E-001	-3.99881E-001	7	...........
	441	176.8	-3.89965E-001	2.21595E-005	0.00000E+000	-3.90001E-001	-3.90078E-001	7	...........
	442	177.2	-3.79965E-001	2.40885E-005	0.00000E+000	-3.80002E-001	-3.80074E-001	7	...........
	443	177.6	-3.70165E-001	2.58439E-005	0.00000E+000	-3.70003E-001	-3.69870E-001	7	...........
	444	178	-3.60165E-001	2.77964E-005	0.00000E+000	-3.60005E-001	-3.60267E-001	7	...........
	445	178.4	-3.50165E-001	2.95818E-005	0.00000E+000	-3.50006E-001	-3.50263E-001	7	...........
	446	178.8	-3.39965E-001	3.13271E-005	0.00000E+000	-3.40007E-001	-3.40059E-001	7	...........
	447	179.2	-3.30165E-001	3.27451E-005	0.00000E+000	-3.30008E-001	-3.30256E-001	7	...........
	448	179.6	-3.20165E-001	3.46257E-005	0.00000E+000	-3.20010E-001	-3.20252E-001	7	...........
	449	180	-3.10365E-001	3.62826E-005	0.00000E+000	-3.10011E-001	-3.10248E-001	7	...........
	450	180.4	-2.99965E-001	3.79143E-005	0.00000E+000	-3.00012E-001	-3.00045E-001	7	...........
	451	180.8	-2.90165E-001	3.93624E-005	0.00000E+000	-2.90013E-001	-2.90241E-001	7	...........
	452	181.2	-2.80165E-001	4.09708E-005	0.00000E+000	-2.80015E-001	-2.80237E-001	7	...........
	453	181.6	-2.70165E-001	4.24773E-005	0.00000E+000	-2.70016E-001	-2.70233E-001	7	...........
	454	182	-2.60165E-001	4.40322E-005	0.00000E+000	-2.60017E-001	-2.60430E-001	7	...........
	455	182.4	-2.49965E-001	4.55254E-005	0.00000E+000	-2.50018E-001	-2.50226E-001	7	...........
	456	182.8	-2.40165E-001	4.72907E-005	0.00000E+000	-2.40020E-001	-2.40222E-001	8	...........
	457	183.2	-2.30165E-001	4.82923E-005	0.00000E+000	-2.30021E-001	-2.30219E-001	8	...........
	458	183.6	-2.20165E-001	4.98283E-005	0.00000E+000	-2.20022E-001	-2.20215E-001	8	...........
	459	184	-2.10165E-001	5.11805E-005	0.00000E+000	-2.10023E-001	-2.10411E-001	8	...........
	460	184.4	-2.00165E-001	5.23158E-005	0.00000E+000	-2.00025E-001	-2.00208E-001	8	...........
	461	184.8	-1.90165E-001	5.36680E-005	0.00000E+000	-1.89976E-001	-1.90404E-001	8	...........
	462	185.2	-1.80165E-001	5.52707E-005	0.00000E+000	-1.79977E-001	-1.80200E-001	8	...........
	463	185.6	-1.70165E-001	5.63058E-005	0.00000E+000	-1.69979E-001	-1.70197E-001	8	...........
	464	186	-1.60365E-001	5.74410E-005	0.00000E+000	-1.59980E-001	-1.60393E-001	8	...........
	465	186.4	-1.50165E-001	5.89936E-005	0.00000E+000	-1.49981E-001	-1.50389E-001	8	...........
	466	186.8	-1.40365E-001	6.04127E-005	0.00000E+000	-1.39982E-001	-1.40185E-001	8	...........
	467	187.2	-1.30365E-001	6.13309E-005	0.00000E+000	-1.29984E-001	-1.30182E-001	8	...........
	468	187.6	-1.20165E-001	6.26664E-005	0.00000E+000	-1.19985E-001	-1.20378E-001	8	...........
	469	188	-1.10165E-001	6.36514E-005	0.00000E+000	-1.09986E-001	-1.10374E-001	8	...........
	470	188.4	-1.00165E-001	6.49870E-005	0.00000E+000	-9.99874E-002	-1.00571E-001	8	...........
	471	188.8	-9.01651E-002	6.61223E-005	0.00000E+000	-8.99886E-002	-9.01669E-002	8	...........
	472	189.2	-8.03651E-002	6.72742E-005	0.00000E+000	-7.99899E-002	-8.01632E-002	8	...........
	473	189.6	-7.01651E-002	6.84428E-005	0.00000E+000	-6.99912E-002	-7.03596E-002	8	...........
	474	190	-6.01651E-002	6.94111E-005	0.00000E+000	-5.99924E-002	-6.01558E-002	8	...........
	475	190.4	-5.03651E-002	7.06632E-005	0.00000E+000	-4.99937E-002	-5.05523E-002	8	...........
	476	190.8	-4.03651E-002	7.17984E-005	0.00000E+000	-3.99949E-002	-4.03485E-002	8	...........
	477	191.2	-3.03651E-002	7.29170E-005	0.00000E+000	-2.99962E-002	-3.03448E-002	8	...........
	478	191.6	-2.03651E-002	7.39854E-005	0.00000E+000	-1.99975E-002	-2.03411E-002	8	...........
	479	192	-1.01651E-002	7.47534E-005	0.00000E+000	-9.99874E-003	-1.05375E-002	8	...........
	480	192.4	-3.65120E-004	7.60723E-005	0.00000E+000	0.00000E+000	-3.33723E-004	8	...........
	481	192.8	9.83488E-003	7.68736E-005	0.00000E+000	9.99874E-003	9.66997E-003	8	...........
	482	193.2	1.96349E-002	7.77751E-005	0.00000E+000	1.99975E-002	1.94736E-002	8	...........
	483	193.6	2.96349E-002	7.90940E-005	0.00000E+000	2.99962E-002	2.94773E-002	8	...........
	484	194	3.96349E-002	8.01458E-005	0.00000E+000	3.99949E-002	3.94810E-002	8	...........
	485	194.4	4.96349E-002	8.11475E-005	0.00000E+000	4.99937E-002	4.94847E-002	8	...........
	486	194.8	5.96349E-002	8.19655E-005	0.00000E+000	5.99924E-002	5.94884E-002	8	...........
	487	195.2	6.96349E-002	8.33345E-005	0.00000E+000	6.99912E-002	6.96922E-002	8	...........
	488	195.6	7.96349E-002	8.41024E-005	0.00000E+000	7.99899E-002	7.94958E-002	8	...........
	489	196	8.96349E-002	8.46199E-005	0.00000E+000	8.99886E-002	8.94995E-002	8	...........
	490	196.4	9.96349E-002	8.55715E-005	0.00000E+000	9.99874E-002	9.95032E-002	8	...........
	491	196.8	1.09635E-001	8.66567E-005	0.00000E+000	1.09986E-001	1.09507E-001	8	...........
	492	197.2	1.19635E-001	8.75916E-005	0.00000E+000	1.19985E-001	1.19511E-001	8	...........
	493	197.6	1.29635E-001	8.83929E-005	0.00000E+000	1.29984E-001	1.29514E-001	8	...........
	494	198	1.39635E-001	8.91442E-005	0.00000E+000	1.39982E-001	1.39318E-001	8	...........
	495	198.4	1.49635E-001	9.03128E-005	0.00000E+000	1.49981E-001	1.49322E-001	8	...........
	496	198.8	1.59635E-001	9.13813E-005	0.00000E+000	1.59980E-001	1.59325E-001	8	...........
	497	199.2	1.69635E-001	9.17653E-005	0.00000E+000	1.69979E-001	1.69329E-001	8	...........
	498	199.6	1.79635E-001	9.29005E-005	0.00000E+000	1.79977E-001	1.79133E-001	8	...........
	499	200	1.89635E-001	9.34681E-005	0.00000E+000	1.89976E-001	1.89536E-001	8	...........
	500	200.4	1.99435E-001	9.46368E-005	0.00000E+000	2.00025E-001	1.99540E-001	8	...........
	501	200.8	2.09635E-001	9.50207E-005	0.00000E+000	2.10023E-001	2.09344E-001	8	...........
	502	201.2	2.19435E-001	9.59556E-005	0.00000E+000	2.20022E-001	2.19347E-001	8	...........
	503	201.6	2.29635E-001	9.69239E-005	0.00000E+000	2.30021E-001	2.29351E-001	8	...........
	504	202	2.39435E-001	9.74582E-005	0.00000E+000	2.40020E-001	2.39355E-001	8	...........
	505	202.4	2.49635E-001	9.82929E-005	0.00000E+000	2.50018E-001	2.49359E-001	8	...........
	506	202.8	2.59635E-001	9.88271E-005	0.00000E+000	2.60017E-001	2.59362E-001	8	...........
	507	203.2	2.69635E-001	9.96785E-005	0.00000E+000	2.70016E-001	2.69366E-001	8	...........
	508	203.6	2.79435E-001	1.00513E-004	0.00000E+000	2.80015E-001	2.79370E-001	8	...........
	509	204	2.89635E-001	1.01281E-004	0.00000E+000	2.90013E-001	2.89173E-001	8	...........
	510	204.4	2.99435E-001	1.01849E-004	0.00000E+000	3.00012E-001	2.99577E-001	8	...........
	511	204.8	3.09435E-001	1.02283E-004	0.00000E+000	3.10011E-001	3.09381E-001	8	...........
	512	205.2	3.19435E-001	1.03268E-004	0.00000E+000	3.20010E-001	3.19384E-001	8	...........
	513	205.6	3.29435E-001	1.03618E-004	0.00000E+000	3.30008E-001	3.29188E-001	8	...........
	514	206	3.39635E-001	1.04453E-004	0.00000E+000	3.40007E-001	3.39392E-001	8	...........
	515	206.4	3.49435E-001	1.05288E-004	0.00000E+000	3.50006E-001	3.49195E-001	8	...........
	516	206.8	3.59435E-001	1.05705E-004	0.00000E+000	3.60005E-001	3.59199E-001	8	...........
	517	207.2	3.69635E-001	1.05922E-004	0.00000E+000	3.70003E-001	3.69203E-001	8	...........
	518	207.6	3.79635E-001	1.06774E-004	0.00000E+000	3.80002E-001	3.79207E-001	8	...........
	519	208	3.89435E-001	1.07558E-004	0.00000E+000	3.90001E-001	3.89210E-001	8	...........
	520	208.4	3.99435E-001	1.07792E-004	0.00000E+000	3.99999E-001	3.99214E-001	8	...........
	521	208.8	4.09435E-001	1.08076E-004	0.00000E+000	4.09998E-001	4.09218E-001	8	...........
	522	209.2	4.19235E-001	1.08193E-004	0.00000E+000	4.19997E-001	4.19221E-001	8	...........
	523	209.6	4.29435E-001	1.08994E-004	0.00000E+000	4.29996E-001	4.29225E-001	8	...........
	524	210	4.39635E-001	1.09578E-004	0.00000E+000	4.39994E-001	4.39229E-001	8	...........
	525	210.4	4.49435E-001	1.09729E-004	0.00000E+000	4.49993E-001	4.49232E-001	8	...........
	526	210.8	4.59435E-001	1.10296E-004	0.00000E+000	4.59992E-001	4.59236E-001	8	...........
	527	211.2	4.69435E-001	1.10697E-004	0.00000E+000	4.69991E-001	4.69040E-001	8	...........
	528	211.6	4.79235E-001	1.11131E-004	0.00000E+000	4.79989E-001	4.79244E-001	8	...........
	529	212	4.89435E-001	1.11565E-004	0.00000E+000	4.89988E-001	4.89047E-001	8	...........
	530	212.4	4.99435E-001	1.12300E-004	0.00000E+000	4.99987E-001	4.99051E-001	8	...........
	531	212.8	5.09235E-001	1.12417E-004	0.00000E+000	5.09986E-001	5.09255E-001	8	...........
	532	213.2	5.19235E-001	1.13001E-004	0.00000E+000	5.19984E-001	5.19058E-001	8	...........
	533	213.6	5.29235E-001	1.13402E-004	0.00000E+000	5.29983E-001	5.29062E-001	8	...........
	534	214	5.39435E-001	1.13886E-004	0.00000E+000	5.39982E-001	5.39266E-001	8	...........
	535	214.4	5.49235E-001	1.14670E-004	0.00000E+000	5.49981E-001	5.49069E-001	8	...........
	536	214.8	5.59435E-001	1.14587E-004	0.00000E+000	5.59979E-001	5.59073E-001	8	...........
	537	215.2	5.69235E-001	1.15104E-004	0.00000E+000	5.69978E-001	5.69077E-001	8	...........
	538	215.6	5.79635E-001	1.15739E-004	0.00000E+000	5.79977E-001	5.79080E-001	8	...........
	539	216	5.89235E-001	1.16256E-004	0.00000E+000	5.89975E-001	5.88884E-001	8	...........
	540	216.4	5.99435E-001	1.16557E-004	0.00000E+000	6.00024E-001	5.99088E-001	8	...........
	541	216.8	6.09435E-001	1.16574E-004	0.00000E+000	6.10023E-001	6.09092E-001	8	...........
	542	217.2	6.19235E-001	1.17058E-004	0.00000E+000	6.20022E-001	6.19095E-001	8	...........
	543	217.6	6.29235E-001	1.17742E-004	0.00000E+000	6.30020E-001	6.29099E-001	8	...........
	544	218	6.39235E-001	1.18076E-004	0.00000E+000	6.40019E-001	6.39103E-001	8	...........
	545	218.4	6.49235E-001	1.18811E-004	0.00000E+000	6.50018E-001	6.48906E-001	8	...........
	546	218.8	6.59235E-001	1.18827E-004	0.00000E+000	6.60017E-001	6.59110E-001	8	...........
	547	219.2	6.69235E-001	1.19545E-004	0.00000E+000	6.70015E-001	6.69114E-001	8	...........
	548	219.6	6.79235E-001	1.20029E-004	0.00000E+000	6.80014E-001	6.79117E-001	8	...........
	549	220	6.89435E-001	1.20814E-004	0.00000E+000	6.90013E-001	6.89121E-001	8	...........
	550	220.4	6.99235E-001	1.21632E-004	0.00000E+000	7.00012E-001	6.99125E-001	8	...........
	551	220.8	7.09235E-001	1.22433E-004	0.00000E+000	7.10010E-001	7.08928E-001	8	...........
	552	221.2	7.19235E-001	1.22918E-004	0.00000E+000	7.20009E-001	7.19132E-001	8	...........
	553	221.6	7.29435E-001	1.23802E-004	0.00000E+000	7.30008E-001	7.29136E-001	8	...........
	554	222	7.39235E-001	1.24637E-004	0.00000E+000	7.40007E-001	7.38940E-001	8	...........
	555	222.4	7.49235E-001	1.25756E-004	0.00000E+000	7.50005E-001	7.48943E-001	8	...........
	556	222.8	7.59235E-001	1.26707E-004	0.00000E+000	7.60004E-001	7.59147E-001	8	...........
	557	223.2	7.69435E-001	1.27559E-004	0.00000E+000	7.70003E-001	7.69151E-001	8	...........
	558	223.6	7.79035E-001	1.28577E-004	0.00000E+000	7.80001E-001	7.78954E-001	8	...........
	559	224	7.89235E-001	1.29512E-004	0.00000E+000	7.90000E-001	7.88958E-001	8	...........
	560	224.4	7.99235E-001	1.30948E-004	0.00000E+000	7.99999E-001	7.99162E-001	8	...........
CURVE3	TABLE
	Pt	T	Vf	Im	Vu	Sig	Ach	IERange	Over
	#	s	V vs. Ref.	A	V	V	V	#	bits
	561	224.8	7.89235E-001	1.18260E-004	0.00000E+000	7.90000E-001	7.88958E-001	8	...........
	562	225.2	7.79235E-001	1.07675E-004	0.00000E+000	7.80001E-001	7.78954E-001	8	...........
	563	225.6	7.69235E-001	9.85934E-005	0.00000E+000	7.70003E-001	7.68951E-001	8	...........
	564	226	7.59235E-001	9.02628E-005	0.00000E+000	7.60004E-001	7.58947E-001	8	...........
	565	226.4	7.49235E-001	8.25331E-005	0.00000E+000	7.50005E-001	7.48943E-001	8	...........
	566	226.8	7.39435E-001	7.56048E-005	0.00000E+000	7.40007E-001	7.38940E-001	8	...........
	567	227.2	7.29235E-001	6.96114E-005	0.00000E+000	7.30008E-001	7.28936E-001	8	...........
	568	227.6	7.19235E-001	6.33342E-005	0.00000E+000	7.20009E-001	7.18932E-001	8	...........
	569	228	7.09435E-001	5.76581E-005	0.00000E+000	7.10010E-001	7.08928E-001	8	...........
	570	228.4	6.99435E-001	5.31505E-005	0.00000E+000	7.00012E-001	6.98925E-001	8	...........
	571	228.8	6.89235E-001	4.81421E-005	0.00000E+000	6.90013E-001	6.89121E-001	8	...........
	572	229.2	6.79235E-001	4.37180E-005	0.00000E+000	6.80014E-001	6.79117E-001	8	...........
	573	229.6	6.69235E-001	3.95276E-005	0.00000E+000	6.70015E-001	6.68914E-001	8	...........
	574	230	6.59435E-001	3.54057E-005	0.00000E+000	6.60017E-001	6.59110E-001	7	...........
	575	230.4	6.49235E-001	3.12269E-005	0.00000E+000	6.50018E-001	6.49106E-001	7	...........
	576	230.8	6.39435E-001	2.80235E-005	0.00000E+000	6.40019E-001	6.39103E-001	7	...........
	577	231.2	6.29235E-001	2.44777E-005	0.00000E+000	6.30020E-001	6.29299E-001	7	...........
	578	231.6	6.19435E-001	2.10739E-005	0.00000E+000	6.20022E-001	6.19295E-001	7	...........
	579	232	6.09435E-001	1.79222E-005	0.00000E+000	6.10023E-001	6.09092E-001	7	...........
	580	232.4	5.99435E-001	1.50311E-005	0.00000E+000	6.00024E-001	5.99088E-001	7	...........
	581	232.8	5.89435E-001	1.21467E-005	0.00000E+000	5.89975E-001	5.89084E-001	7	...........
	582	233.2	5.79435E-001	9.48444E-006	0.00000E+000	5.79977E-001	5.79080E-001	7	...........
	583	233.6	5.69235E-001	6.88731E-006	0.00000E+000	5.69978E-001	5.69077E-001	7	...........
	584	234	5.59235E-001	4.24674E-006	0.00000E+000	5.59979E-001	5.59073E-001	7	...........
	585	234.4	5.49435E-001	1.84001E-006	0.00000E+000	5.49981E-001	5.49069E-001	7	...........
	586	234.8	5.39435E-001	-4.26432E-007	0.00000E+000	5.39982E-001	5.39066E-001	7	...........
	587	235.2	5.29235E-001	-2.73296E-006	0.00000E+000	5.29983E-001	5.29062E-001	7	...........
	588	235.6	5.19435E-001	-4.86077E-006	0.00000E+000	5.19984E-001	5.19258E-001	7	...........
	589	236	5.09235E-001	-6.90341E-006	0.00000E+000	5.09986E-001	5.09055E-001	7	...........
	590	236.4	4.99435E-001	-8.94772E-006	0.00000E+000	4.99987E-001	4.99051E-001	7	...........
	591	236.8	4.89435E-001	-1.10204E-005	0.00000E+000	4.89988E-001	4.89247E-001	7	...........
	592	237.2	4.79235E-001	-1.26188E-005	0.00000E+000	4.79989E-001	4.79043E-001	7	...........
	593	237.6	4.69435E-001	-1.43725E-005	0.00000E+000	4.69991E-001	4.69040E-001	7	...........
	594	238	4.59235E-001	-1.60961E-005	0.00000E+000	4.59992E-001	4.59036E-001	7	...........
	595	238.4	4.49435E-001	-1.77346E-005	0.00000E+000	4.49993E-001	4.49232E-001	7	...........
	596	238.8	4.39435E-001	-1.92745E-005	0.00000E+000	4.39994E-001	4.39229E-001	7	...........
	597	239.2	4.29435E-001	-2.10064E-005	0.00000E+000	4.29996E-001	4.29225E-001	7	...........
	598	239.6	4.19435E-001	-2.25965E-005	0.00000E+000	4.19997E-001	4.19421E-001	7	...........
	599	240	4.09435E-001	-2.39092E-005	0.00000E+000	4.09998E-001	4.09218E-001	7	...........
	600	240.4	3.99435E-001	-2.54625E-005	0.00000E+000	3.99999E-001	3.99214E-001	7	...........
	601	240.8	3.89435E-001	-2.70108E-005	0.00000E+000	3.90001E-001	3.89410E-001	7	...........
	602	241.2	3.79235E-001	-2.82150E-005	0.00000E+000	3.80002E-001	3.79207E-001	7	...........
	603	241.6	3.69635E-001	-2.96747E-005	0.00000E+000	3.70003E-001	3.69203E-001	7	...........
	604	242	3.59435E-001	-3.10309E-005	0.00000E+000	3.60005E-001	3.59399E-001	7	...........
	605	242.4	3.49435E-001	-3.24489E-005	0.00000E+000	3.50006E-001	3.49396E-001	7	...........
	606	242.8	3.39635E-001	-3.35980E-005	0.00000E+000	3.40007E-001	3.39392E-001	7	...........
	607	243.2	3.29635E-001	-3.49074E-005	0.00000E+000	3.30008E-001	3.29388E-001	7	...........
	608	243.6	3.19435E-001	-3.61032E-005	0.00000E+000	3.20010E-001	3.19384E-001	7	...........
	609	244	3.09635E-001	-3.72991E-005	0.00000E+000	3.10011E-001	3.09381E-001	7	...........
	610	244.4	2.99635E-001	-3.83530E-005	0.00000E+000	3.00012E-001	2.99377E-001	7	...........
	611	244.8	2.89635E-001	-3.96324E-005	0.00000E+000	2.90013E-001	2.89373E-001	7	...........
	612	245.2	2.79635E-001	-4.05593E-005	0.00000E+000	2.80015E-001	2.79170E-001	7	...........
	613	245.6	2.69435E-001	-4.18203E-005	0.00000E+000	2.70016E-001	2.69366E-001	7	...........
	614	246	2.59635E-001	-4.32065E-005	0.00000E+000	2.60017E-001	2.59162E-001	7	...........
	615	246.4	2.49435E-001	-4.41168E-005	0.00000E+000	2.50018E-001	2.49359E-001	7	...........
	616	246.8	2.39435E-001	-4.53978E-005	0.00000E+000	2.40020E-001	2.39355E-001	7	...........
	617	247.2	2.29435E-001	-4.62997E-005	0.00000E+000	2.30021E-001	2.29551E-001	8	...........
	618	247.6	2.19635E-001	-4.73181E-005	0.00000E+000	2.20022E-001	2.19548E-001	8	...........
	619	248	2.09635E-001	-4.86703E-005	0.00000E+000	2.10023E-001	2.09544E-001	8	...........
	620	248.4	1.99435E-001	-4.95051E-005	0.00000E+000	2.00025E-001	1.99340E-001	8	...........
	621	248.8	1.89435E-001	-5.06236E-005	0.00000E+000	1.89976E-001	1.89336E-001	8	...........
	622	249.2	1.79635E-001	-5.18089E-005	0.00000E+000	1.79977E-001	1.79333E-001	8	...........
	623	249.6	1.69435E-001	-5.28273E-005	0.00000E+000	1.69979E-001	1.69529E-001	8	...........
	624	250	1.59435E-001	-5.42297E-005	0.00000E+000	1.59980E-001	1.59525E-001	8	...........
	625	250.4	1.49635E-001	-5.49642E-005	0.00000E+000	1.49981E-001	1.49322E-001	8	...........
	626	250.8	1.39635E-001	-5.56320E-005	0.00000E+000	1.39982E-001	1.39318E-001	8	...........
	627	251.2	1.29635E-001	-5.70510E-005	0.00000E+000	1.29984E-001	1.29514E-001	8	...........
	628	251.6	1.19635E-001	-5.79526E-005	0.00000E+000	1.19985E-001	1.19511E-001	8	...........
	629	252	1.09635E-001	-5.89042E-005	0.00000E+000	1.09986E-001	1.09307E-001	8	...........
	630	252.4	9.96349E-002	-6.01229E-005	0.00000E+000	9.99874E-002	9.93031E-002	8	...........
	631	252.8	8.96349E-002	-6.08741E-005	0.00000E+000	8.99886E-002	8.96996E-002	8	...........
	632	253.2	7.94349E-002	-6.19927E-005	0.00000E+000	7.99899E-002	7.94958E-002	8	...........
	633	253.6	6.98349E-002	-6.28274E-005	0.00000E+000	6.99912E-002	6.96922E-002	8	...........
	634	254	5.96349E-002	-6.40461E-005	0.00000E+000	5.99924E-002	5.96885E-002	8	...........
	635	254.4	4.98349E-002	-6.47306E-005	0.00000E+000	4.99937E-002	4.96848E-002	8	...........
	636	254.8	3.96349E-002	-6.60328E-005	0.00000E+000	3.99949E-002	3.94810E-002	8	...........
	637	255.2	2.96349E-002	-6.70345E-005	0.00000E+000	2.99962E-002	2.94773E-002	8	...........
	638	255.6	1.98349E-002	-6.79193E-005	0.00000E+000	1.99975E-002	1.94736E-002	8	...........
	639	256	9.63488E-003	-6.85871E-005	0.00000E+000	9.99874E-003	9.46990E-003	8	...........
	640	256.4	-3.65120E-004	-6.98225E-005	0.00000E+000	0.00000E+000	-3.33723E-004	8	...........
	641	256.8	-1.01651E-002	-7.04235E-005	0.00000E+000	-9.99874E-003	-1.03374E-002	8	...........
	642	257.2	-2.03651E-002	-7.17424E-005	0.00000E+000	-1.99975E-002	-2.03411E-002	8	...........
	643	257.6	-3.03651E-002	-7.25938E-005	0.00000E+000	-2.99962E-002	-3.03448E-002	8	...........
	644	258	-4.03651E-002	-7.34118E-005	0.00000E+000	-3.99949E-002	-4.03485E-002	8	...........
	645	258.4	-5.01651E-002	-7.46138E-005	0.00000E+000	-4.99937E-002	-5.03522E-002	8	...........
	646	258.8	-6.03651E-002	-7.52983E-005	0.00000E+000	-5.99924E-002	-6.03559E-002	8	...........
	647	259.2	-7.03651E-002	-7.61498E-005	0.00000E+000	-6.99912E-002	-7.03596E-002	8	...........
	648	259.6	-8.01651E-002	-7.73184E-005	0.00000E+000	-7.99899E-002	-8.01632E-002	8	...........
	649	260	-9.03651E-002	-7.80029E-005	0.00000E+000	-8.99886E-002	-9.03670E-002	8	...........
	650	260.4	-1.00165E-001	-7.89712E-005	0.00000E+000	-9.99874E-002	-1.00371E-001	8	...........
	651	260.8	-1.10165E-001	-8.02733E-005	0.00000E+000	-1.09986E-001	-1.10374E-001	8	...........
	652	261.2	-1.20165E-001	-8.12082E-005	0.00000E+000	-1.19985E-001	-1.20378E-001	8	...........
	653	261.6	-1.30365E-001	-8.21765E-005	0.00000E+000	-1.29984E-001	-1.30382E-001	8	...........
	654	262	-1.40365E-001	-8.28443E-005	0.00000E+000	-1.39982E-001	-1.40385E-001	8	...........
	655	262.4	-1.50365E-001	-8.36624E-005	0.00000E+000	-1.49981E-001	-1.50189E-001	8	...........
	656	262.8	-1.60165E-001	-8.49646E-005	0.00000E+000	-1.59980E-001	-1.60393E-001	8	...........
	657	263.2	-1.70165E-001	-8.52817E-005	0.00000E+000	-1.69979E-001	-1.70197E-001	8	...........
	658	263.6	-1.80165E-001	-8.64170E-005	0.00000E+000	-1.79977E-001	-1.80200E-001	8	...........
	659	264	-1.89965E-001	-8.72851E-005	0.00000E+000	-1.89976E-001	-1.90004E-001	8	...........
	660	264.4	-2.00165E-001	-8.81699E-005	0.00000E+000	-2.00025E-001	-2.00208E-001	8	...........
	661	264.8	-2.10165E-001	-8.90047E-005	0.00000E+000	-2.10023E-001	-2.10411E-001	8	...........
	662	265.2	-2.20165E-001	-8.98227E-005	0.00000E+000	-2.20022E-001	-2.20215E-001	8	...........
	663	265.6	-2.30165E-001	-9.07409E-005	0.00000E+000	-2.30021E-001	-2.30219E-001	8	...........
	664	266	-2.40165E-001	-9.17593E-005	0.00000E+000	-2.40020E-001	-2.40222E-001	8	...........
	665	266.4	-2.50165E-001	-9.24771E-005	0.00000E+000	-2.50018E-001	-2.50226E-001	8	...........
	666	266.8	-2.60165E-001	-9.32451E-005	0.00000E+000	-2.60017E-001	-2.60430E-001	8	...........
	667	267.2	-2.70165E-001	-9.35957E-005	0.00000E+000	-2.70016E-001	-2.70233E-001	8	...........
	668	267.6	-2.80165E-001	-9.50815E-005	0.00000E+000	-2.80015E-001	-2.80037E-001	8	...........
	669	268	-2.90165E-001	-9.61834E-005	0.00000E+000	-2.90013E-001	-2.90241E-001	8	...........
	670	268.4	-3.00165E-001	-9.66675E-005	0.00000E+000	-3.00012E-001	-3.00045E-001	8	...........
	671	268.8	-3.10365E-001	-9.77861E-005	0.00000E+000	-3.10011E-001	-3.10248E-001	8	...........
	672	269.2	-3.20165E-001	-9.86542E-005	0.00000E+000	-3.20010E-001	-3.20252E-001	8	...........
	673	269.6	-3.29965E-001	-9.92218E-005	0.00000E+000	-3.30008E-001	-3.30056E-001	8	...........
	674	270	-3.40165E-001	-1.00123E-004	0.00000E+000	-3.40007E-001	-3.40059E-001	8	...........
	675	270.4	-3.50165E-001	-1.01008E-004	0.00000E+000	-3.50006E-001	-3.50063E-001	8	...........
	676	270.8	-3.59965E-001	-1.01826E-004	0.00000E+000	-3.60005E-001	-3.60267E-001	8	...........
	677	271.2	-3.70165E-001	-1.02611E-004	0.00000E+000	-3.70003E-001	-3.70270E-001	8	...........
	678	271.6	-3.80165E-001	-1.03696E-004	0.00000E+000	-3.80002E-001	-3.80274E-001	8	...........
	679	272	-3.89965E-001	-1.04414E-004	0.00000E+000	-3.90001E-001	-3.90078E-001	8	...........
	680	272.4	-3.99965E-001	-1.05349E-004	0.00000E+000	-3.99999E-001	-4.00081E-001	8	...........
	681	272.8	-4.09965E-001	-1.06684E-004	0.00000E+000	-4.09998E-001	-4.10085E-001	8	...........
	682	273.2	-4.19965E-001	-1.07185E-004	0.00000E+000	-4.19997E-001	-4.20289E-001	8	...........
	683	273.6	-4.30165E-001	-1.08320E-004	0.00000E+000	-4.29996E-001	-4.29893E-001	8	...........
	684	274	-4.40165E-001	-1.08771E-004	0.00000E+000	-4.39994E-001	-4.40096E-001	8	...........
	685	274.4	-4.49765E-001	-1.10290E-004	0.00000E+000	-4.49993E-001	-4.49900E-001	8	...........
	686	274.8	-4.59965E-001	-1.10975E-004	0.00000E+000	-4.59992E-001	-4.60104E-001	8	...........
	687	275.2	-4.69965E-001	-1.11709E-004	0.00000E+000	-4.69991E-001	-4.69907E-001	8	...........
	688	275.6	-4.79765E-001	-1.12578E-004	0.00000E+000	-4.79989E-001	-4.79911E-001	8	...........
	689	276	-4.89765E-001	-1.14080E-004	0.00000E+000	-4.89988E-001	-4.89915E-001	8	...........
	690	276.4	-4.99965E-001	-1.14765E-004	0.00000E+000	-4.99987E-001	-4.99718E-001	8	...........
	691	276.8	-5.09965E-001	-1.16200E-004	0.00000E+000	-5.09986E-001	-5.09922E-001	8	...........
	692	277.2	-5.19965E-001	-1.16918E-004	0.00000E+000	-5.19984E-001	-5.20126E-001	8	...........
	693	277.6	-5.29765E-001	-1.18487E-004	0.00000E+000	-5.29983E-001	-5.29930E-001	8	...........
	694	278	-5.39965E-001	-1.19222E-004	0.00000E+000	-5.39982E-001	-5.39933E-001	8	...........
	695	278.4	-5.49965E-001	-1.20357E-004	0.00000E+000	-5.49981E-001	-5.49737E-001	8	...........
	696	278.8	-5.59965E-001	-1.21810E-004	0.00000E+000	-5.59979E-001	-5.59941E-001	8	...........
	697	279.2	-5.70165E-001	-1.23012E-004	0.00000E+000	-5.69978E-001	-5.69744E-001	8	...........
	698	279.6	-5.79965E-001	-1.24314E-004	0.00000E+000	-5.79977E-001	-5.79948E-001	8	...........
	699	280	-5.89965E-001	-1.25733E-004	0.00000E+000	-5.89975E-001	-5.89952E-001	8	...........
	700	280.4	-5.99965E-001	-1.27169E-004	0.00000E+000	-6.00024E-001	-5.99955E-001	8	...........
	701	280.8	-6.09965E-001	-1.28771E-004	0.00000E+000	-6.10023E-001	-6.09959E-001	8	...........
	702	281.2	-6.19765E-001	-1.30574E-004	0.00000E+000	-6.20022E-001	-6.19963E-001	8	...........
	703	281.6	-6.29965E-001	-1.32060E-004	0.00000E+000	-6.30020E-001	-6.29966E-001	8	...........
	704	282	-6.39965E-001	-1.33713E-004	0.00000E+000	-6.40019E-001	-6.39970E-001	8	...........
	705	282.4	-6.49765E-001	-1.35616E-004	0.00000E+000	-6.50018E-001	-6.49974E-001	8	...........
	706	282.8	-6.59765E-001	-1.38037E-004	0.00000E+000	-6.60017E-001	-6.59978E-001	8	...........
	707	283.2	-6.69765E-001	-1.39973E-004	0.00000E+000	-6.70015E-001	-6.69981E-001	8	...........
	708	283.6	-6.79765E-001	-1.42211E-004	0.00000E+000	-6.80014E-001	-6.79985E-001	8	...........
	709	284	-6.89965E-001	-1.44064E-004	0.00000E+000	-6.90013E-001	-6.89989E-001	8	...........
	710	284.4	-6.99965E-001	-1.47019E-004	0.00000E+000	-7.00012E-001	-6.99992E-001	8	...........
	711	284.8	-7.09765E-001	-1.49339E-004	0.00000E+000	-7.10010E-001	-7.09796E-001	8	...........
	712	285.2	-7.19765E-001	-1.52177E-004	0.00000E+000	-7.20009E-001	-7.20000E-001	8	...........
	713	285.6	-7.29565E-001	-1.55500E-004	0.00000E+000	-7.30008E-001	-7.29803E-001	8	...........
	714	286	-7.39765E-001	-1.58705E-004	0.00000E+000	-7.40007E-001	-7.39607E-001	8	...........
	715	286.4	-7.49765E-001	-1.62261E-004	0.00000E+000	-7.50005E-001	-7.50011E-001	8	...........
	716	286.8	-7.59765E-001	-1.66368E-004	0.00000E+000	-7.60004E-001	-7.60015E-001	8	...........
	717	287.2	-7.69965E-001	-1.70157E-004	0.00000E+000	-7.70003E-001	-7.69818E-001	8	...........
	718	287.6	-7.79765E-001	-1.74064E-004	0.00000E+000	-7.80001E-001	-7.79822E-001	8	...........
	719	288	-7.89765E-001	-1.79239E-004	0.00000E+000	-7.90000E-001	-7.89825E-001	8	...........
	720	288.4	-7.99765E-001	-1.84081E-004	0.00000E+000	-7.99999E-001	-7.99829E-001	8	...........
	721	288.8	-7.89765E-001	-1.66685E-004	0.00000E+000	-7.90000E-001	-7.89825E-001	8	...........
	722	289.2	-7.79765E-001	-1.51777E-004	0.00000E+000	-7.80001E-001	-7.79622E-001	8	...........
	723	289.6	-7.69765E-001	-1.39556E-004	0.00000E+000	-7.70003E-001	-7.69818E-001	8	...........
	724	290	-7.59765E-001	-1.28287E-004	0.00000E+000	-7.60004E-001	-7.59614E-001	8	...........
	725	290.4	-7.49965E-001	-1.18003E-004	0.00000E+000	-7.50005E-001	-7.49811E-001	8	...........
	726	290.8	-7.39965E-001	-1.08537E-004	0.00000E+000	-7.40007E-001	-7.40007E-001	8	...........
	727	291.2	-7.29965E-001	-9.98562E-005	0.00000E+000	-7.30008E-001	-7.29803E-001	8	...........
	728	291.6	-7.19765E-001	-9.17927E-005	0.00000E+000	-7.20009E-001	-7.19600E-001	8	...........
	729	292	-7.09965E-001	-8.42467E-005	0.00000E+000	-7.10010E-001	-7.09996E-001	8	...........
	730	292.4	-6.99965E-001	-7.79361E-005	0.00000E+000	-7.00012E-001	-6.99992E-001	8	...........
	731	292.8	-6.89965E-001	-7.07574E-005	0.00000E+000	-6.90013E-001	-6.89789E-001	8	...........
	732	293.2	-6.79765E-001	-6.52481E-005	0.00000E+000	-6.80014E-001	-6.79985E-001	8	...........
	733	293.6	-6.69965E-001	-5.93716E-005	0.00000E+000	-6.70015E-001	-6.69981E-001	8	...........
	734	294	-6.59765E-001	-5.42964E-005	0.00000E+000	-6.60017E-001	-6.59978E-001	8	...........
	735	294.4	-6.49965E-001	-4.88707E-005	0.00000E+000	-6.50018E-001	-6.49974E-001	8	...........
	736	294.8	-6.39965E-001	-4.43130E-005	0.00000E+000	-6.40019E-001	-6.39970E-001	8	...........
	737	295.2	-6.29965E-001	-4.01226E-005	0.00000E+000	-6.30020E-001	-6.29966E-001	8	...........
	738	295.6	-6.19965E-001	-3.56439E-005	0.00000E+000	-6.20022E-001	-6.19963E-001	7	...........
	739	296	-6.09965E-001	-3.17958E-005	0.00000E+000	-6.10023E-001	-6.09959E-001	7	...........
	740	296.4	-5.99965E-001	-2.79444E-005	0.00000E+000	-6.00024E-001	-5.99755E-001	7	...........
	741	296.8	-5.89965E-001	-2.43385E-005	0.00000E+000	-5.89975E-001	-5.89952E-001	7	...........
	742	297.2	-5.79965E-001	-2.06574E-005	0.00000E+000	-5.79977E-001	-5.79948E-001	7	...........
	743	297.6	-5.69965E-001	-1.73805E-005	0.00000E+000	-5.69978E-001	-5.69944E-001	7	...........
	744	298	-5.59965E-001	-1.42806E-005	0.00000E+000	-5.59979E-001	-5.59941E-001	7	...........
	745	298.4	-5.49965E-001	-1.11958E-005	0.00000E+000	-5.49981E-001	-5.49937E-001	7	...........
	746	298.8	-5.39765E-001	-8.19613E-006	0.00000E+000	-5.39982E-001	-5.39933E-001	7	...........
	747	299.2	-5.29965E-001	-5.57561E-006	0.00000E+000	-5.29983E-001	-5.29930E-001	7	...........
	748	299.6	-5.20165E-001	-2.79809E-006	0.00000E+000	-5.19984E-001	-5.19926E-001	7	...........
	749	300	-5.09965E-001	-5.56512E-008	0.00000E+000	-5.09986E-001	-5.09922E-001	7	...........
	750	300.4	-4.99965E-001	2.45297E-006	0.00000E+000	-4.99987E-001	-5.00319E-001	7	...........
	751	300.8	-4.89965E-001	4.89311E-006	0.00000E+000	-4.89988E-001	-4.89915E-001	7	...........
	752	301.2	-4.79965E-001	7.18627E-006	0.00000E+000	-4.79989E-001	-4.79911E-001	7	...........
	753	301.6	-4.69965E-001	9.60804E-006	0.00000E+000	-4.69991E-001	-4.69907E-001	7	...........
	754	302	-4.59965E-001	1.17993E-005	0.00000E+000	-4.59992E-001	-4.59904E-001	7	...........
	755	302.4	-4.49965E-001	1.40357E-005	0.00000E+000	-4.49993E-001	-4.50100E-001	7	...........
	756	302.8	-4.39965E-001	1.60750E-005	0.00000E+000	-4.39994E-001	-4.40096E-001	7	...........
	757	303.2	-4.29965E-001	1.82145E-005	0.00000E+000	-4.29996E-001	-4.30093E-001	7	...........
	758	303.6	-4.19965E-001	2.03941E-005	0.00000E+000	-4.19997E-001	-4.20089E-001	7	...........
	759	304	-4.09965E-001	2.21077E-005	0.00000E+000	-4.09998E-001	-4.10085E-001	7	...........
	760	304.4	-4.00165E-001	2.43174E-005	0.00000E+000	-3.99999E-001	-4.00081E-001	7	...........
	761	304.8	-3.89765E-001	2.60560E-005	0.00000E+000	-3.90001E-001	-3.90078E-001	7	...........
	762	305.2	-3.79965E-001	2.78715E-005	0.00000E+000	-3.80002E-001	-3.80074E-001	7	...........
	763	305.6	-3.69965E-001	2.94097E-005	0.00000E+000	-3.70003E-001	-3.70070E-001	7	...........
	764	306	-3.60165E-001	3.13472E-005	0.00000E+000	-3.60005E-001	-3.60267E-001	7	...........
	765	306.4	-3.50365E-001	3.31259E-005	0.00000E+000	-3.50006E-001	-3.50063E-001	7	...........
	766	306.8	-3.40165E-001	3.47293E-005	0.00000E+000	-3.40007E-001	-3.40259E-001	7	...........
	767	307.2	-3.29965E-001	3.63928E-005	0.00000E+000	-3.30008E-001	-3.30056E-001	7	...........
	768	307.6	-3.20165E-001	3.77473E-005	0.00000E+000	-3.20010E-001	-3.20252E-001	7	...........
	769	308	-3.10165E-001	3.96814E-005	0.00000E+000	-3.10011E-001	-3.10248E-001	7	...........
	770	308.4	-3.00165E-001	4.11562E-005	0.00000E+000	-3.00012E-001	-3.00245E-001	7	...........
	771	308.8	-2.90165E-001	4.26577E-005	0.00000E+000	-2.90013E-001	-2.90241E-001	7	...........
	772	309.2	-2.80165E-001	4.41675E-005	0.00000E+000	-2.80015E-001	-2.80237E-001	7	...........
	773	309.6	-2.70165E-001	4.58043E-005	0.00000E+000	-2.70016E-001	-2.70434E-001	7	...........
	774	310	-2.60165E-001	4.69568E-005	0.00000E+000	-2.60017E-001	-2.60230E-001	8	...........
	775	310.4	-2.50165E-001	4.84259E-005	0.00000E+000	-2.50018E-001	-2.50426E-001	8	...........
	776	310.8	-2.39965E-001	5.00787E-005	0.00000E+000	-2.40020E-001	-2.40022E-001	8	...........
	777	311.2	-2.30165E-001	5.09134E-005	0.00000E+000	-2.30021E-001	-2.30219E-001	8	...........
	778	311.6	-2.20165E-001	5.22490E-005	0.00000E+000	-2.20022E-001	-2.20215E-001	8	...........
	779	312	-2.10365E-001	5.37849E-005	0.00000E+000	-2.10023E-001	-2.10411E-001	8	...........
	780	312.4	-2.00165E-001	5.50036E-005	0.00000E+000	-2.00025E-001	-2.00208E-001	8	...........
	781	312.8	-1.90165E-001	5.64727E-005	0.00000E+000	-1.89976E-001	-1.90204E-001	8	...........
	782	313.2	-1.80165E-001	5.78584E-005	0.00000E+000	-1.79977E-001	-1.80400E-001	8	...........
	783	313.6	-1.70365E-001	5.88100E-005	0.00000E+000	-1.69979E-001	-1.70397E-001	8	...........
	784	314	-1.60165E-001	6.02958E-005	0.00000E+000	-1.59980E-001	-1.60393E-001	8	...........
	785	314.4	-1.50165E-001	6.12975E-005	0.00000E+000	-1.49981E-001	-1.50389E-001	8	...........
	786	314.8	-1.39965E-001	6.25997E-005	0.00000E+000	-1.39982E-001	-1.40385E-001	8	...........
	787	315.2	-1.30165E-001	6.35012E-005	0.00000E+000	-1.29984E-001	-1.30182E-001	8	...........
	788	315.6	-1.20165E-001	6.51373E-005	0.00000E+000	-1.19985E-001	-1.19978E-001	8	...........
	789	316	-1.10165E-001	6.62725E-005	0.00000E+000	-1.09986E-001	-1.10374E-001	8	...........
	790	316.4	-9.99651E-002	6.70738E-005	0.00000E+000	-9.99874E-002	-1.00371E-001	8	...........
	791	316.8	-9.01651E-002	6.82258E-005	0.00000E+000	-8.99886E-002	-9.03670E-002	8	...........
	792	317.2	-8.01651E-002	6.93109E-005	0.00000E+000	-7.99899E-002	-8.05634E-002	8	...........
	793	317.6	-7.01651E-002	7.07801E-005	0.00000E+000	-6.99912E-002	-7.03596E-002	8	...........
	794	318	-6.03651E-002	7.15480E-005	0.00000E+000	-5.99924E-002	-6.03559E-002	8	...........
	795	318.4	-5.03651E-002	7.29337E-005	0.00000E+000	-4.99937E-002	-5.03522E-002	8	...........
	796	318.8	-4.01651E-002	7.38352E-005	0.00000E+000	-3.99949E-002	-4.03485E-002	8	...........
	797	319.2	-3.03651E-002	7.50038E-005	0.00000E+000	-2.99962E-002	-3.05449E-002	8	...........
	798	319.6	-2.03651E-002	7.60055E-005	0.00000E+000	-1.99975E-002	-2.05412E-002	8	...........
	799	320	-1.03651E-002	7.65731E-005	0.00000E+000	-9.99874E-003	-1.05375E-002	8	...........
	800	320.4	-3.65120E-004	7.78920E-005	0.00000E+000	0.00000E+000	-3.33723E-004	8	...........
	801	320.8	9.63488E-003	7.92276E-005	0.00000E+000	9.99874E-003	9.46990E-003	8	...........
	802	321.2	1.98349E-002	7.99121E-005	0.00000E+000	1.99975E-002	1.94736E-002	8	...........
	803	321.6	2.96349E-002	8.07802E-005	0.00000E+000	2.99962E-002	2.96774E-002	8	...........
	804	322	3.98349E-002	8.17985E-005	0.00000E+000	3.99949E-002	3.94810E-002	8	...........
	805	322.4	4.96349E-002	8.28670E-005	0.00000E+000	4.99937E-002	4.94847E-002	8	...........
	806	322.8	5.98349E-002	8.35515E-005	0.00000E+000	5.99924E-002	5.94884E-002	8	...........
	807	323.2	6.96349E-002	8.50874E-005	0.00000E+000	6.99912E-002	6.92920E-002	8	...........
	808	323.6	7.96349E-002	8.60557E-005	0.00000E+000	7.99899E-002	7.96959E-002	8	...........
	809	324	8.94349E-002	8.69071E-005	0.00000E+000	8.99886E-002	8.96996E-002	8	...........
	810	324.4	9.96349E-002	8.77085E-005	0.00000E+000	9.99874E-002	9.95032E-002	8	...........
	811	324.8	1.09635E-001	8.88270E-005	0.00000E+000	1.09986E-001	1.09307E-001	8	...........
	812	325.2	1.19635E-001	8.97619E-005	0.00000E+000	1.19985E-001	1.19511E-001	8	...........
	813	325.6	1.29635E-001	9.06968E-005	0.00000E+000	1.29984E-001	1.29514E-001	8	...........
	814	326	1.39635E-001	9.10641E-005	0.00000E+000	1.39982E-001	1.39518E-001	8	...........
	815	326.4	1.49435E-001	9.18487E-005	0.00000E+000	1.49981E-001	1.49522E-001	8	...........
	816	326.8	1.59435E-001	9.33179E-005	0.00000E+000	1.59980E-001	1.59725E-001	8	...........
	817	327.2	1.69435E-001	9.38187E-005	0.00000E+000	1.69979E-001	1.69329E-001	8	...........
	818	327.6	1.79635E-001	9.43530E-005	0.00000E+000	1.79977E-001	1.79333E-001	8	...........
	819	328	1.89635E-001	9.55383E-005	0.00000E+000	1.89976E-001	1.89536E-001	8	...........
	820	328.4	1.99435E-001	9.61560E-005	0.00000E+000	2.00025E-001	1.99540E-001	8	...........
	821	328.8	2.09435E-001	9.70241E-005	0.00000E+000	2.10023E-001	2.09344E-001	8	...........
	822	329.2	2.19635E-001	9.77754E-005	0.00000E+000	2.20022E-001	2.19347E-001	8	...........
	823	329.6	2.29635E-001	9.85767E-005	0.00000E+000	2.30021E-001	2.29351E-001	8	...........
	824	330	2.39635E-001	9.95617E-005	0.00000E+000	2.40020E-001	2.39355E-001	8	...........
	825	330.4	2.49435E-001	1.00163E-004	0.00000E+000	2.50018E-001	2.49359E-001	8	...........
	826	330.8	2.59635E-001	1.00697E-004	0.00000E+000	2.60017E-001	2.59362E-001	8	...........
	827	331.2	2.69635E-001	1.01982E-004	0.00000E+000	2.70016E-001	2.69566E-001	8	...........
	828	331.6	2.79435E-001	1.02500E-004	0.00000E+000	2.80015E-001	2.79170E-001	8	...........
	829	332	2.89635E-001	1.02800E-004	0.00000E+000	2.90013E-001	2.89173E-001	8	...........
	830	332.4	2.99435E-001	1.03635E-004	0.00000E+000	3.00012E-001	2.99177E-001	8	...........
	831	332.8	3.09635E-001	1.03986E-004	0.00000E+000	3.10011E-001	3.09381E-001	8	...........
	832	333.2	3.19435E-001	1.04353E-004	0.00000E+000	3.20010E-001	3.19384E-001	8	...........
	833	333.6	3.29635E-001	1.05004E-004	0.00000E+000	3.30008E-001	3.29188E-001	8	...........
	834	334	3.39435E-001	1.05956E-004	0.00000E+000	3.40007E-001	3.39392E-001	8	...........
	835	334.4	3.49635E-001	1.06473E-004	0.00000E+000	3.50006E-001	3.49396E-001	8	...........
	836	334.8	3.59235E-001	1.07158E-004	0.00000E+000	3.60005E-001	3.59399E-001	8	...........
	837	335.2	3.69435E-001	1.07742E-004	0.00000E+000	3.70003E-001	3.69203E-001	8	...........
	838	335.6	3.79435E-001	1.08310E-004	0.00000E+000	3.80002E-001	3.79207E-001	8	...........
	839	336	3.89435E-001	1.08660E-004	0.00000E+000	3.90001E-001	3.89210E-001	8	...........
	840	336.4	3.99435E-001	1.09261E-004	0.00000E+000	3.99999E-001	3.99214E-001	8	...........
	841	336.8	4.09435E-001	1.09829E-004	0.00000E+000	4.09998E-001	4.09218E-001	8	...........
	842	337.2	4.19235E-001	1.09912E-004	0.00000E+000	4.19997E-001	4.19221E-001	8	...........
	843	337.6	4.29235E-001	1.10647E-004	0.00000E+000	4.29996E-001	4.29225E-001	8	...........
	844	338	4.39435E-001	1.11298E-004	0.00000E+000	4.39994E-001	4.39229E-001	8	...........
	845	338.4	4.49435E-001	1.11315E-004	0.00000E+000	4.49993E-001	4.49232E-001	8	...........
	846	338.8	4.59435E-001	1.11498E-004	0.00000E+000	4.59992E-001	4.59036E-001	8	...........
	847	339.2	4.69435E-001	1.11999E-004	0.00000E+000	4.69991E-001	4.69240E-001	8	...........
	848	339.6	4.79435E-001	1.12917E-004	0.00000E+000	4.79989E-001	4.79043E-001	8	...........
	849	340	4.89435E-001	1.13134E-004	0.00000E+000	4.89988E-001	4.89247E-001	8	...........
	850	340.4	4.99235E-001	1.13385E-004	0.00000E+000	4.99987E-001	4.99251E-001	8	...........
	851	340.8	5.09435E-001	1.13552E-004	0.00000E+000	5.09986E-001	5.09055E-001	8	...........
	852	341.2	5.19235E-001	1.14837E-004	0.00000E+000	5.19984E-001	5.19058E-001	8	...........
	853	341.6	5.29435E-001	1.14670E-004	0.00000E+000	5.29983E-001	5.29062E-001	8	...........
	854	342	5.39435E-001	1.14971E-004	0.00000E+000	5.39982E-001	5.39066E-001	8	...........
	855	342.4	5.49435E-001	1.15472E-004	0.00000E+000	5.49981E-001	5.49269E-001	8	...........
	856	342.8	5.59235E-001	1.15538E-004	0.00000E+000	5.59979E-001	5.59073E-001	8	...........
	857	343.2	5.69435E-001	1.16457E-004	0.00000E+000	5.69978E-001	5.69277E-001	8	...........
	858	343.6	5.79235E-001	1.16557E-004	0.00000E+000	5.79977E-001	5.79080E-001	8	...........
	859	344	5.89235E-001	1.17074E-004	0.00000E+000	5.89975E-001	5.89084E-001	8	...........
	860	344.4	5.99435E-001	1.17175E-004	0.00000E+000	6.00024E-001	5.99088E-001	8	...........
	861	344.8	6.09235E-001	1.17759E-004	0.00000E+000	6.10023E-001	6.08891E-001	8	...........
	862	345.2	6.19235E-001	1.18109E-004	0.00000E+000	6.20022E-001	6.19095E-001	8	...........
	863	345.6	6.29435E-001	1.18944E-004	0.00000E+000	6.30020E-001	6.29099E-001	8	...........
	864	346	6.39435E-001	1.18961E-004	0.00000E+000	6.40019E-001	6.39303E-001	8	...........
	865	346.4	6.49235E-001	1.19562E-004	0.00000E+000	6.50018E-001	6.49106E-001	8	...........
	866	346.8	6.59435E-001	1.19963E-004	0.00000E+000	6.60017E-001	6.58910E-001	8	...........
	867	347.2	6.69235E-001	1.20564E-004	0.00000E+000	6.70015E-001	6.69114E-001	8	...........
	868	347.6	6.79235E-001	1.20998E-004	0.00000E+000	6.80014E-001	6.78917E-001	8	...........
	869	348	6.89435E-001	1.21699E-004	0.00000E+000	6.90013E-001	6.88921E-001	8	...........
	870	348.4	6.99235E-001	1.22534E-004	0.00000E+000	7.00012E-001	6.99125E-001	8	...........
	871	348.8	7.09235E-001	1.22801E-004	0.00000E+000	7.10010E-001	7.08928E-001	8	...........
	872	349.2	7.19435E-001	1.23669E-004	0.00000E+000	7.20009E-001	7.19132E-001	8	...........
	873	349.6	7.29435E-001	1.24687E-004	0.00000E+000	7.30008E-001	7.28936E-001	8	...........
	874	350	7.39235E-001	1.25021E-004	0.00000E+000	7.40007E-001	7.39140E-001	8	...........
	875	350.4	7.49235E-001	1.25889E-004	0.00000E+000	7.50005E-001	7.49143E-001	8	...........
	876	350.8	7.59035E-001	1.26841E-004	0.00000E+000	7.60004E-001	7.59147E-001	8	...........
	877	351.2	7.69235E-001	1.27709E-004	0.00000E+000	7.70003E-001	7.68951E-001	8	...........
	878	351.6	7.79435E-001	1.28794E-004	0.00000E+000	7.80001E-001	7.78954E-001	8	...........
	879	352	7.89235E-001	1.30630E-004	0.00000E+000	7.90000E-001	7.89158E-001	8	...........
	880	352.4	7.99235E-001	1.31415E-004	0.00000E+000	7.99999E-001	7.98962E-001	8	...........
CURVE4	TABLE
	Pt	T	Vf	Im	Vu	Sig	Ach	IERange	Over
	#	s	V vs. Ref.	A	V	V	V	#	bits
	881	352.8	7.89035E-001	1.18710E-004	0.00000E+000	7.90000E-001	7.88958E-001	8	...........
	882	353.2	7.79435E-001	1.07892E-004	0.00000E+000	7.80001E-001	7.78954E-001	8	...........
	883	353.6	7.69235E-001	9.81760E-005	0.00000E+000	7.70003E-001	7.68951E-001	8	...........
	884	354	7.59235E-001	8.98955E-005	0.00000E+000	7.60004E-001	7.58947E-001	8	...........
	885	354.4	7.49235E-001	8.24496E-005	0.00000E+000	7.50005E-001	7.48943E-001	8	...........
	886	354.8	7.39235E-001	7.52542E-005	0.00000E+000	7.40007E-001	7.38940E-001	8	...........
	887	355.2	7.29235E-001	6.89103E-005	0.00000E+000	7.30008E-001	7.29136E-001	8	...........
	888	355.6	7.19235E-001	6.30170E-005	0.00000E+000	7.20009E-001	7.19132E-001	8	...........
	889	356	7.09235E-001	5.76414E-005	0.00000E+000	7.10010E-001	7.09129E-001	8	...........
	890	356.4	6.99235E-001	5.23158E-005	0.00000E+000	7.00012E-001	6.99125E-001	8	...........
	891	356.8	6.89235E-001	4.74576E-005	0.00000E+000	6.90013E-001	6.88921E-001	8	...........
	892	357.2	6.79235E-001	4.28165E-005	0.00000E+000	6.80014E-001	6.79117E-001	8	...........
	893	357.6	6.69435E-001	3.87764E-005	0.00000E+000	6.70015E-001	6.68914E-001	8	...........
	894	358	6.59235E-001	3.46742E-005	0.00000E+000	6.60017E-001	6.59110E-001	7	...........
	895	358.4	6.49435E-001	3.08745E-005	0.00000E+000	6.50018E-001	6.48906E-001	7	...........
	896	358.8	6.39235E-001	2.73337E-005	0.00000E+000	6.40019E-001	6.39103E-001	7	...........
	897	359.2	6.29435E-001	2.38965E-005	0.00000E+000	6.30020E-001	6.29099E-001	7	...........
	898	359.6	6.19435E-001	2.06129E-005	0.00000E+000	6.20022E-001	6.19095E-001	7	...........
	899	360	6.09235E-001	1.72926E-005	0.00000E+000	6.10023E-001	6.09092E-001	7	...........
	900	360.4	5.99435E-001	1.43864E-005	0.00000E+000	6.00024E-001	5.99088E-001	7	...........
	901	360.8	5.89235E-001	1.15672E-005	0.00000E+000	5.89975E-001	5.89084E-001	7	...........
	902	361.2	5.79235E-001	8.77796E-006	0.00000E+000	5.79977E-001	5.79080E-001	7	...........
	903	361.6	5.69235E-001	6.27268E-006	0.00000E+000	5.69978E-001	5.69077E-001	7	...........
	904	362	5.59435E-001	3.95112E-006	0.00000E+000	5.59979E-001	5.59073E-001	7	...........
	905	362.4	5.49435E-001	1.28050E-006	0.00000E+000	5.49981E-001	5.49069E-001	7	...........
	906	362.8	5.39435E-001	-9.57551E-007	0.00000E+000	5.39982E-001	5.39066E-001	7	...........
	907	363.2	5.29435E-001	-3.21397E-006	0.00000E+000	5.29983E-001	5.29262E-001	7	...........
	908	363.6	5.19435E-001	-5.33176E-006	0.00000E+000	5.19984E-001	5.19258E-001	7	...........
	909	364	5.09435E-001	-7.45791E-006	0.00000E+000	5.09986E-001	5.09055E-001	7	...........
	910	364.4	4.99235E-001	-9.20659E-006	0.00000E+000	4.99987E-001	4.99251E-001	7	...........
	911	364.8	4.89435E-001	-1.13578E-005	0.00000E+000	4.89988E-001	4.89247E-001	7	...........
	912	365.2	4.79435E-001	-1.31983E-005	0.00000E+000	4.79989E-001	4.79043E-001	7	...........
	913	365.6	4.69435E-001	-1.47616E-005	0.00000E+000	4.69991E-001	4.69240E-001	7	...........
	914	366	4.59435E-001	-1.67775E-005	0.00000E+000	4.59992E-001	4.59236E-001	7	...........
	915	366.4	4.49635E-001	-1.82423E-005	0.00000E+000	4.49993E-001	4.49232E-001	7	...........
	916	366.8	4.39635E-001	-1.99826E-005	0.00000E+000	4.39994E-001	4.39229E-001	7	...........
	917	367.2	4.29635E-001	-2.17580E-005	0.00000E+000	4.29996E-001	4.29225E-001	7	...........
	918	367.6	4.19435E-001	-2.29338E-005	0.00000E+000	4.19997E-001	4.19021E-001	7	...........
	919	368	4.09435E-001	-2.46692E-005	0.00000E+000	4.09998E-001	4.09218E-001	7	...........
	920	368.4	3.99635E-001	-2.62291E-005	0.00000E+000	3.99999E-001	3.99214E-001	7	...........
	921	368.8	3.89635E-001	-2.74717E-005	0.00000E+000	3.90001E-001	3.89210E-001	7	...........
	922	369.2	3.79635E-001	-2.89498E-005	0.00000E+000	3.80002E-001	3.79007E-001	7	...........
	923	369.6	3.69635E-001	-3.02660E-005	0.00000E+000	3.70003E-001	3.69203E-001	7	...........
	924	370	3.59435E-001	-3.13866E-005	0.00000E+000	3.60005E-001	3.59399E-001	7	...........
	925	370.4	3.49635E-001	-3.29750E-005	0.00000E+000	3.50006E-001	3.49195E-001	7	...........
	926	370.8	3.39435E-001	-3.42076E-005	0.00000E+000	3.40007E-001	3.39192E-001	7	...........
	927	371.2	3.29635E-001	-3.53901E-005	0.00000E+000	3.30008E-001	3.29388E-001	7	...........
	928	371.6	3.19435E-001	-3.65008E-005	0.00000E+000	3.20010E-001	3.19184E-001	7	...........
	929	372	3.09635E-001	-3.78336E-005	0.00000E+000	3.10011E-001	3.09381E-001	7	...........
	930	372.4	2.99635E-001	-3.90678E-005	0.00000E+000	3.00012E-001	2.99577E-001	7	...........
	931	372.8	2.89435E-001	-4.02119E-005	0.00000E+000	2.90013E-001	2.89373E-001	7	...........
	932	373.2	2.79435E-001	-4.11840E-005	0.00000E+000	2.80015E-001	2.79370E-001	7	...........
	933	373.6	2.69635E-001	-4.24566E-005	0.00000E+000	2.70016E-001	2.69566E-001	7	...........
	934	374	2.59435E-001	-4.35573E-005	0.00000E+000	2.60017E-001	2.59362E-001	7	...........
	935	374.4	2.49435E-001	-4.48083E-005	0.00000E+000	2.50018E-001	2.49359E-001	7	...........
	936	374.8	2.39635E-001	-4.57988E-005	0.00000E+000	2.40020E-001	2.39355E-001	8	...........
	937	375.2	2.29635E-001	-4.69842E-005	0.00000E+000	2.30021E-001	2.29351E-001	8	...........
	938	375.6	2.19435E-001	-4.80192E-005	0.00000E+000	2.20022E-001	2.19347E-001	8	...........
	939	376	2.09435E-001	-4.92546E-005	0.00000E+000	2.10023E-001	2.09344E-001	8	...........
	940	376.4	1.99635E-001	-5.01228E-005	0.00000E+000	2.00025E-001	1.99540E-001	8	...........
	941	376.8	1.89635E-001	-5.15585E-005	0.00000E+000	1.89976E-001	1.89336E-001	8	...........
	942	377.2	1.79635E-001	-5.21428E-005	0.00000E+000	1.79977E-001	1.79533E-001	8	...........
	943	377.6	1.69635E-001	-5.37121E-005	0.00000E+000	1.69979E-001	1.69329E-001	8	...........
	944	378	1.59635E-001	-5.46971E-005	0.00000E+000	1.59980E-001	1.59325E-001	8	...........
	945	378.4	1.49635E-001	-5.54150E-005	0.00000E+000	1.49981E-001	1.49522E-001	8	...........
	946	378.8	1.39635E-001	-5.65502E-005	0.00000E+000	1.39982E-001	1.39318E-001	8	...........
	947	379.2	1.29635E-001	-5.72347E-005	0.00000E+000	1.29984E-001	1.29514E-001	8	...........
	948	379.6	1.19635E-001	-5.85536E-005	0.00000E+000	1.19985E-001	1.19511E-001	8	...........
	949	380	1.09635E-001	-5.96387E-005	0.00000E+000	1.09986E-001	1.09307E-001	8	...........
	950	380.4	9.98349E-002	-6.05903E-005	0.00000E+000	9.99874E-002	9.93031E-002	8	...........
	951	380.8	8.96349E-002	-6.14918E-005	0.00000E+000	8.99886E-002	8.94995E-002	8	...........
	952	381.2	7.96349E-002	-6.27105E-005	0.00000E+000	7.99899E-002	7.94958E-002	8	...........
	953	381.6	6.96349E-002	-6.33449E-005	0.00000E+000	6.99912E-002	6.94921E-002	8	...........
	954	382	5.96349E-002	-6.43466E-005	0.00000E+000	5.99924E-002	5.94884E-002	8	...........
	955	382.4	4.98349E-002	-6.55319E-005	0.00000E+000	4.99937E-002	4.94847E-002	8	...........
	956	382.8	3.96349E-002	-6.63333E-005	0.00000E+000	3.99949E-002	3.94810E-002	8	...........
	957	383.2	2.98349E-002	-6.75353E-005	0.00000E+000	2.99962E-002	2.94773E-002	8	...........
	958	383.6	1.96349E-002	-6.82365E-005	0.00000E+000	1.99975E-002	1.94736E-002	8	...........
	959	384	9.63488E-003	-6.95220E-005	0.00000E+000	9.99874E-003	9.46990E-003	8	...........
	960	384.4	-1.65120E-004	-6.99894E-005	0.00000E+000	0.00000E+000	-5.33797E-004	8	...........
