EXPLAIN
TAG	CV
TITLE	LABEL	Cyclic Voltammetry	Test Identifier
DATE	LABEL	7-7-2017	Date
TIME	LABEL	15:10:05	Time
NOTES	NOTES	1	Notes...
	2.8mg

PSTAT	PSTAT	IFC5000-01520	Potentiostat
VINIT	POTEN	0.00000E+000	F	Initial E (V)
VLIMIT1	POTEN	-8.00000E-001	F	Scan Limit 1 (V)
VLIMIT2	POTEN	8.00000E-001	F	Scan Limit 2 (V)
VFINAL	POTEN	0.00000E+000	F	Final E (V)
SCANRATE	QUANT	2.50000E+001	A Real Number
STEPSIZE	QUANT	1.00000E+001	Step Size (mV)
CYCLES	IQUANT	3	Cycles (#)
IMODE	SELECTOR	0	I/E Range Mode
IRANGE	QUANT	2.50000E+002	Max Current (mA)
AREA	QUANT	3.84800E-001	A Real Number
EQDELAY	QUANT	1.00000E+000	Equil. Time (s)
IRCOMP	SELECTOR	0	IRComp
PFCOR	QUANT	2.50000E+002	PF Corr. (ohm)
SAMPLINGMODE	SELECTOR	0	Sampling Mode
EOC	QUANT	0	Open Circuit (V)
SEQUENCER	TOGGLE	TRUE	Run as Sequence
PSTATMODEL	IQUANT	53	Pstat Model
PSTATSECTION	LABEL	IFC5000-01520	Pstat Section
PSTATSERIALNO	LABEL	01520	Pstat Serial Number
CTRLMODE	IQUANT	1	Control Mode
ELECTROMETER	IQUANT	0	RE=0 or CS=1
IESTAB	IQUANT	2	I/E Stability
CASPEED	IQUANT	4	Control Amp Speed
CONVENTION	IQUANT	1	Current Convention
ICHRANGE	IQUANT	2	Ich Range
ICHRANGEMODE	TOGGLE	F	Ich Auto Range
ICHOFFSETENABLE	TOGGLE	F	Ich Offset Enable
ICHOFFSET	QUANT	0	Ich Offset (V)
ICHFILTER	IQUANT	3	Ich Filter
VCHRANGE	IQUANT	2	Vch Range
VCHRANGEMODE	TOGGLE	F	Vch Auto Range
VCHOFFSETENABLE	TOGGLE	F	Vch Offset Enable
VCHOFFSET	QUANT	0	Vch Offset (V)
VCHFILTER	IQUANT	3	Vch Filter
IERANGELOWERLIMIT	IQUANT	7	I/E Range Lower Limit
IERANGEMODE	TOGGLE	T	I/E AutoRange
IERANGE	IQUANT	11	I/E Range
ACHSELECT	IQUANT	1	Ach Select
ACHRANGE	IQUANT	2	Ach Range
ACHOFFSETENABLE	TOGGLE	F	Ach Offset Enable
ACHOFFSET	QUANT	0	Ach Offset (V)
ACHFILTER	IQUANT	1	Ach Filter
CABLEID	IQUANT	14	Cable ID
DCCALDATE	LABEL	5-7-2017	DC Calibration Date
ACCALDATE	LABEL	12/3/2015	AC Calibration Date
FRAMEWORKVERSION	QUANT	7.01	Framework Version
INSTRUMENTVERSION	LABEL	4.00	Instrument Version
CURVE1	TABLE
	Pt	T	Vf	Im	Vu	Sig	Ach	IERange	Over
	#	s	V vs. Ref.	A	V	V	V	#	bits
	0	0.4	-3.65120E-004	-2.20028E-005	0.00000E+000	0.00000E+000	-7.33871E-004	11	...........
	1	0.8	-1.01651E-002	1.13418E-006	0.00000E+000	-9.99874E-003	-1.05375E-002	10	...........
	2	1.2	-2.03651E-002	2.79992E-007	0.00000E+000	-1.99975E-002	-2.05412E-002	9	...........
	3	1.6	-3.03651E-002	-2.35930E-006	0.00000E+000	-2.99962E-002	-3.05449E-002	8	...........
	4	2	-4.05651E-002	-4.80399E-006	0.00000E+000	-3.99949E-002	-4.05486E-002	7	...........
	5	2.4	-5.03651E-002	-7.07544E-006	0.00000E+000	-4.99937E-002	-5.05523E-002	7	...........
	6	2.8	-6.03651E-002	-9.55399E-006	0.00000E+000	-5.99924E-002	-6.05560E-002	7	...........
	7	3.2	-7.01651E-002	-1.15515E-005	0.00000E+000	-6.99912E-002	-7.03596E-002	7	...........
	8	3.6	-8.03651E-002	-1.38146E-005	0.00000E+000	-7.99899E-002	-8.03633E-002	7	...........
	9	4	-9.01651E-002	-1.56318E-005	0.00000E+000	-8.99886E-002	-9.05671E-002	7	...........
	10	4.4	-1.00365E-001	-1.76377E-005	0.00000E+000	-9.99874E-002	-1.00371E-001	7	...........
	11	4.8	-1.10365E-001	-1.95818E-005	0.00000E+000	-1.09986E-001	-1.10174E-001	7	...........
	12	5.2	-1.20365E-001	-2.15509E-005	0.00000E+000	-1.19985E-001	-1.20578E-001	7	...........
	13	5.6	-1.30365E-001	-2.35435E-005	0.00000E+000	-1.29984E-001	-1.30382E-001	7	...........
	14	6	-1.40365E-001	-2.50817E-005	0.00000E+000	-1.39982E-001	-1.40385E-001	7	...........
	15	6.4	-1.50365E-001	-2.70024E-005	0.00000E+000	-1.49981E-001	-1.50389E-001	7	...........
	16	6.8	-1.60365E-001	-2.87611E-005	0.00000E+000	-1.59980E-001	-1.60393E-001	7	...........
	17	7.2	-1.70165E-001	-3.05749E-005	0.00000E+000	-1.69979E-001	-1.70597E-001	7	...........
	18	7.6	-1.80365E-001	-3.22485E-005	0.00000E+000	-1.79977E-001	-1.80400E-001	7	...........
	19	8	-1.90165E-001	-3.39153E-005	0.00000E+000	-1.89976E-001	-1.90404E-001	7	...........
	20	8.4	-2.00365E-001	-3.57341E-005	0.00000E+000	-2.00025E-001	-2.00208E-001	7	...........
	21	8.8	-2.10365E-001	-3.75396E-005	0.00000E+000	-2.10023E-001	-2.10411E-001	7	...........
	22	9.2	-2.20365E-001	-3.92933E-005	0.00000E+000	-2.20022E-001	-2.20415E-001	7	...........
	23	9.6	-2.30365E-001	-4.10420E-005	0.00000E+000	-2.30021E-001	-2.30219E-001	7	...........
	24	10	-2.40365E-001	-4.28725E-005	0.00000E+000	-2.40020E-001	-2.40422E-001	7	...........
	25	10.4	-2.50165E-001	-4.43974E-005	0.00000E+000	-2.50018E-001	-2.50226E-001	7	...........
	26	10.8	-2.60165E-001	-4.60592E-005	0.00000E+000	-2.60017E-001	-2.60430E-001	7	...........
	27	11.2	-2.70165E-001	-4.76019E-005	0.00000E+000	-2.70016E-001	-2.70434E-001	8	...........
	28	11.6	-2.80165E-001	-4.93882E-005	0.00000E+000	-2.80015E-001	-2.80237E-001	8	...........
	29	12	-2.90165E-001	-5.10911E-005	0.00000E+000	-2.90013E-001	-2.90441E-001	8	...........
	30	12.4	-3.00365E-001	-5.25769E-005	0.00000E+000	-3.00012E-001	-3.00245E-001	8	...........
	31	12.8	-3.10365E-001	-5.46136E-005	0.00000E+000	-3.10011E-001	-3.10248E-001	8	...........
	32	13.2	-3.20365E-001	-5.64500E-005	0.00000E+000	-3.20010E-001	-3.20252E-001	8	...........
	33	13.6	-3.30165E-001	-5.81195E-005	0.00000E+000	-3.30008E-001	-3.30056E-001	8	...........
	34	14	-3.40365E-001	-5.94885E-005	0.00000E+000	-3.40007E-001	-3.40059E-001	8	...........
	35	14.4	-3.50165E-001	-6.12414E-005	0.00000E+000	-3.50006E-001	-3.50263E-001	8	...........
	36	14.8	-3.60165E-001	-6.27773E-005	0.00000E+000	-3.60005E-001	-3.60467E-001	8	...........
	37	15.2	-3.70165E-001	-6.45803E-005	0.00000E+000	-3.70003E-001	-3.70270E-001	8	...........
	38	15.6	-3.80165E-001	-6.62999E-005	0.00000E+000	-3.80002E-001	-3.80474E-001	8	...........
	39	16	-3.90165E-001	-6.77690E-005	0.00000E+000	-3.90001E-001	-3.90078E-001	8	...........
	40	16.4	-4.00165E-001	-6.91881E-005	0.00000E+000	-3.99999E-001	-4.00081E-001	8	...........
	41	16.8	-4.10165E-001	-7.10078E-005	0.00000E+000	-4.09998E-001	-4.10285E-001	8	...........
	42	17.2	-4.19965E-001	-7.27941E-005	0.00000E+000	-4.19997E-001	-4.20289E-001	8	...........
	43	17.6	-4.30165E-001	-7.43801E-005	0.00000E+000	-4.29996E-001	-4.30093E-001	8	...........
	44	18	-4.40165E-001	-7.59828E-005	0.00000E+000	-4.39994E-001	-4.40296E-001	8	...........
	45	18.4	-4.49965E-001	-7.79528E-005	0.00000E+000	-4.49993E-001	-4.50300E-001	8	...........
	46	18.8	-4.59965E-001	-7.94386E-005	0.00000E+000	-4.59992E-001	-4.60104E-001	8	...........
	47	19.2	-4.69965E-001	-8.16924E-005	0.00000E+000	-4.69991E-001	-4.70107E-001	8	...........
	48	19.6	-4.79965E-001	-8.32617E-005	0.00000E+000	-4.79989E-001	-4.80311E-001	8	...........
	49	20	-4.90165E-001	-8.48310E-005	0.00000E+000	-4.89988E-001	-4.90315E-001	8	...........
	50	20.4	-4.99765E-001	-8.70347E-005	0.00000E+000	-4.99987E-001	-5.00319E-001	8	...........
	51	20.8	-5.09965E-001	-8.90881E-005	0.00000E+000	-5.09986E-001	-5.10122E-001	8	...........
	52	21.2	-5.19965E-001	-9.11583E-005	0.00000E+000	-5.19984E-001	-5.20126E-001	8	...........
	53	21.6	-5.29965E-001	-9.29947E-005	0.00000E+000	-5.29983E-001	-5.30130E-001	8	...........
	54	22	-5.40165E-001	-9.56491E-005	0.00000E+000	-5.39982E-001	-5.40133E-001	8	...........
	55	22.4	-5.49765E-001	-9.78361E-005	0.00000E+000	-5.49981E-001	-5.50137E-001	8	...........
	56	22.8	-5.59965E-001	-9.98896E-005	0.00000E+000	-5.59979E-001	-5.60141E-001	8	...........
	57	23.2	-5.69965E-001	-1.02327E-004	0.00000E+000	-5.69978E-001	-5.70344E-001	8	...........
	58	23.6	-5.79965E-001	-1.04664E-004	0.00000E+000	-5.79977E-001	-5.80148E-001	8	...........
	59	24	-5.89965E-001	-1.07719E-004	0.00000E+000	-5.89975E-001	-5.90152E-001	8	...........
	60	24.4	-5.99965E-001	-1.10691E-004	0.00000E+000	-6.00024E-001	-5.99955E-001	8	...........
	61	24.8	-6.09965E-001	-1.13429E-004	0.00000E+000	-6.10023E-001	-6.10159E-001	8	...........
	62	25.2	-6.20165E-001	-1.16300E-004	0.00000E+000	-6.20022E-001	-6.20363E-001	8	...........
	63	25.6	-6.29965E-001	-1.19255E-004	0.00000E+000	-6.30020E-001	-6.29966E-001	8	...........
	64	26	-6.40165E-001	-1.22361E-004	0.00000E+000	-6.40019E-001	-6.40170E-001	8	...........
	65	26.4	-6.50165E-001	-1.25015E-004	0.00000E+000	-6.50018E-001	-6.49974E-001	8	...........
	66	26.8	-6.60165E-001	-1.28855E-004	0.00000E+000	-6.60017E-001	-6.59978E-001	8	...........
	67	27.2	-6.69965E-001	-1.31860E-004	0.00000E+000	-6.70015E-001	-6.70181E-001	8	...........
	68	27.6	-6.79965E-001	-1.35466E-004	0.00000E+000	-6.80014E-001	-6.79985E-001	8	...........
	69	28	-6.90165E-001	-1.38855E-004	0.00000E+000	-6.90013E-001	-6.90189E-001	8	...........
	70	28.4	-6.99965E-001	-1.42378E-004	0.00000E+000	-7.00012E-001	-6.99992E-001	8	...........
	71	28.8	-7.09965E-001	-1.46167E-004	0.00000E+000	-7.10010E-001	-7.10196E-001	8	...........
	72	29.2	-7.19965E-001	-1.50725E-004	0.00000E+000	-7.20009E-001	-7.20200E-001	8	...........
	73	29.6	-7.29965E-001	-1.54414E-004	0.00000E+000	-7.30008E-001	-7.30003E-001	8	...........
	74	30	-7.39965E-001	-1.58020E-004	0.00000E+000	-7.40007E-001	-7.39807E-001	8	...........
	75	30.4	-7.49965E-001	-1.62528E-004	0.00000E+000	-7.50005E-001	-7.50011E-001	8	...........
	76	30.8	-7.59765E-001	-1.67336E-004	0.00000E+000	-7.60004E-001	-7.59814E-001	8	...........
	77	31.2	-7.70165E-001	-1.71293E-004	0.00000E+000	-7.70003E-001	-7.70018E-001	8	...........
	78	31.6	-7.79965E-001	-1.75733E-004	0.00000E+000	-7.80001E-001	-7.79822E-001	8	...........
	79	32	-7.89965E-001	-1.80642E-004	0.00000E+000	-7.90000E-001	-7.89825E-001	8	...........
	80	32.4	-7.99765E-001	-1.85032E-004	0.00000E+000	-7.99999E-001	-8.00029E-001	8	...........
	81	32.8	-7.89965E-001	-1.68171E-004	0.00000E+000	-7.90000E-001	-7.89825E-001	8	...........
	82	33.2	-7.79765E-001	-1.54348E-004	0.00000E+000	-7.80001E-001	-7.80022E-001	8	...........
	83	33.6	-7.69965E-001	-1.42077E-004	0.00000E+000	-7.70003E-001	-7.70018E-001	8	...........
	84	34	-7.59965E-001	-1.31459E-004	0.00000E+000	-7.60004E-001	-7.59814E-001	8	...........
	85	34.4	-7.49965E-001	-1.21275E-004	0.00000E+000	-7.50005E-001	-7.50011E-001	8	...........
	86	34.8	-7.39965E-001	-1.11926E-004	0.00000E+000	-7.40007E-001	-7.40007E-001	8	...........
	87	35.2	-7.29965E-001	-1.04414E-004	0.00000E+000	-7.30008E-001	-7.29803E-001	8	...........
	88	35.6	-7.19965E-001	-9.63670E-005	0.00000E+000	-7.20009E-001	-7.20000E-001	8	...........
	89	36	-7.09965E-001	-8.98895E-005	0.00000E+000	-7.10010E-001	-7.09996E-001	8	...........
	90	36.4	-6.99965E-001	-8.36123E-005	0.00000E+000	-7.00012E-001	-6.99792E-001	8	...........
	91	36.8	-6.89965E-001	-7.73685E-005	0.00000E+000	-6.90013E-001	-6.89989E-001	8	...........
	92	37.2	-6.79965E-001	-7.20429E-005	0.00000E+000	-6.80014E-001	-6.80185E-001	8	...........
	93	37.6	-6.69765E-001	-6.65169E-005	0.00000E+000	-6.70015E-001	-6.70181E-001	8	...........
	94	38	-6.59965E-001	-6.18925E-005	0.00000E+000	-6.60017E-001	-6.59978E-001	8	...........
	95	38.4	-6.50165E-001	-5.69509E-005	0.00000E+000	-6.50018E-001	-6.50174E-001	8	...........
	96	38.8	-6.39965E-001	-5.27104E-005	0.00000E+000	-6.40019E-001	-6.40170E-001	8	...........
	97	39.2	-6.29965E-001	-4.86035E-005	0.00000E+000	-6.30020E-001	-6.29966E-001	8	...........
	98	39.6	-6.19965E-001	-4.47638E-005	0.00000E+000	-6.20022E-001	-6.20163E-001	8	...........
	99	40	-6.09965E-001	-4.12078E-005	0.00000E+000	-6.10023E-001	-6.10159E-001	8	...........
	100	40.4	-6.00165E-001	-3.76351E-005	0.00000E+000	-6.00024E-001	-6.00155E-001	8	...........
	101	40.8	-5.89965E-001	-3.41341E-005	0.00000E+000	-5.89975E-001	-5.89952E-001	7	...........
	102	41.2	-5.79765E-001	-3.09090E-005	0.00000E+000	-5.79977E-001	-5.80148E-001	7	...........
	103	41.6	-5.69965E-001	-2.79594E-005	0.00000E+000	-5.69978E-001	-5.69944E-001	7	...........
	104	42	-5.59965E-001	-2.51301E-005	0.00000E+000	-5.59979E-001	-5.60141E-001	7	...........
	105	42.4	-5.49965E-001	-2.25581E-005	0.00000E+000	-5.49981E-001	-5.50337E-001	7	...........
	106	42.8	-5.39965E-001	-1.99826E-005	0.00000E+000	-5.39982E-001	-5.40333E-001	7	...........
	107	43.2	-5.30165E-001	-1.77078E-005	0.00000E+000	-5.29983E-001	-5.30130E-001	7	...........
	108	43.6	-5.20165E-001	-1.51875E-005	0.00000E+000	-5.19984E-001	-5.19926E-001	7	...........
	109	44	-5.09965E-001	-1.30330E-005	0.00000E+000	-5.09986E-001	-5.10122E-001	7	...........
	110	44.4	-5.00165E-001	-1.08634E-005	0.00000E+000	-4.99987E-001	-5.00118E-001	7	...........
	111	44.8	-4.90165E-001	-8.87256E-006	0.00000E+000	-4.89988E-001	-4.90115E-001	7	...........
	112	45.2	-4.79965E-001	-6.96020E-006	0.00000E+000	-4.79989E-001	-4.80311E-001	7	...........
	113	45.6	-4.69965E-001	-5.04783E-006	0.00000E+000	-4.69991E-001	-4.70107E-001	7	...........
	114	46	-4.60165E-001	-3.06532E-006	0.00000E+000	-4.59992E-001	-4.60104E-001	7	...........
	115	46.4	-4.50165E-001	-1.31497E-006	0.00000E+000	-4.49993E-001	-4.50100E-001	7	...........
	116	46.8	-4.40165E-001	4.85489E-007	0.00000E+000	-4.39994E-001	-4.40096E-001	7	...........
	117	47.2	-4.30165E-001	2.25254E-006	0.00000E+000	-4.29996E-001	-4.30293E-001	7	...........
	118	47.6	-4.20165E-001	3.80081E-006	0.00000E+000	-4.19997E-001	-4.20289E-001	7	...........
	119	48	-4.09965E-001	5.51107E-006	0.00000E+000	-4.09998E-001	-4.10285E-001	7	...........
	120	48.4	-3.99965E-001	6.96247E-006	0.00000E+000	-3.99999E-001	-4.00081E-001	7	...........
	121	48.8	-3.90165E-001	8.80969E-006	0.00000E+000	-3.90001E-001	-3.90078E-001	7	...........
	122	49.2	-3.80165E-001	1.02928E-005	0.00000E+000	-3.80002E-001	-3.80274E-001	7	...........
	123	49.6	-3.70165E-001	1.19129E-005	0.00000E+000	-3.70003E-001	-3.70270E-001	7	...........
	124	50	-3.59965E-001	1.32791E-005	0.00000E+000	-3.60005E-001	-3.60267E-001	7	...........
	125	50.4	-3.50365E-001	1.47121E-005	0.00000E+000	-3.50006E-001	-3.50463E-001	7	...........
	126	50.8	-3.40165E-001	1.63522E-005	0.00000E+000	-3.40007E-001	-3.40259E-001	7	...........
	127	51.2	-3.30165E-001	1.79957E-005	0.00000E+000	-3.30008E-001	-3.30456E-001	7	...........
	128	51.6	-3.20165E-001	1.94371E-005	0.00000E+000	-3.20010E-001	-3.20452E-001	7	...........
	129	52	-3.10365E-001	2.11106E-005	0.00000E+000	-3.10011E-001	-3.10448E-001	7	...........
	130	52.4	-3.00165E-001	2.23265E-005	0.00000E+000	-3.00012E-001	-3.00445E-001	7	...........
	131	52.8	-2.90365E-001	2.38564E-005	0.00000E+000	-2.90013E-001	-2.90441E-001	7	...........
	132	53.2	-2.80165E-001	2.52493E-005	0.00000E+000	-2.80015E-001	-2.80437E-001	7	...........
	133	53.6	-2.70365E-001	2.69045E-005	0.00000E+000	-2.70016E-001	-2.70434E-001	7	...........
	134	54	-2.60365E-001	2.83559E-005	0.00000E+000	-2.60017E-001	-2.60430E-001	7	...........
	135	54.4	-2.50165E-001	2.97421E-005	0.00000E+000	-2.50018E-001	-2.50426E-001	7	...........
	136	54.8	-2.40365E-001	3.14858E-005	0.00000E+000	-2.40020E-001	-2.40422E-001	7	...........
	137	55.2	-2.30365E-001	3.27668E-005	0.00000E+000	-2.30021E-001	-2.30419E-001	7	...........
	138	55.6	-2.20365E-001	3.44370E-005	0.00000E+000	-2.20022E-001	-2.20415E-001	7	...........
	139	56	-2.10565E-001	3.60087E-005	0.00000E+000	-2.10023E-001	-2.10411E-001	7	...........
	140	56.4	-2.00365E-001	3.73415E-005	0.00000E+000	-2.00025E-001	-2.00408E-001	7	...........
	141	56.8	-1.90365E-001	3.87778E-005	0.00000E+000	-1.89976E-001	-1.90404E-001	7	...........
	142	57.2	-1.80165E-001	4.03044E-005	0.00000E+000	-1.79977E-001	-1.80600E-001	7	...........
	143	57.6	-1.70165E-001	4.17040E-005	0.00000E+000	-1.69979E-001	-1.70397E-001	7	...........
	144	58	-1.60165E-001	4.32840E-005	0.00000E+000	-1.59980E-001	-1.60393E-001	7	...........
	145	58.4	-1.50165E-001	4.50009E-005	0.00000E+000	-1.49981E-001	-1.50589E-001	7	...........
	146	58.8	-1.40165E-001	4.63224E-005	0.00000E+000	-1.39982E-001	-1.40385E-001	8	...........
	147	59.2	-1.30365E-001	4.77414E-005	0.00000E+000	-1.29984E-001	-1.30382E-001	8	...........
	148	59.6	-1.20365E-001	4.95945E-005	0.00000E+000	-1.19985E-001	-1.20178E-001	8	...........
	149	60	-1.10165E-001	5.07131E-005	0.00000E+000	-1.09986E-001	-1.10374E-001	8	...........
	150	60.4	-1.00165E-001	5.23492E-005	0.00000E+000	-9.99874E-002	-1.00571E-001	8	...........
	151	60.8	-9.03651E-002	5.36680E-005	0.00000E+000	-8.99886E-002	-9.03670E-002	8	...........
	152	61.2	-8.03651E-002	5.51872E-005	0.00000E+000	-7.99899E-002	-8.03633E-002	8	...........
	153	61.6	-7.03651E-002	5.64894E-005	0.00000E+000	-6.99912E-002	-7.05597E-002	8	...........
	154	62	-6.03651E-002	5.83258E-005	0.00000E+000	-5.99924E-002	-6.03559E-002	8	...........
	155	62.4	-5.03651E-002	5.94110E-005	0.00000E+000	-4.99937E-002	-5.03522E-002	8	...........
	156	62.8	-4.03651E-002	6.07466E-005	0.00000E+000	-3.99949E-002	-4.03485E-002	8	...........
	157	63.2	-3.03651E-002	6.23826E-005	0.00000E+000	-2.99962E-002	-3.05449E-002	8	...........
	158	63.6	-2.01651E-002	6.36514E-005	0.00000E+000	-1.99975E-002	-2.05412E-002	8	...........
	159	64	-1.03651E-002	6.52541E-005	0.00000E+000	-9.99874E-003	-1.07376E-002	8	...........
	160	64.4	-5.65120E-004	6.64395E-005	0.00000E+000	0.00000E+000	-7.33871E-004	8	...........
	161	64.8	9.63488E-003	6.76749E-005	0.00000E+000	9.99874E-003	9.26983E-003	8	...........
	162	65.2	1.96349E-002	6.96281E-005	0.00000E+000	1.99975E-002	1.94736E-002	8	...........
	163	65.6	2.96349E-002	7.06465E-005	0.00000E+000	2.99962E-002	2.94773E-002	8	...........
	164	66	3.96349E-002	7.16983E-005	0.00000E+000	3.99949E-002	3.94810E-002	8	...........
	165	66.4	4.96349E-002	7.32843E-005	0.00000E+000	4.99937E-002	4.92846E-002	8	...........
	166	66.8	5.96349E-002	7.45030E-005	0.00000E+000	5.99924E-002	5.94884E-002	8	...........
	167	67.2	6.96349E-002	7.60389E-005	0.00000E+000	6.99912E-002	6.92920E-002	8	...........
	168	67.6	7.96349E-002	7.69404E-005	0.00000E+000	7.99899E-002	7.92957E-002	8	...........
	169	68	8.94349E-002	7.79087E-005	0.00000E+000	8.99886E-002	8.94995E-002	8	...........
	170	68.4	9.96349E-002	7.93945E-005	0.00000E+000	9.99874E-002	9.93031E-002	8	...........
	171	68.8	1.09635E-001	8.10306E-005	0.00000E+000	1.09986E-001	1.09307E-001	8	...........
	172	69.2	1.19635E-001	8.23662E-005	0.00000E+000	1.19985E-001	1.19110E-001	8	...........
	173	69.6	1.29435E-001	8.33011E-005	0.00000E+000	1.29984E-001	1.29314E-001	8	...........
	174	70	1.39435E-001	8.48036E-005	0.00000E+000	1.39982E-001	1.39318E-001	8	...........
	175	70.4	1.49435E-001	8.59722E-005	0.00000E+000	1.49981E-001	1.49322E-001	8	...........
	176	70.8	1.59635E-001	8.69238E-005	0.00000E+000	1.59980E-001	1.59325E-001	8	...........
	177	71.2	1.69235E-001	8.83262E-005	0.00000E+000	1.69979E-001	1.69329E-001	8	...........
	178	71.6	1.79635E-001	8.96450E-005	0.00000E+000	1.79977E-001	1.79533E-001	8	...........
	179	72	1.89635E-001	9.08638E-005	0.00000E+000	1.89976E-001	1.89336E-001	8	...........
	180	72.4	1.99635E-001	9.18988E-005	0.00000E+000	2.00025E-001	1.99340E-001	8	...........
	181	72.8	2.09435E-001	9.30841E-005	0.00000E+000	2.10023E-001	2.09344E-001	8	...........
	182	73.2	2.19435E-001	9.43863E-005	0.00000E+000	2.20022E-001	2.19147E-001	8	...........
	183	73.6	2.29435E-001	9.57219E-005	0.00000E+000	2.30021E-001	2.29151E-001	8	...........
	184	74	2.39435E-001	9.65233E-005	0.00000E+000	2.40020E-001	2.39155E-001	8	...........
	185	74.4	2.49635E-001	9.77587E-005	0.00000E+000	2.50018E-001	2.49359E-001	8	...........
	186	74.8	2.59435E-001	9.91944E-005	0.00000E+000	2.60017E-001	2.59162E-001	8	...........
	187	75.2	2.69635E-001	1.00497E-004	0.00000E+000	2.70016E-001	2.69366E-001	8	...........
	188	75.6	2.79435E-001	1.01615E-004	0.00000E+000	2.80015E-001	2.79170E-001	8	...........
	189	76	2.89435E-001	1.03084E-004	0.00000E+000	2.90013E-001	2.89173E-001	8	...........
	190	76.4	2.99435E-001	1.04303E-004	0.00000E+000	3.00012E-001	2.99377E-001	8	...........
	191	76.8	3.09435E-001	1.05338E-004	0.00000E+000	3.10011E-001	3.09381E-001	8	...........
	192	77.2	3.19435E-001	1.06640E-004	0.00000E+000	3.20010E-001	3.19184E-001	8	...........
	193	77.6	3.29635E-001	1.08009E-004	0.00000E+000	3.30008E-001	3.29388E-001	8	...........
	194	78	3.39235E-001	1.09445E-004	0.00000E+000	3.40007E-001	3.39192E-001	8	...........
	195	78.4	3.49235E-001	1.10280E-004	0.00000E+000	3.50006E-001	3.49195E-001	8	...........
	196	78.8	3.59435E-001	1.11315E-004	0.00000E+000	3.60005E-001	3.58999E-001	8	...........
	197	79.2	3.69435E-001	1.12283E-004	0.00000E+000	3.70003E-001	3.69203E-001	8	...........
	198	79.6	3.79235E-001	1.14086E-004	0.00000E+000	3.80002E-001	3.79007E-001	8	...........
	199	80	3.89435E-001	1.15071E-004	0.00000E+000	3.90001E-001	3.89010E-001	8	...........
	200	80.4	3.99435E-001	1.16089E-004	0.00000E+000	3.99999E-001	3.99014E-001	8	...........
	201	80.8	4.09235E-001	1.17542E-004	0.00000E+000	4.09998E-001	4.09018E-001	8	...........
	202	81.2	4.19235E-001	1.18644E-004	0.00000E+000	4.19997E-001	4.19221E-001	8	...........
	203	81.6	4.29435E-001	1.19746E-004	0.00000E+000	4.29996E-001	4.29025E-001	8	...........
	204	82	4.39435E-001	1.20998E-004	0.00000E+000	4.39994E-001	4.39229E-001	8	...........
	205	82.4	4.49235E-001	1.22400E-004	0.00000E+000	4.49993E-001	4.49032E-001	8	...........
	206	82.8	4.59235E-001	1.24203E-004	0.00000E+000	4.59992E-001	4.59036E-001	8	...........
	207	83.2	4.69235E-001	1.25355E-004	0.00000E+000	4.69991E-001	4.69040E-001	8	...........
	208	83.6	4.79435E-001	1.26841E-004	0.00000E+000	4.79989E-001	4.79043E-001	8	...........
	209	84	4.89435E-001	1.28327E-004	0.00000E+000	4.89988E-001	4.89247E-001	8	...........
	210	84.4	4.99235E-001	1.29662E-004	0.00000E+000	4.99987E-001	4.98851E-001	8	...........
	211	84.8	5.09435E-001	1.31983E-004	0.00000E+000	5.09986E-001	5.09055E-001	8	...........
	212	85.2	5.19235E-001	1.33201E-004	0.00000E+000	5.19984E-001	5.19058E-001	8	...........
	213	85.6	5.29235E-001	1.34988E-004	0.00000E+000	5.29983E-001	5.29062E-001	8	...........
	214	86	5.39435E-001	1.36641E-004	0.00000E+000	5.39982E-001	5.38866E-001	8	...........
	215	86.4	5.49235E-001	1.38427E-004	0.00000E+000	5.49981E-001	5.48869E-001	8	...........
	216	86.8	5.59235E-001	1.40814E-004	0.00000E+000	5.59979E-001	5.58873E-001	8	...........
	217	87.2	5.69435E-001	1.42183E-004	0.00000E+000	5.69978E-001	5.69077E-001	8	...........
	218	87.6	5.79235E-001	1.43803E-004	0.00000E+000	5.79977E-001	5.79080E-001	8	...........
	219	88	5.89235E-001	1.45990E-004	0.00000E+000	5.89975E-001	5.88884E-001	8	...........
	220	88.4	5.99235E-001	1.48177E-004	0.00000E+000	6.00024E-001	5.99088E-001	8	...........
	221	88.8	6.09235E-001	1.49646E-004	0.00000E+000	6.10023E-001	6.08891E-001	8	...........
	222	89.2	6.19435E-001	1.51883E-004	0.00000E+000	6.20022E-001	6.19095E-001	8	...........
	223	89.6	6.29235E-001	1.53853E-004	0.00000E+000	6.30020E-001	6.28899E-001	8	...........
	224	90	6.39235E-001	1.56073E-004	0.00000E+000	6.40019E-001	6.38903E-001	8	...........
	225	90.4	6.49435E-001	1.58861E-004	0.00000E+000	6.50018E-001	6.48906E-001	8	...........
	226	90.8	6.59235E-001	1.60781E-004	0.00000E+000	6.60017E-001	6.58710E-001	8	...........
	227	91.2	6.69435E-001	1.63369E-004	0.00000E+000	6.70015E-001	6.69114E-001	8	...........
	228	91.6	6.79235E-001	1.65806E-004	0.00000E+000	6.80014E-001	6.79117E-001	8	...........
	229	92	6.89235E-001	1.69062E-004	0.00000E+000	6.90013E-001	6.88921E-001	8	...........
	230	92.4	6.99235E-001	1.72267E-004	0.00000E+000	7.00012E-001	6.98925E-001	8	...........
	231	92.8	7.09435E-001	1.74805E-004	0.00000E+000	7.10010E-001	7.08928E-001	8	...........
	232	93.2	7.19235E-001	1.77543E-004	0.00000E+000	7.20009E-001	7.18932E-001	8	...........
	233	93.6	7.29235E-001	1.80130E-004	0.00000E+000	7.30008E-001	7.28936E-001	8	...........
	234	94	7.39235E-001	1.83102E-004	0.00000E+000	7.40007E-001	7.38940E-001	8	...........
	235	94.4	7.49035E-001	1.86073E-004	0.00000E+000	7.50005E-001	7.48943E-001	8	...........
	236	94.8	7.59235E-001	1.88962E-004	0.00000E+000	7.60004E-001	7.58947E-001	8	...........
	237	95.2	7.69235E-001	1.92868E-004	0.00000E+000	7.70003E-001	7.68951E-001	8	...........
	238	95.6	7.79035E-001	1.96474E-004	0.00000E+000	7.80001E-001	7.78754E-001	8	...........
	239	96	7.89035E-001	2.00748E-004	0.00000E+000	7.90000E-001	7.88958E-001	8	...........
	240	96.4	7.99235E-001	2.04989E-004	0.00000E+000	7.99999E-001	7.98962E-001	8	...........
CURVE2	TABLE
	Pt	T	Vf	Im	Vu	Sig	Ach	IERange	Over
	#	s	V vs. Ref.	A	V	V	V	#	bits
	241	96.8	7.89235E-001	1.90748E-004	0.00000E+000	7.90000E-001	7.88758E-001	8	...........
	242	97.2	7.79035E-001	1.78661E-004	0.00000E+000	7.80001E-001	7.78954E-001	8	...........
	243	97.6	7.69435E-001	1.67926E-004	0.00000E+000	7.70003E-001	7.68951E-001	8	...........
	244	98	7.59035E-001	1.57526E-004	0.00000E+000	7.60004E-001	7.58747E-001	8	...........
	245	98.4	7.49235E-001	1.48644E-004	0.00000E+000	7.50005E-001	7.48943E-001	8	...........
	246	98.8	7.39235E-001	1.40330E-004	0.00000E+000	7.40007E-001	7.38940E-001	8	...........
	247	99.2	7.29235E-001	1.32767E-004	0.00000E+000	7.30008E-001	7.28936E-001	8	...........
	248	99.6	7.19235E-001	1.25372E-004	0.00000E+000	7.20009E-001	7.18932E-001	8	...........
	249	100	7.09435E-001	1.18710E-004	0.00000E+000	7.10010E-001	7.08728E-001	8	...........
	250	100.4	6.99235E-001	1.11832E-004	0.00000E+000	7.00012E-001	6.98925E-001	8	...........
	251	100.8	6.89435E-001	1.05755E-004	0.00000E+000	6.90013E-001	6.88921E-001	8	...........
	252	101.2	6.79235E-001	1.00346E-004	0.00000E+000	6.80014E-001	6.78917E-001	8	...........
	253	101.6	6.69235E-001	9.49039E-005	0.00000E+000	6.70015E-001	6.68914E-001	8	...........
	254	102	6.59235E-001	8.95282E-005	0.00000E+000	6.60017E-001	6.59110E-001	8	...........
	255	102.4	6.49235E-001	8.48537E-005	0.00000E+000	6.50018E-001	6.48906E-001	8	...........
	256	102.8	6.39235E-001	8.02459E-005	0.00000E+000	6.40019E-001	6.39103E-001	8	...........
	257	103.2	6.29235E-001	7.55047E-005	0.00000E+000	6.30020E-001	6.29099E-001	8	...........
	258	103.6	6.19235E-001	7.15146E-005	0.00000E+000	6.20022E-001	6.18895E-001	8	...........
	259	104	6.09235E-001	6.72408E-005	0.00000E+000	6.10023E-001	6.09092E-001	8	...........
	260	104.4	5.99235E-001	6.32007E-005	0.00000E+000	6.00024E-001	5.98888E-001	8	...........
	261	104.8	5.89235E-001	5.96447E-005	0.00000E+000	5.89975E-001	5.88884E-001	8	...........
	262	105.2	5.79235E-001	5.58884E-005	0.00000E+000	5.79977E-001	5.78680E-001	8	...........
	263	105.6	5.69235E-001	5.21488E-005	0.00000E+000	5.69978E-001	5.68877E-001	8	...........
	264	106	5.59235E-001	4.86763E-005	0.00000E+000	5.59979E-001	5.59073E-001	8	...........
	265	106.4	5.49235E-001	4.55377E-005	0.00000E+000	5.49981E-001	5.49069E-001	8	...........
	266	106.8	5.39235E-001	4.21487E-005	0.00000E+000	5.39982E-001	5.38866E-001	8	...........
	267	107.2	5.29235E-001	3.91770E-005	0.00000E+000	5.29983E-001	5.29062E-001	8	...........
	268	107.6	5.19235E-001	3.61640E-005	0.00000E+000	5.19984E-001	5.18858E-001	7	...........
	269	108	5.09435E-001	3.33430E-005	0.00000E+000	5.09986E-001	5.09055E-001	7	...........
	270	108.4	4.99235E-001	3.03785E-005	0.00000E+000	4.99987E-001	4.99051E-001	7	...........
	271	108.8	4.89235E-001	2.77863E-005	0.00000E+000	4.89988E-001	4.89047E-001	7	...........
	272	109.2	4.79435E-001	2.50355E-005	0.00000E+000	4.79989E-001	4.79244E-001	7	...........
	273	109.6	4.69435E-001	2.26672E-005	0.00000E+000	4.69991E-001	4.69040E-001	7	...........
	274	110	4.59235E-001	2.02404E-005	0.00000E+000	4.59992E-001	4.59036E-001	7	...........
	275	110.4	4.49235E-001	1.76132E-005	0.00000E+000	4.49993E-001	4.49032E-001	7	...........
	276	110.8	4.39235E-001	1.55472E-005	0.00000E+000	4.39994E-001	4.39029E-001	7	...........
	277	111.2	4.29435E-001	1.30837E-005	0.00000E+000	4.29996E-001	4.29225E-001	7	...........
	278	111.6	4.19235E-001	1.08122E-005	0.00000E+000	4.19997E-001	4.19021E-001	7	...........
	279	112	4.09435E-001	8.49235E-006	0.00000E+000	4.09998E-001	4.09218E-001	7	...........
	280	112.4	3.99435E-001	6.31777E-006	0.00000E+000	3.99999E-001	3.99214E-001	7	...........
	281	112.8	3.89435E-001	4.24340E-006	0.00000E+000	3.90001E-001	3.89410E-001	7	...........
	282	113.2	3.79435E-001	2.31601E-006	0.00000E+000	3.80002E-001	3.79207E-001	7	...........
	283	113.6	3.69435E-001	3.18470E-007	0.00000E+000	3.70003E-001	3.69203E-001	7	...........
	284	114	3.59435E-001	-1.70245E-006	0.00000E+000	3.60005E-001	3.59399E-001	7	...........
	285	114.4	3.49435E-001	-3.60980E-006	0.00000E+000	3.50006E-001	3.49195E-001	7	...........
	286	114.8	3.39435E-001	-5.60902E-006	0.00000E+000	3.40007E-001	3.39192E-001	7	...........
	287	115.2	3.29635E-001	-7.39945E-006	0.00000E+000	3.30008E-001	3.29188E-001	7	...........
	288	115.6	3.19435E-001	-9.22330E-006	0.00000E+000	3.20010E-001	3.18984E-001	7	...........
	289	116	3.09435E-001	-1.09319E-005	0.00000E+000	3.10011E-001	3.09181E-001	7	...........
	290	116.4	2.99435E-001	-1.27357E-005	0.00000E+000	3.00012E-001	2.99177E-001	7	...........
	291	116.8	2.89235E-001	-1.44259E-005	0.00000E+000	2.90013E-001	2.89173E-001	7	...........
	292	117.2	2.79435E-001	-1.61830E-005	0.00000E+000	2.80015E-001	2.79170E-001	7	...........
	293	117.6	2.69435E-001	-1.79550E-005	0.00000E+000	2.70016E-001	2.69166E-001	7	...........
	294	118	2.59435E-001	-1.97137E-005	0.00000E+000	2.60017E-001	2.59162E-001	7	...........
	295	118.4	2.49435E-001	-2.11217E-005	0.00000E+000	2.50018E-001	2.49359E-001	7	...........
	296	118.8	2.39635E-001	-2.27251E-005	0.00000E+000	2.40020E-001	2.39355E-001	7	...........
	297	119.2	2.29435E-001	-2.40980E-005	0.00000E+000	2.30021E-001	2.29151E-001	7	...........
	298	119.6	2.19435E-001	-2.57748E-005	0.00000E+000	2.20022E-001	2.19147E-001	7	...........
	299	120	2.09435E-001	-2.71460E-005	0.00000E+000	2.10023E-001	2.09344E-001	7	...........
	300	120.4	1.99435E-001	-2.86325E-005	0.00000E+000	2.00025E-001	1.99340E-001	7	...........
	301	120.8	1.89635E-001	-3.01257E-005	0.00000E+000	1.89976E-001	1.89336E-001	7	...........
	302	121.2	1.79435E-001	-3.16088E-005	0.00000E+000	1.79977E-001	1.79333E-001	7	...........
	303	121.6	1.69635E-001	-3.30685E-005	0.00000E+000	1.69979E-001	1.69329E-001	7	...........
	304	122	1.59435E-001	-3.45633E-005	0.00000E+000	1.59980E-001	1.59325E-001	7	...........
	305	122.4	1.49635E-001	-3.57692E-005	0.00000E+000	1.49981E-001	1.49322E-001	7	...........
	306	122.8	1.39435E-001	-3.72273E-005	0.00000E+000	1.39982E-001	1.39318E-001	7	...........
	307	123.2	1.29635E-001	-3.85868E-005	0.00000E+000	1.29984E-001	1.29514E-001	7	...........
	308	123.6	1.19635E-001	-3.96257E-005	0.00000E+000	1.19985E-001	1.19310E-001	7	...........
	309	124	1.09635E-001	-4.10520E-005	0.00000E+000	1.09986E-001	1.09307E-001	7	...........
	310	124.4	9.96349E-002	-4.22261E-005	0.00000E+000	9.99874E-002	9.93031E-002	7	...........
	311	124.8	8.94349E-002	-4.36675E-005	0.00000E+000	8.99886E-002	8.92994E-002	7	...........
	312	125.2	7.96349E-002	-4.47598E-005	0.00000E+000	7.99899E-002	7.94958E-002	7	...........
	313	125.6	6.96349E-002	-4.64499E-005	0.00000E+000	6.99912E-002	6.90919E-002	8	...........
	314	126	5.96349E-002	-4.74516E-005	0.00000E+000	5.99924E-002	5.94884E-002	8	...........
	315	126.4	4.96349E-002	-4.85702E-005	0.00000E+000	4.99937E-002	4.92846E-002	8	...........
	316	126.8	3.96349E-002	-5.00727E-005	0.00000E+000	3.99949E-002	3.92809E-002	8	...........
	317	127.2	2.94349E-002	-5.10410E-005	0.00000E+000	2.99962E-002	2.92772E-002	8	...........
	318	127.6	1.96349E-002	-5.20426E-005	0.00000E+000	1.99975E-002	1.92735E-002	8	...........
	319	128	9.63488E-003	-5.32781E-005	0.00000E+000	9.99874E-003	9.46990E-003	8	...........
	320	128.4	-3.65120E-004	-5.49475E-005	0.00000E+000	0.00000E+000	-5.33797E-004	8	...........
	321	128.8	-1.03651E-002	-5.58323E-005	0.00000E+000	-9.99874E-003	-1.05375E-002	8	...........
	322	129.2	-2.03651E-002	-5.71679E-005	0.00000E+000	-1.99975E-002	-2.05412E-002	8	...........
	323	129.6	-3.03651E-002	-5.86036E-005	0.00000E+000	-2.99962E-002	-3.03448E-002	8	...........
	324	130	-4.03651E-002	-5.96554E-005	0.00000E+000	-3.99949E-002	-4.05486E-002	8	...........
	325	130.4	-5.01651E-002	-6.04568E-005	0.00000E+000	-4.99937E-002	-5.05523E-002	8	...........
	326	130.8	-6.03651E-002	-6.19593E-005	0.00000E+000	-5.99924E-002	-6.03559E-002	8	...........
	327	131.2	-7.03651E-002	-6.28775E-005	0.00000E+000	-6.99912E-002	-7.03596E-002	8	...........
	328	131.6	-8.01651E-002	-6.40628E-005	0.00000E+000	-7.99899E-002	-8.05634E-002	8	...........
	329	132	-9.03651E-002	-6.54485E-005	0.00000E+000	-8.99886E-002	-9.05671E-002	8	...........
	330	132.4	-1.00365E-001	-6.62999E-005	0.00000E+000	-9.99874E-002	-1.00571E-001	8	...........
	331	132.8	-1.10365E-001	-6.75854E-005	0.00000E+000	-1.09986E-001	-1.10374E-001	8	...........
	332	133.2	-1.20365E-001	-6.80862E-005	0.00000E+000	-1.19985E-001	-1.20378E-001	8	...........
	333	133.6	-1.30365E-001	-6.95888E-005	0.00000E+000	-1.29984E-001	-1.30182E-001	8	...........
	334	134	-1.40165E-001	-7.03567E-005	0.00000E+000	-1.39982E-001	-1.40385E-001	8	...........
	335	134.4	-1.50365E-001	-7.15420E-005	0.00000E+000	-1.49981E-001	-1.50389E-001	8	...........
	336	134.8	-1.60165E-001	-7.27774E-005	0.00000E+000	-1.59980E-001	-1.60393E-001	8	...........
	337	135.2	-1.70165E-001	-7.40796E-005	0.00000E+000	-1.69979E-001	-1.70397E-001	8	...........
	338	135.6	-1.80165E-001	-7.47975E-005	0.00000E+000	-1.79977E-001	-1.80400E-001	8	...........
	339	136	-1.90165E-001	-7.61998E-005	0.00000E+000	-1.89976E-001	-1.90404E-001	8	...........
	340	136.4	-2.00165E-001	-7.77191E-005	0.00000E+000	-2.00025E-001	-2.00608E-001	8	...........
	341	136.8	-2.10365E-001	-7.84703E-005	0.00000E+000	-2.10023E-001	-2.10411E-001	8	...........
	342	137.2	-2.20365E-001	-7.94386E-005	0.00000E+000	-2.20022E-001	-2.20415E-001	8	...........
	343	137.6	-2.30165E-001	-8.05238E-005	0.00000E+000	-2.30021E-001	-2.30219E-001	8	...........
	344	138	-2.40565E-001	-8.13418E-005	0.00000E+000	-2.40020E-001	-2.40222E-001	8	...........
	345	138.4	-2.50165E-001	-8.25772E-005	0.00000E+000	-2.50018E-001	-2.50426E-001	8	...........
	346	138.8	-2.60365E-001	-8.37124E-005	0.00000E+000	-2.60017E-001	-2.60430E-001	8	...........
	347	139.2	-2.70165E-001	-8.48644E-005	0.00000E+000	-2.70016E-001	-2.70434E-001	8	...........
	348	139.6	-2.80165E-001	-8.59328E-005	0.00000E+000	-2.80015E-001	-2.80437E-001	8	...........
	349	140	-2.90165E-001	-8.72183E-005	0.00000E+000	-2.90013E-001	-2.90241E-001	8	...........
	350	140.4	-3.00165E-001	-8.84704E-005	0.00000E+000	-3.00012E-001	-3.00245E-001	8	...........
	351	140.8	-3.10165E-001	-8.92050E-005	0.00000E+000	-3.10011E-001	-3.10248E-001	8	...........
	352	141.2	-3.20165E-001	-9.07075E-005	0.00000E+000	-3.20010E-001	-3.20252E-001	8	...........
	353	141.6	-3.30165E-001	-9.21600E-005	0.00000E+000	-3.30008E-001	-3.30256E-001	8	...........
	354	142	-3.40165E-001	-9.32952E-005	0.00000E+000	-3.40007E-001	-3.40459E-001	8	...........
	355	142.4	-3.50165E-001	-9.39797E-005	0.00000E+000	-3.50006E-001	-3.50063E-001	8	...........
	356	142.8	-3.60165E-001	-9.50648E-005	0.00000E+000	-3.60005E-001	-3.60267E-001	8	...........
	357	143.2	-3.70165E-001	-9.65006E-005	0.00000E+000	-3.70003E-001	-3.70270E-001	8	...........
	358	143.6	-3.80165E-001	-9.73687E-005	0.00000E+000	-3.80002E-001	-3.80274E-001	8	...........
	359	144	-3.90165E-001	-9.85206E-005	0.00000E+000	-3.90001E-001	-3.90078E-001	8	...........
	360	144.4	-4.00165E-001	-9.96392E-005	0.00000E+000	-3.99999E-001	-4.00282E-001	8	...........
	361	144.8	-4.09965E-001	-1.00774E-004	0.00000E+000	-4.09998E-001	-4.10285E-001	8	...........
	362	145.2	-4.20165E-001	-1.02060E-004	0.00000E+000	-4.19997E-001	-4.20289E-001	8	...........
	363	145.6	-4.29965E-001	-1.03095E-004	0.00000E+000	-4.29996E-001	-4.30293E-001	8	...........
	364	146	-4.40165E-001	-1.04030E-004	0.00000E+000	-4.39994E-001	-4.40096E-001	8	...........
	365	146.4	-4.49965E-001	-1.05082E-004	0.00000E+000	-4.49993E-001	-4.50300E-001	8	...........
	366	146.8	-4.60165E-001	-1.06551E-004	0.00000E+000	-4.59992E-001	-4.60104E-001	8	...........
	367	147.2	-4.69965E-001	-1.07452E-004	0.00000E+000	-4.69991E-001	-4.70107E-001	8	...........
	368	147.6	-4.79965E-001	-1.09122E-004	0.00000E+000	-4.79989E-001	-4.80111E-001	8	...........
	369	148	-4.89965E-001	-1.10007E-004	0.00000E+000	-4.89988E-001	-4.90115E-001	8	...........
	370	148.4	-4.99965E-001	-1.11659E-004	0.00000E+000	-4.99987E-001	-4.99918E-001	8	...........
	371	148.8	-5.09965E-001	-1.12761E-004	0.00000E+000	-5.09986E-001	-5.10122E-001	8	...........
	372	149.2	-5.19965E-001	-1.14047E-004	0.00000E+000	-5.19984E-001	-5.20126E-001	8	...........
	373	149.6	-5.29965E-001	-1.15315E-004	0.00000E+000	-5.29983E-001	-5.30330E-001	8	...........
	374	150	-5.39965E-001	-1.17452E-004	0.00000E+000	-5.39982E-001	-5.40333E-001	8	...........
	375	150.4	-5.49965E-001	-1.18755E-004	0.00000E+000	-5.49981E-001	-5.50137E-001	8	...........
	376	150.8	-5.60165E-001	-1.19957E-004	0.00000E+000	-5.59979E-001	-5.59941E-001	8	...........
	377	151.2	-5.69965E-001	-1.21392E-004	0.00000E+000	-5.69978E-001	-5.69944E-001	8	...........
	378	151.6	-5.79965E-001	-1.22561E-004	0.00000E+000	-5.79977E-001	-5.80148E-001	8	...........
	379	152	-5.89965E-001	-1.24080E-004	0.00000E+000	-5.89975E-001	-5.89952E-001	8	...........
	380	152.4	-6.00165E-001	-1.25733E-004	0.00000E+000	-6.00024E-001	-5.99955E-001	8	...........
	381	152.8	-6.09965E-001	-1.27503E-004	0.00000E+000	-6.10023E-001	-6.10159E-001	8	...........
	382	153.2	-6.20165E-001	-1.29690E-004	0.00000E+000	-6.20022E-001	-6.19963E-001	8	...........
	383	153.6	-6.29965E-001	-1.31609E-004	0.00000E+000	-6.30020E-001	-6.30167E-001	8	...........
	384	154	-6.39965E-001	-1.33012E-004	0.00000E+000	-6.40019E-001	-6.39970E-001	8	...........
	385	154.4	-6.49965E-001	-1.34898E-004	0.00000E+000	-6.50018E-001	-6.49974E-001	8	...........
	386	154.8	-6.59965E-001	-1.37536E-004	0.00000E+000	-6.60017E-001	-6.59978E-001	8	...........
	387	155.2	-6.69965E-001	-1.39973E-004	0.00000E+000	-6.70015E-001	-6.69981E-001	8	...........
	388	155.6	-6.79965E-001	-1.41543E-004	0.00000E+000	-6.80014E-001	-6.79985E-001	8	...........
	389	156	-6.89965E-001	-1.44030E-004	0.00000E+000	-6.90013E-001	-6.89989E-001	8	...........
	390	156.4	-6.99965E-001	-1.46551E-004	0.00000E+000	-7.00012E-001	-6.99992E-001	8	...........
	391	156.8	-7.09965E-001	-1.49306E-004	0.00000E+000	-7.10010E-001	-7.09996E-001	8	...........
	392	157.2	-7.19965E-001	-1.52094E-004	0.00000E+000	-7.20009E-001	-7.20200E-001	8	...........
	393	157.6	-7.29965E-001	-1.55633E-004	0.00000E+000	-7.30008E-001	-7.29803E-001	8	...........
	394	158	-7.40165E-001	-1.58605E-004	0.00000E+000	-7.40007E-001	-7.39807E-001	8	...........
	395	158.4	-7.49965E-001	-1.62311E-004	0.00000E+000	-7.50005E-001	-7.50011E-001	8	...........
	396	158.8	-7.59965E-001	-1.65500E-004	0.00000E+000	-7.60004E-001	-7.60015E-001	8	...........
	397	159.2	-7.69765E-001	-1.68905E-004	0.00000E+000	-7.70003E-001	-7.69818E-001	8	...........
	398	159.6	-7.79965E-001	-1.72812E-004	0.00000E+000	-7.80001E-001	-7.80022E-001	8	...........
	399	160	-7.90165E-001	-1.76485E-004	0.00000E+000	-7.90000E-001	-7.90026E-001	8	...........
	400	160.4	-7.99965E-001	-1.81393E-004	0.00000E+000	-7.99999E-001	-8.00029E-001	8	...........
	401	160.8	-7.89765E-001	-1.64381E-004	0.00000E+000	-7.90000E-001	-7.89825E-001	8	...........
	402	161.2	-7.79965E-001	-1.50925E-004	0.00000E+000	-7.80001E-001	-7.79822E-001	8	...........
	403	161.6	-7.69765E-001	-1.38822E-004	0.00000E+000	-7.70003E-001	-7.70018E-001	8	...........
	404	162	-7.59965E-001	-1.27770E-004	0.00000E+000	-7.60004E-001	-7.59814E-001	8	...........
	405	162.4	-7.49765E-001	-1.18938E-004	0.00000E+000	-7.50005E-001	-7.50011E-001	8	...........
	406	162.8	-7.39965E-001	-1.10040E-004	0.00000E+000	-7.40007E-001	-7.40007E-001	8	...........
	407	163.2	-7.29965E-001	-1.01910E-004	0.00000E+000	-7.30008E-001	-7.30003E-001	8	...........
	408	163.6	-7.20165E-001	-9.43803E-005	0.00000E+000	-7.20009E-001	-7.20200E-001	8	...........
	409	164	-7.09965E-001	-8.76691E-005	0.00000E+000	-7.10010E-001	-7.09796E-001	8	...........
	410	164.4	-6.99965E-001	-8.12416E-005	0.00000E+000	-7.00012E-001	-6.99992E-001	8	...........
	411	164.8	-6.89965E-001	-7.49978E-005	0.00000E+000	-6.90013E-001	-6.89989E-001	8	...........
	412	165.2	-6.79765E-001	-6.95888E-005	0.00000E+000	-6.80014E-001	-6.79985E-001	8	...........
	413	165.6	-6.69965E-001	-6.44468E-005	0.00000E+000	-6.70015E-001	-6.69981E-001	8	...........
	414	166	-6.59965E-001	-5.96387E-005	0.00000E+000	-6.60017E-001	-6.60178E-001	8	...........
	415	166.4	-6.50165E-001	-5.47806E-005	0.00000E+000	-6.50018E-001	-6.49974E-001	8	...........
	416	166.8	-6.39965E-001	-5.08573E-005	0.00000E+000	-6.40019E-001	-6.40170E-001	8	...........
	417	167.2	-6.29965E-001	-4.66670E-005	0.00000E+000	-6.30020E-001	-6.29966E-001	8	...........
	418	167.6	-6.19965E-001	-4.26936E-005	0.00000E+000	-6.20022E-001	-6.20163E-001	8	...........
	419	168	-6.09965E-001	-3.92044E-005	0.00000E+000	-6.10023E-001	-6.09959E-001	8	...........
	420	168.4	-5.99965E-001	-3.56490E-005	0.00000E+000	-6.00024E-001	-5.99955E-001	7	...........
	421	168.8	-5.89965E-001	-3.24906E-005	0.00000E+000	-5.89975E-001	-5.89952E-001	7	...........
	422	169.2	-5.79965E-001	-2.93891E-005	0.00000E+000	-5.79977E-001	-5.80148E-001	7	...........
	423	169.6	-5.69765E-001	-2.63293E-005	0.00000E+000	-5.69978E-001	-5.70144E-001	7	...........
	424	170	-5.59965E-001	-2.35919E-005	0.00000E+000	-5.59979E-001	-5.60141E-001	7	...........
	425	170.4	-5.49965E-001	-2.08812E-005	0.00000E+000	-5.49981E-001	-5.50137E-001	7	...........
	426	170.8	-5.39965E-001	-1.83291E-005	0.00000E+000	-5.39982E-001	-5.39933E-001	7	...........
	427	171.2	-5.29965E-001	-1.59207E-005	0.00000E+000	-5.29983E-001	-5.30130E-001	7	...........
	428	171.6	-5.19965E-001	-1.34322E-005	0.00000E+000	-5.19984E-001	-5.20126E-001	7	...........
	429	172	-5.09965E-001	-1.10972E-005	0.00000E+000	-5.09986E-001	-5.10122E-001	7	...........
	430	172.4	-5.00165E-001	-9.19657E-006	0.00000E+000	-4.99987E-001	-5.00118E-001	7	...........
	431	172.8	-4.90165E-001	-6.99861E-006	0.00000E+000	-4.89988E-001	-4.90315E-001	7	...........
	432	173.2	-4.79965E-001	-4.99606E-006	0.00000E+000	-4.79989E-001	-4.80111E-001	7	...........
	433	173.6	-4.69965E-001	-3.14382E-006	0.00000E+000	-4.69991E-001	-4.70107E-001	7	...........
	434	174	-4.59965E-001	-1.39848E-006	0.00000E+000	-4.59992E-001	-4.60104E-001	7	...........
	435	174.4	-4.50165E-001	7.12634E-007	0.00000E+000	-4.49993E-001	-4.50300E-001	7	...........
	436	174.8	-4.40165E-001	2.43125E-006	0.00000E+000	-4.39994E-001	-4.40296E-001	7	...........
	437	175.2	-4.29965E-001	4.19664E-006	0.00000E+000	-4.29996E-001	-4.30093E-001	7	...........
	438	175.6	-4.20165E-001	5.87852E-006	0.00000E+000	-4.19997E-001	-4.20089E-001	7	...........
	439	176	-4.10165E-001	7.62887E-006	0.00000E+000	-4.09998E-001	-4.10085E-001	7	...........
	440	176.4	-4.00165E-001	9.23893E-006	0.00000E+000	-3.99999E-001	-4.00282E-001	7	...........
	441	176.8	-3.89965E-001	1.07705E-005	0.00000E+000	-3.90001E-001	-3.90278E-001	7	...........
	442	177.2	-3.80165E-001	1.25192E-005	0.00000E+000	-3.80002E-001	-3.80274E-001	7	...........
	443	177.6	-3.69965E-001	1.41526E-005	0.00000E+000	-3.70003E-001	-3.70270E-001	7	...........
	444	178	-3.59965E-001	1.55923E-005	0.00000E+000	-3.60005E-001	-3.60267E-001	7	...........
	445	178.4	-3.50165E-001	1.72926E-005	0.00000E+000	-3.50006E-001	-3.50063E-001	7	...........
	446	178.8	-3.39965E-001	1.86270E-005	0.00000E+000	-3.40007E-001	-3.40259E-001	7	...........
	447	179.2	-3.30165E-001	2.02555E-005	0.00000E+000	-3.30008E-001	-3.30256E-001	7	...........
	448	179.6	-3.20165E-001	2.20509E-005	0.00000E+000	-3.20010E-001	-3.20252E-001	7	...........
	449	180	-3.10165E-001	2.34505E-005	0.00000E+000	-3.10011E-001	-3.10248E-001	7	...........
	450	180.4	-3.00365E-001	2.50188E-005	0.00000E+000	-3.00012E-001	-3.00445E-001	7	...........
	451	180.8	-2.90165E-001	2.63450E-005	0.00000E+000	-2.90013E-001	-2.90241E-001	7	...........
	452	181.2	-2.80165E-001	2.79283E-005	0.00000E+000	-2.80015E-001	-2.80437E-001	7	...........
	453	181.6	-2.70165E-001	2.96903E-005	0.00000E+000	-2.70016E-001	-2.70434E-001	7	...........
	454	182	-2.60165E-001	3.11885E-005	0.00000E+000	-2.60017E-001	-2.60230E-001	7	...........
	455	182.4	-2.50165E-001	3.26432E-005	0.00000E+000	-2.50018E-001	-2.50426E-001	7	...........
	456	182.8	-2.40365E-001	3.43852E-005	0.00000E+000	-2.40020E-001	-2.40222E-001	7	...........
	457	183.2	-2.30165E-001	3.57481E-005	0.00000E+000	-2.30021E-001	-2.30419E-001	7	...........
	458	183.6	-2.20365E-001	3.71577E-005	0.00000E+000	-2.20022E-001	-2.20415E-001	7	...........
	459	184	-2.10365E-001	3.87528E-005	0.00000E+000	-2.10023E-001	-2.10611E-001	7	...........
	460	184.4	-2.00165E-001	4.04163E-005	0.00000E+000	-2.00025E-001	-2.00608E-001	7	...........
	461	184.8	-1.90165E-001	4.16956E-005	0.00000E+000	-1.89976E-001	-1.90404E-001	7	...........
	462	185.2	-1.80365E-001	4.34293E-005	0.00000E+000	-1.79977E-001	-1.80200E-001	7	...........
	463	185.6	-1.70365E-001	4.48857E-005	0.00000E+000	-1.69979E-001	-1.70597E-001	7	...........
	464	186	-1.60165E-001	4.64559E-005	0.00000E+000	-1.59980E-001	-1.60593E-001	8	...........
	465	186.4	-1.50165E-001	4.78416E-005	0.00000E+000	-1.49981E-001	-1.50389E-001	8	...........
	466	186.8	-1.40165E-001	4.91772E-005	0.00000E+000	-1.39982E-001	-1.40586E-001	8	...........
	467	187.2	-1.30365E-001	5.08132E-005	0.00000E+000	-1.29984E-001	-1.30582E-001	8	...........
	468	187.6	-1.20365E-001	5.22490E-005	0.00000E+000	-1.19985E-001	-1.20378E-001	8	...........
	469	188	-1.10165E-001	5.38016E-005	0.00000E+000	-1.09986E-001	-1.10775E-001	8	...........
	470	188.4	-1.00365E-001	5.52206E-005	0.00000E+000	-9.99874E-002	-1.00371E-001	8	...........
	471	188.8	-9.01651E-002	5.69235E-005	0.00000E+000	-8.99886E-002	-9.05671E-002	8	...........
	472	189.2	-8.03651E-002	5.79753E-005	0.00000E+000	-7.99899E-002	-8.05634E-002	8	...........
	473	189.6	-7.05651E-002	5.97282E-005	0.00000E+000	-6.99912E-002	-7.05597E-002	8	...........
	474	190	-6.03651E-002	6.07967E-005	0.00000E+000	-5.99924E-002	-6.03559E-002	8	...........
	475	190.4	-5.03651E-002	6.24995E-005	0.00000E+000	-4.99937E-002	-5.05523E-002	8	...........
	476	190.8	-4.03651E-002	6.34845E-005	0.00000E+000	-3.99949E-002	-4.03485E-002	8	...........
	477	191.2	-3.03651E-002	6.47700E-005	0.00000E+000	-2.99962E-002	-3.03448E-002	8	...........
	478	191.6	-2.03651E-002	6.62892E-005	0.00000E+000	-1.99975E-002	-2.03411E-002	8	...........
	479	192	-1.03651E-002	6.76582E-005	0.00000E+000	-9.99874E-003	-1.07376E-002	8	...........
	480	192.4	-1.65120E-004	6.92776E-005	0.00000E+000	0.00000E+000	-5.33797E-004	8	...........
	481	192.8	9.63488E-003	7.03627E-005	0.00000E+000	9.99874E-003	9.66997E-003	8	...........
	482	193.2	1.94349E-002	7.15313E-005	0.00000E+000	1.99975E-002	1.94736E-002	8	...........
	483	193.6	2.96349E-002	7.29504E-005	0.00000E+000	2.99962E-002	2.94773E-002	8	...........
	484	194	3.96349E-002	7.44028E-005	0.00000E+000	3.99949E-002	3.94810E-002	8	...........
	485	194.4	4.98349E-002	7.55881E-005	0.00000E+000	4.99937E-002	4.94847E-002	8	...........
	486	194.8	5.96349E-002	7.65731E-005	0.00000E+000	5.99924E-002	5.94884E-002	8	...........
	487	195.2	6.96349E-002	7.77918E-005	0.00000E+000	6.99912E-002	6.92920E-002	8	...........
	488	195.6	7.94349E-002	7.94279E-005	0.00000E+000	7.99899E-002	7.92957E-002	8	...........
	489	196	8.96349E-002	8.05298E-005	0.00000E+000	8.99886E-002	8.92994E-002	8	...........
	490	196.4	9.96349E-002	8.17652E-005	0.00000E+000	9.99874E-002	9.93031E-002	8	...........
	491	196.8	1.09635E-001	8.29004E-005	0.00000E+000	1.09986E-001	1.09707E-001	8	...........
	492	197.2	1.19435E-001	8.41191E-005	0.00000E+000	1.19985E-001	1.19310E-001	8	...........
	493	197.6	1.29435E-001	8.52210E-005	0.00000E+000	1.29984E-001	1.29314E-001	8	...........
	494	198	1.39635E-001	8.65565E-005	0.00000E+000	1.39982E-001	1.39318E-001	8	...........
	495	198.4	1.49435E-001	8.80090E-005	0.00000E+000	1.49981E-001	1.49122E-001	8	...........
	496	198.8	1.59635E-001	8.89439E-005	0.00000E+000	1.59980E-001	1.59125E-001	8	...........
	497	199.2	1.69435E-001	9.04631E-005	0.00000E+000	1.69979E-001	1.69529E-001	8	...........
	498	199.6	1.79435E-001	9.17653E-005	0.00000E+000	1.79977E-001	1.79333E-001	8	...........
	499	200	1.89635E-001	9.26000E-005	0.00000E+000	1.89976E-001	1.89336E-001	8	...........
	500	200.4	1.99635E-001	9.41526E-005	0.00000E+000	2.00025E-001	1.99140E-001	8	...........
	501	200.8	2.09635E-001	9.49706E-005	0.00000E+000	2.10023E-001	2.09144E-001	8	...........
	502	201.2	2.19435E-001	9.57720E-005	0.00000E+000	2.20022E-001	2.19347E-001	8	...........
	503	201.6	2.29635E-001	9.69907E-005	0.00000E+000	2.30021E-001	2.29151E-001	8	...........
	504	202	2.39635E-001	9.81259E-005	0.00000E+000	2.40020E-001	2.39155E-001	8	...........
	505	202.4	2.49435E-001	9.94114E-005	0.00000E+000	2.50018E-001	2.49359E-001	8	...........
	506	202.8	2.59435E-001	1.00179E-004	0.00000E+000	2.60017E-001	2.59362E-001	8	...........
	507	203.2	2.69435E-001	1.01565E-004	0.00000E+000	2.70016E-001	2.69366E-001	8	...........
	508	203.6	2.79435E-001	1.02834E-004	0.00000E+000	2.80015E-001	2.79370E-001	8	...........
	509	204	2.89435E-001	1.03685E-004	0.00000E+000	2.90013E-001	2.89173E-001	8	...........
	510	204.4	2.99435E-001	1.04921E-004	0.00000E+000	3.00012E-001	2.99177E-001	8	...........
	511	204.8	3.09435E-001	1.06039E-004	0.00000E+000	3.10011E-001	3.09181E-001	8	...........
	512	205.2	3.19635E-001	1.06573E-004	0.00000E+000	3.20010E-001	3.19184E-001	8	...........
	513	205.6	3.29435E-001	1.07976E-004	0.00000E+000	3.30008E-001	3.29188E-001	8	...........
	514	206	3.39435E-001	1.09044E-004	0.00000E+000	3.40007E-001	3.39192E-001	8	...........
	515	206.4	3.49435E-001	1.09962E-004	0.00000E+000	3.50006E-001	3.48995E-001	8	...........
	516	206.8	3.59435E-001	1.11114E-004	0.00000E+000	3.60005E-001	3.59199E-001	8	...........
	517	207.2	3.69435E-001	1.12049E-004	0.00000E+000	3.70003E-001	3.69203E-001	8	...........
	518	207.6	3.79435E-001	1.13034E-004	0.00000E+000	3.80002E-001	3.79007E-001	8	...........
	519	208	3.89435E-001	1.14170E-004	0.00000E+000	3.90001E-001	3.89210E-001	8	...........
	520	208.4	3.99435E-001	1.15338E-004	0.00000E+000	3.99999E-001	3.99214E-001	8	...........
	521	208.8	4.09235E-001	1.16857E-004	0.00000E+000	4.09998E-001	4.09218E-001	8	...........
	522	209.2	4.19435E-001	1.17909E-004	0.00000E+000	4.19997E-001	4.19021E-001	8	...........
	523	209.6	4.29435E-001	1.18577E-004	0.00000E+000	4.29996E-001	4.29025E-001	8	...........
	524	210	4.39235E-001	1.19228E-004	0.00000E+000	4.39994E-001	4.39029E-001	8	...........
	525	210.4	4.49235E-001	1.20580E-004	0.00000E+000	4.49993E-001	4.49032E-001	8	...........
	526	210.8	4.59435E-001	1.21582E-004	0.00000E+000	4.59992E-001	4.58836E-001	8	...........
	527	211.2	4.69235E-001	1.22433E-004	0.00000E+000	4.69991E-001	4.69040E-001	8	...........
	528	211.6	4.79435E-001	1.23836E-004	0.00000E+000	4.79989E-001	4.79244E-001	8	...........
	529	212	4.89435E-001	1.24771E-004	0.00000E+000	4.89988E-001	4.89247E-001	8	...........
	530	212.4	4.99235E-001	1.25772E-004	0.00000E+000	4.99987E-001	4.99051E-001	8	...........
	531	212.8	5.09435E-001	1.26874E-004	0.00000E+000	5.09986E-001	5.09055E-001	8	...........
	532	213.2	5.19235E-001	1.27625E-004	0.00000E+000	5.19984E-001	5.18858E-001	8	...........
	533	213.6	5.29435E-001	1.29295E-004	0.00000E+000	5.29983E-001	5.29262E-001	8	...........
	534	214	5.39235E-001	1.29979E-004	0.00000E+000	5.39982E-001	5.39066E-001	8	...........
	535	214.4	5.49235E-001	1.31298E-004	0.00000E+000	5.49981E-001	5.49069E-001	8	...........
	536	214.8	5.59235E-001	1.32667E-004	0.00000E+000	5.59979E-001	5.58873E-001	8	...........
	537	215.2	5.69235E-001	1.33485E-004	0.00000E+000	5.69978E-001	5.69077E-001	8	...........
	538	215.6	5.79235E-001	1.34954E-004	0.00000E+000	5.79977E-001	5.78880E-001	8	...........
	539	216	5.89235E-001	1.35656E-004	0.00000E+000	5.89975E-001	5.89084E-001	8	...........
	540	216.4	5.99235E-001	1.37525E-004	0.00000E+000	6.00024E-001	5.98888E-001	8	...........
	541	216.8	6.09235E-001	1.38711E-004	0.00000E+000	6.10023E-001	6.08891E-001	8	...........
	542	217.2	6.19235E-001	1.39946E-004	0.00000E+000	6.20022E-001	6.19095E-001	8	...........
	543	217.6	6.29035E-001	1.42100E-004	0.00000E+000	6.30020E-001	6.28899E-001	8	...........
	544	218	6.39035E-001	1.43268E-004	0.00000E+000	6.40019E-001	6.38903E-001	8	...........
	545	218.4	6.49235E-001	1.44320E-004	0.00000E+000	6.50018E-001	6.48906E-001	8	...........
	546	218.8	6.59235E-001	1.46207E-004	0.00000E+000	6.60017E-001	6.59110E-001	8	...........
	547	219.2	6.69235E-001	1.47876E-004	0.00000E+000	6.70015E-001	6.69114E-001	8	...........
	548	219.6	6.79235E-001	1.49863E-004	0.00000E+000	6.80014E-001	6.78917E-001	8	...........
	549	220	6.89435E-001	1.51933E-004	0.00000E+000	6.90013E-001	6.89121E-001	8	...........
	550	220.4	6.99235E-001	1.54053E-004	0.00000E+000	7.00012E-001	6.98925E-001	8	...........
	551	220.8	7.09035E-001	1.56257E-004	0.00000E+000	7.10010E-001	7.08928E-001	8	...........
	552	221.2	7.19235E-001	1.58394E-004	0.00000E+000	7.20009E-001	7.19132E-001	8	...........
	553	221.6	7.29035E-001	1.60698E-004	0.00000E+000	7.30008E-001	7.28736E-001	8	...........
	554	222	7.39035E-001	1.63486E-004	0.00000E+000	7.40007E-001	7.38940E-001	8	...........
	555	222.4	7.49235E-001	1.66457E-004	0.00000E+000	7.50005E-001	7.48943E-001	8	...........
	556	222.8	7.59235E-001	1.69345E-004	0.00000E+000	7.60004E-001	7.58947E-001	8	...........
	557	223.2	7.69435E-001	1.72901E-004	0.00000E+000	7.70003E-001	7.68751E-001	8	...........
	558	223.6	7.79235E-001	1.75806E-004	0.00000E+000	7.80001E-001	7.78954E-001	8	...........
	559	224	7.89235E-001	1.79663E-004	0.00000E+000	7.90000E-001	7.88958E-001	8	...........
	560	224.4	7.99235E-001	1.83770E-004	0.00000E+000	7.99999E-001	7.98762E-001	8	...........
CURVE3	TABLE
	Pt	T	Vf	Im	Vu	Sig	Ach	IERange	Over
	#	s	V vs. Ref.	A	V	V	V	#	bits
	561	224.8	7.89235E-001	1.70431E-004	0.00000E+000	7.90000E-001	7.88758E-001	8	...........
	562	225.2	7.79235E-001	1.57960E-004	0.00000E+000	7.80001E-001	7.78754E-001	8	...........
	563	225.6	7.69235E-001	1.47542E-004	0.00000E+000	7.70003E-001	7.69151E-001	8	...........
	564	226	7.59035E-001	1.38277E-004	0.00000E+000	7.60004E-001	7.58947E-001	8	...........
	565	226.4	7.49235E-001	1.30113E-004	0.00000E+000	7.50005E-001	7.48943E-001	8	...........
	566	226.8	7.39035E-001	1.22367E-004	0.00000E+000	7.40007E-001	7.38940E-001	8	...........
	567	227.2	7.29235E-001	1.14904E-004	0.00000E+000	7.30008E-001	7.29136E-001	8	...........
	568	227.6	7.19235E-001	1.07859E-004	0.00000E+000	7.20009E-001	7.19132E-001	8	...........
	569	228	7.09235E-001	1.01315E-004	0.00000E+000	7.10010E-001	7.08928E-001	8	...........
	570	228.4	6.99035E-001	9.56718E-005	0.00000E+000	7.00012E-001	6.98925E-001	8	...........
	571	228.8	6.89235E-001	9.00290E-005	0.00000E+000	6.90013E-001	6.88921E-001	8	...........
	572	229.2	6.79235E-001	8.47869E-005	0.00000E+000	6.80014E-001	6.78917E-001	8	...........
	573	229.6	6.69035E-001	7.92943E-005	0.00000E+000	6.70015E-001	6.68914E-001	8	...........
	574	230	6.59235E-001	7.48870E-005	0.00000E+000	6.60017E-001	6.58910E-001	8	...........
	575	230.4	6.49235E-001	7.00789E-005	0.00000E+000	6.50018E-001	6.48906E-001	8	...........
	576	230.8	6.39235E-001	6.59720E-005	0.00000E+000	6.40019E-001	6.39103E-001	8	...........
	577	231.2	6.29235E-001	6.16815E-005	0.00000E+000	6.30020E-001	6.29099E-001	8	...........
	578	231.6	6.19235E-001	5.76747E-005	0.00000E+000	6.20022E-001	6.18895E-001	8	...........
	579	232	6.09435E-001	5.39351E-005	0.00000E+000	6.10023E-001	6.09092E-001	8	...........
	580	232.4	5.99435E-001	5.04460E-005	0.00000E+000	6.00024E-001	5.99088E-001	8	...........
	581	232.8	5.89235E-001	4.69234E-005	0.00000E+000	5.89975E-001	5.89084E-001	8	...........
	582	233.2	5.79235E-001	4.34342E-005	0.00000E+000	5.79977E-001	5.79080E-001	8	...........
	583	233.6	5.69435E-001	4.02455E-005	0.00000E+000	5.69978E-001	5.69077E-001	8	...........
	584	234	5.59035E-001	3.70458E-005	0.00000E+000	5.59979E-001	5.58873E-001	7	...........
	585	234.4	5.49235E-001	3.40712E-005	0.00000E+000	5.49981E-001	5.49069E-001	7	...........
	586	234.8	5.39435E-001	3.12937E-005	0.00000E+000	5.39982E-001	5.38866E-001	7	...........
	587	235.2	5.29435E-001	2.85028E-005	0.00000E+000	5.29983E-001	5.29262E-001	7	...........
	588	235.6	5.19235E-001	2.56786E-005	0.00000E+000	5.19984E-001	5.19258E-001	7	...........
	589	236	5.09235E-001	2.31549E-005	0.00000E+000	5.09986E-001	5.09055E-001	7	...........
	590	236.4	4.99435E-001	2.05695E-005	0.00000E+000	4.99987E-001	4.99051E-001	7	...........
	591	236.8	4.89435E-001	1.80208E-005	0.00000E+000	4.89988E-001	4.89047E-001	7	...........
	592	237.2	4.79035E-001	1.57760E-005	0.00000E+000	4.79989E-001	4.79244E-001	7	...........
	593	237.6	4.69235E-001	1.34862E-005	0.00000E+000	4.69991E-001	4.69240E-001	7	...........
	594	238	4.59235E-001	1.09542E-005	0.00000E+000	4.59992E-001	4.59036E-001	7	...........
	595	238.4	4.49435E-001	8.89654E-006	0.00000E+000	4.49993E-001	4.49232E-001	7	...........
	596	238.8	4.39235E-001	6.58166E-006	0.00000E+000	4.39994E-001	4.39029E-001	7	...........
	597	239.2	4.29435E-001	4.42378E-006	0.00000E+000	4.29996E-001	4.29025E-001	7	...........
	598	239.6	4.19035E-001	2.49806E-006	0.00000E+000	4.19997E-001	4.19221E-001	7	...........
	599	240	4.09235E-001	5.68998E-007	0.00000E+000	4.09998E-001	4.09018E-001	7	...........
	600	240.4	3.99435E-001	-1.54212E-006	0.00000E+000	3.99999E-001	3.99014E-001	7	...........
	601	240.8	3.89235E-001	-3.37598E-006	0.00000E+000	3.90001E-001	3.89210E-001	7	...........
	602	241.2	3.79235E-001	-5.51883E-006	0.00000E+000	3.80002E-001	3.79007E-001	7	...........
	603	241.6	3.69635E-001	-7.25749E-006	0.00000E+000	3.70003E-001	3.69403E-001	7	...........
	604	242	3.59635E-001	-9.17152E-006	0.00000E+000	3.60005E-001	3.59199E-001	7	...........
	605	242.4	3.49635E-001	-1.08300E-005	0.00000E+000	3.50006E-001	3.49195E-001	7	...........
	606	242.8	3.39435E-001	-1.23348E-005	0.00000E+000	3.40007E-001	3.39192E-001	7	...........
	607	243.2	3.29235E-001	-1.42656E-005	0.00000E+000	3.30008E-001	3.29188E-001	7	...........
	608	243.6	3.19435E-001	-1.59658E-005	0.00000E+000	3.20010E-001	3.19184E-001	7	...........
	609	244	3.09635E-001	-1.76026E-005	0.00000E+000	3.10011E-001	3.09381E-001	7	...........
	610	244.4	2.99435E-001	-1.91859E-005	0.00000E+000	3.00012E-001	2.99177E-001	7	...........
	611	244.8	2.89435E-001	-2.07442E-005	0.00000E+000	2.90013E-001	2.89173E-001	7	...........
	612	245.2	2.79435E-001	-2.21940E-005	0.00000E+000	2.80015E-001	2.79170E-001	7	...........
	613	245.6	2.69635E-001	-2.37205E-005	0.00000E+000	2.70016E-001	2.69166E-001	7	...........
	614	246	2.59635E-001	-2.51118E-005	0.00000E+000	2.60017E-001	2.59162E-001	7	...........
	615	246.4	2.49435E-001	-2.66584E-005	0.00000E+000	2.50018E-001	2.49359E-001	7	...........
	616	246.8	2.39435E-001	-2.80947E-005	0.00000E+000	2.40020E-001	2.38955E-001	7	...........
	617	247.2	2.29435E-001	-2.95261E-005	0.00000E+000	2.30021E-001	2.29351E-001	7	...........
	618	247.6	2.19435E-001	-3.10994E-005	0.00000E+000	2.20022E-001	2.19548E-001	7	...........
	619	248	2.09635E-001	-3.21950E-005	0.00000E+000	2.10023E-001	2.09344E-001	7	...........
	620	248.4	1.99635E-001	-3.37917E-005	0.00000E+000	2.00025E-001	1.99340E-001	7	...........
	621	248.8	1.89435E-001	-3.51696E-005	0.00000E+000	1.89976E-001	1.89336E-001	7	...........
	622	249.2	1.79635E-001	-3.63087E-005	0.00000E+000	1.79977E-001	1.79333E-001	7	...........
	623	249.6	1.69635E-001	-3.76883E-005	0.00000E+000	1.69979E-001	1.69329E-001	7	...........
	624	250	1.59435E-001	-3.87906E-005	0.00000E+000	1.59980E-001	1.59325E-001	7	...........
	625	250.4	1.49435E-001	-4.04892E-005	0.00000E+000	1.49981E-001	1.49122E-001	7	...........
	626	250.8	1.39435E-001	-4.15831E-005	0.00000E+000	1.39982E-001	1.39318E-001	7	...........
	627	251.2	1.29635E-001	-4.27957E-005	0.00000E+000	1.29984E-001	1.29314E-001	7	...........
	628	251.6	1.19635E-001	-4.41686E-005	0.00000E+000	1.19985E-001	1.19310E-001	7	...........
	629	252	1.09635E-001	-4.52826E-005	0.00000E+000	1.09986E-001	1.09507E-001	7	...........
	630	252.4	9.94349E-002	-4.63998E-005	0.00000E+000	9.99874E-002	9.93031E-002	8	...........
	631	252.8	8.96349E-002	-4.77521E-005	0.00000E+000	8.99886E-002	8.92994E-002	8	...........
	632	253.2	7.96349E-002	-4.88373E-005	0.00000E+000	7.99899E-002	7.92957E-002	8	...........
	633	253.6	6.96349E-002	-4.96386E-005	0.00000E+000	6.99912E-002	6.94921E-002	8	...........
	634	254	5.96349E-002	-5.12413E-005	0.00000E+000	5.99924E-002	5.94884E-002	8	...........
	635	254.4	4.96349E-002	-5.21261E-005	0.00000E+000	4.99937E-002	4.92846E-002	8	...........
	636	254.8	3.96349E-002	-5.35118E-005	0.00000E+000	3.99949E-002	3.92809E-002	8	...........
	637	255.2	2.96349E-002	-5.44634E-005	0.00000E+000	2.99962E-002	2.94773E-002	8	...........
	638	255.6	1.96349E-002	-5.56153E-005	0.00000E+000	1.99975E-002	1.94736E-002	8	...........
	639	256	9.83488E-003	-5.66337E-005	0.00000E+000	9.99874E-003	9.46990E-003	8	...........
	640	256.4	-5.65120E-004	-5.80193E-005	0.00000E+000	0.00000E+000	-5.33797E-004	8	...........
	641	256.8	-1.05651E-002	-5.89876E-005	0.00000E+000	-9.99874E-003	-1.05375E-002	8	...........
	642	257.2	-2.05651E-002	-5.99392E-005	0.00000E+000	-1.99975E-002	-2.05412E-002	8	...........
	643	257.6	-3.03651E-002	-6.09409E-005	0.00000E+000	-2.99962E-002	-3.05449E-002	8	...........
	644	258	-4.01651E-002	-6.18758E-005	0.00000E+000	-3.99949E-002	-4.05486E-002	8	...........
	645	258.4	-5.01651E-002	-6.32281E-005	0.00000E+000	-4.99937E-002	-5.03522E-002	8	...........
	646	258.8	-6.03651E-002	-6.43633E-005	0.00000E+000	-5.99924E-002	-6.05560E-002	8	...........
	647	259.2	-7.03651E-002	-6.54151E-005	0.00000E+000	-6.99912E-002	-7.03596E-002	8	...........
	648	259.6	-8.03651E-002	-6.68508E-005	0.00000E+000	-7.99899E-002	-8.05634E-002	8	...........
	649	260	-9.01651E-002	-6.76522E-005	0.00000E+000	-8.99886E-002	-9.03670E-002	8	...........
	650	260.4	-1.00165E-001	-6.85203E-005	0.00000E+000	-9.99874E-002	-1.00571E-001	8	...........
	651	260.8	-1.10365E-001	-6.94886E-005	0.00000E+000	-1.09986E-001	-1.10374E-001	8	...........
	652	261.2	-1.20165E-001	-7.08242E-005	0.00000E+000	-1.19985E-001	-1.20378E-001	8	...........
	653	261.6	-1.30365E-001	-7.18926E-005	0.00000E+000	-1.29984E-001	-1.30582E-001	8	...........
	654	262	-1.40365E-001	-7.31614E-005	0.00000E+000	-1.39982E-001	-1.40385E-001	8	...........
	655	262.4	-1.50165E-001	-7.41130E-005	0.00000E+000	-1.49981E-001	-1.50389E-001	8	...........
	656	262.8	-1.60365E-001	-7.50980E-005	0.00000E+000	-1.59980E-001	-1.60393E-001	8	...........
	657	263.2	-1.70165E-001	-7.62165E-005	0.00000E+000	-1.69979E-001	-1.70197E-001	8	...........
	658	263.6	-1.80365E-001	-7.72349E-005	0.00000E+000	-1.79977E-001	-1.80400E-001	8	...........
	659	264	-1.90165E-001	-7.83201E-005	0.00000E+000	-1.89976E-001	-1.90404E-001	8	...........
	660	264.4	-2.00165E-001	-7.90045E-005	0.00000E+000	-2.00025E-001	-2.00408E-001	8	...........
	661	264.8	-2.10365E-001	-8.02400E-005	0.00000E+000	-2.10023E-001	-2.10211E-001	8	...........
	662	265.2	-2.20165E-001	-8.14587E-005	0.00000E+000	-2.20022E-001	-2.20415E-001	8	...........
	663	265.6	-2.30165E-001	-8.24270E-005	0.00000E+000	-2.30021E-001	-2.30419E-001	8	...........
	664	266	-2.40165E-001	-8.33952E-005	0.00000E+000	-2.40020E-001	-2.40222E-001	8	...........
	665	266.4	-2.50165E-001	-8.40964E-005	0.00000E+000	-2.50018E-001	-2.50426E-001	8	...........
	666	266.8	-2.60165E-001	-8.53485E-005	0.00000E+000	-2.60017E-001	-2.60430E-001	8	...........
	667	267.2	-2.70165E-001	-8.64337E-005	0.00000E+000	-2.70016E-001	-2.70434E-001	8	...........
	668	267.6	-2.80365E-001	-8.79195E-005	0.00000E+000	-2.80015E-001	-2.80437E-001	8	...........
	669	268	-2.90165E-001	-8.87375E-005	0.00000E+000	-2.90013E-001	-2.90241E-001	8	...........
	670	268.4	-3.00165E-001	-8.98394E-005	0.00000E+000	-3.00012E-001	-3.00445E-001	8	...........
	671	268.8	-3.10365E-001	-9.06741E-005	0.00000E+000	-3.10011E-001	-3.10248E-001	8	...........
	672	269.2	-3.20165E-001	-9.17593E-005	0.00000E+000	-3.20010E-001	-3.20252E-001	8	...........
	673	269.6	-3.29965E-001	-9.25105E-005	0.00000E+000	-3.30008E-001	-3.30256E-001	8	...........
	674	270	-3.39965E-001	-9.36124E-005	0.00000E+000	-3.40007E-001	-3.40259E-001	8	...........
	675	270.4	-3.50165E-001	-9.46307E-005	0.00000E+000	-3.50006E-001	-3.50263E-001	8	...........
	676	270.8	-3.60165E-001	-9.55156E-005	0.00000E+000	-3.60005E-001	-3.60267E-001	8	...........
	677	271.2	-3.70165E-001	-9.69012E-005	0.00000E+000	-3.70003E-001	-3.70270E-001	8	...........
	678	271.6	-3.80165E-001	-9.82869E-005	0.00000E+000	-3.80002E-001	-3.80274E-001	8	...........
	679	272	-3.90165E-001	-9.87544E-005	0.00000E+000	-3.90001E-001	-3.90278E-001	8	...........
	680	272.4	-4.00165E-001	-1.00057E-004	0.00000E+000	-3.99999E-001	-4.00282E-001	8	...........
	681	272.8	-4.09965E-001	-1.01058E-004	0.00000E+000	-4.09998E-001	-4.10485E-001	8	...........
	682	273.2	-4.19965E-001	-1.02010E-004	0.00000E+000	-4.19997E-001	-4.20089E-001	8	...........
	683	273.6	-4.30165E-001	-1.02945E-004	0.00000E+000	-4.29996E-001	-4.30093E-001	8	...........
	684	274	-4.39965E-001	-1.04247E-004	0.00000E+000	-4.39994E-001	-4.40096E-001	8	...........
	685	274.4	-4.50165E-001	-1.05866E-004	0.00000E+000	-4.49993E-001	-4.50100E-001	8	...........
	686	274.8	-4.60165E-001	-1.06751E-004	0.00000E+000	-4.59992E-001	-4.60104E-001	8	...........
	687	275.2	-4.69965E-001	-1.07603E-004	0.00000E+000	-4.69991E-001	-4.70307E-001	8	...........
	688	275.6	-4.79965E-001	-1.08754E-004	0.00000E+000	-4.79989E-001	-4.80111E-001	8	...........
	689	276	-4.89965E-001	-1.10123E-004	0.00000E+000	-4.89988E-001	-4.89915E-001	8	...........
	690	276.4	-5.00165E-001	-1.10992E-004	0.00000E+000	-4.99987E-001	-5.00118E-001	8	...........
	691	276.8	-5.09965E-001	-1.12260E-004	0.00000E+000	-5.09986E-001	-5.09922E-001	8	...........
	692	277.2	-5.20165E-001	-1.13546E-004	0.00000E+000	-5.19984E-001	-5.20126E-001	8	...........
	693	277.6	-5.29965E-001	-1.14781E-004	0.00000E+000	-5.29983E-001	-5.29930E-001	8	...........
	694	278	-5.40165E-001	-1.16150E-004	0.00000E+000	-5.39982E-001	-5.40133E-001	8	...........
	695	278.4	-5.49965E-001	-1.17987E-004	0.00000E+000	-5.49981E-001	-5.50137E-001	8	...........
	696	278.8	-5.59965E-001	-1.18688E-004	0.00000E+000	-5.59979E-001	-5.59941E-001	8	...........
	697	279.2	-5.69965E-001	-1.20007E-004	0.00000E+000	-5.69978E-001	-5.70144E-001	8	...........
	698	279.6	-5.79765E-001	-1.21826E-004	0.00000E+000	-5.79977E-001	-5.79948E-001	8	...........
	699	280	-5.89965E-001	-1.22962E-004	0.00000E+000	-5.89975E-001	-5.90152E-001	8	...........
	700	280.4	-5.99965E-001	-1.24581E-004	0.00000E+000	-6.00024E-001	-6.00155E-001	8	...........
	701	280.8	-6.09965E-001	-1.26401E-004	0.00000E+000	-6.10023E-001	-6.10159E-001	8	...........
	702	281.2	-6.19965E-001	-1.27670E-004	0.00000E+000	-6.20022E-001	-6.20163E-001	8	...........
	703	281.6	-6.30165E-001	-1.29506E-004	0.00000E+000	-6.30020E-001	-6.30167E-001	8	...........
	704	282	-6.39965E-001	-1.31008E-004	0.00000E+000	-6.40019E-001	-6.40170E-001	8	...........
	705	282.4	-6.49965E-001	-1.33112E-004	0.00000E+000	-6.50018E-001	-6.49974E-001	8	...........
	706	282.8	-6.59965E-001	-1.34614E-004	0.00000E+000	-6.60017E-001	-6.59978E-001	8	...........
	707	283.2	-6.70165E-001	-1.37052E-004	0.00000E+000	-6.70015E-001	-6.69981E-001	8	...........
	708	283.6	-6.79765E-001	-1.39306E-004	0.00000E+000	-6.80014E-001	-6.79985E-001	8	...........
	709	284	-6.89765E-001	-1.41526E-004	0.00000E+000	-6.90013E-001	-6.89989E-001	8	...........
	710	284.4	-6.99965E-001	-1.43563E-004	0.00000E+000	-7.00012E-001	-6.99992E-001	8	...........
	711	284.8	-7.09965E-001	-1.46601E-004	0.00000E+000	-7.10010E-001	-7.09996E-001	8	...........
	712	285.2	-7.19965E-001	-1.49005E-004	0.00000E+000	-7.20009E-001	-7.19800E-001	8	...........
	713	285.6	-7.29965E-001	-1.51743E-004	0.00000E+000	-7.30008E-001	-7.30003E-001	8	...........
	714	286	-7.39965E-001	-1.54615E-004	0.00000E+000	-7.40007E-001	-7.40007E-001	8	...........
	715	286.4	-7.49965E-001	-1.57954E-004	0.00000E+000	-7.50005E-001	-7.50011E-001	8	...........
	716	286.8	-7.59765E-001	-1.61226E-004	0.00000E+000	-7.60004E-001	-7.59814E-001	8	...........
	717	287.2	-7.69765E-001	-1.65116E-004	0.00000E+000	-7.70003E-001	-7.70018E-001	8	...........
	718	287.6	-7.79765E-001	-1.69273E-004	0.00000E+000	-7.80001E-001	-7.79822E-001	8	...........
	719	288	-7.89765E-001	-1.73279E-004	0.00000E+000	-7.90000E-001	-7.90026E-001	8	...........
	720	288.4	-7.99765E-001	-1.77620E-004	0.00000E+000	-7.99999E-001	-7.99829E-001	8	...........
	721	288.8	-7.89965E-001	-1.61526E-004	0.00000E+000	-7.90000E-001	-7.89825E-001	8	...........
	722	289.2	-7.79765E-001	-1.47386E-004	0.00000E+000	-7.80001E-001	-7.80022E-001	8	...........
	723	289.6	-7.69765E-001	-1.35883E-004	0.00000E+000	-7.70003E-001	-7.70018E-001	8	...........
	724	290	-7.59765E-001	-1.25299E-004	0.00000E+000	-7.60004E-001	-7.60015E-001	8	...........
	725	290.4	-7.49965E-001	-1.15683E-004	0.00000E+000	-7.50005E-001	-7.49811E-001	8	...........
	726	290.8	-7.39765E-001	-1.06901E-004	0.00000E+000	-7.40007E-001	-7.40007E-001	8	...........
	727	291.2	-7.29965E-001	-9.91717E-005	0.00000E+000	-7.30008E-001	-7.29803E-001	8	...........
	728	291.6	-7.19765E-001	-9.19429E-005	0.00000E+000	-7.20009E-001	-7.20000E-001	8	...........
	729	292	-7.09965E-001	-8.52984E-005	0.00000E+000	-7.10010E-001	-7.10196E-001	8	...........
	730	292.4	-6.99765E-001	-7.87541E-005	0.00000E+000	-7.00012E-001	-6.99992E-001	8	...........
	731	292.8	-6.89765E-001	-7.30445E-005	0.00000E+000	-6.90013E-001	-6.89789E-001	8	...........
	732	293.2	-6.79965E-001	-6.76355E-005	0.00000E+000	-6.80014E-001	-6.79985E-001	8	...........
	733	293.6	-6.70165E-001	-6.24935E-005	0.00000E+000	-6.70015E-001	-6.69981E-001	8	...........
	734	294	-6.59965E-001	-5.74350E-005	0.00000E+000	-6.60017E-001	-6.59777E-001	8	...........
	735	294.4	-6.49965E-001	-5.29942E-005	0.00000E+000	-6.50018E-001	-6.49974E-001	8	...........
	736	294.8	-6.39965E-001	-4.88373E-005	0.00000E+000	-6.40019E-001	-6.39970E-001	8	...........
	737	295.2	-6.29965E-001	-4.46469E-005	0.00000E+000	-6.30020E-001	-6.30167E-001	8	...........
	738	295.6	-6.19965E-001	-4.05734E-005	0.00000E+000	-6.20022E-001	-6.19963E-001	8	...........
	739	296	-6.09965E-001	-3.72907E-005	0.00000E+000	-6.10023E-001	-6.09959E-001	7	...........
	740	296.4	-6.00165E-001	-3.39454E-005	0.00000E+000	-6.00024E-001	-6.00155E-001	7	...........
	741	296.8	-5.89965E-001	-3.05265E-005	0.00000E+000	-5.89975E-001	-5.90152E-001	7	...........
	742	297.2	-5.79965E-001	-2.76488E-005	0.00000E+000	-5.79977E-001	-5.79748E-001	7	...........
	743	297.6	-5.69965E-001	-2.47310E-005	0.00000E+000	-5.69978E-001	-5.69944E-001	7	...........
	744	298	-5.59965E-001	-2.19852E-005	0.00000E+000	-5.59979E-001	-5.59941E-001	7	...........
	745	298.4	-5.50165E-001	-1.91776E-005	0.00000E+000	-5.49981E-001	-5.50137E-001	7	...........
	746	298.8	-5.40165E-001	-1.66406E-005	0.00000E+000	-5.39982E-001	-5.40133E-001	7	...........
	747	299.2	-5.29965E-001	-1.42171E-005	0.00000E+000	-5.29983E-001	-5.30130E-001	7	...........
	748	299.6	-5.19965E-001	-1.17620E-005	0.00000E+000	-5.19984E-001	-5.20126E-001	7	...........
	749	300	-5.09965E-001	-9.72602E-006	0.00000E+000	-5.09986E-001	-5.09922E-001	7	...........
	750	300.4	-4.99965E-001	-7.61992E-006	0.00000E+000	-4.99987E-001	-5.00118E-001	7	...........
	751	300.8	-4.89965E-001	-5.56726E-006	0.00000E+000	-4.89988E-001	-4.90115E-001	7	...........
	752	301.2	-4.79965E-001	-3.54467E-006	0.00000E+000	-4.79989E-001	-4.80111E-001	7	...........
	753	301.6	-4.70165E-001	-1.51205E-006	0.00000E+000	-4.69991E-001	-4.70107E-001	7	...........
	754	302	-4.60165E-001	4.18681E-007	0.00000E+000	-4.59992E-001	-4.60104E-001	7	...........
	755	302.4	-4.49965E-001	2.21246E-006	0.00000E+000	-4.49993E-001	-4.50300E-001	7	...........
	756	302.8	-4.40165E-001	4.08808E-006	0.00000E+000	-4.39994E-001	-4.40096E-001	7	...........
	757	303.2	-4.29965E-001	5.85680E-006	0.00000E+000	-4.29996E-001	-4.30093E-001	7	...........
	758	303.6	-4.19965E-001	7.65726E-006	0.00000E+000	-4.19997E-001	-4.20289E-001	7	...........
	759	304	-4.10165E-001	9.45271E-006	0.00000E+000	-4.09998E-001	-4.10285E-001	7	...........
	760	304.4	-4.00165E-001	1.09358E-005	0.00000E+000	-3.99999E-001	-4.00081E-001	7	...........
	761	304.8	-3.90165E-001	1.24858E-005	0.00000E+000	-3.90001E-001	-3.90078E-001	7	...........
	762	305.2	-3.80165E-001	1.42762E-005	0.00000E+000	-3.80002E-001	-3.80074E-001	7	...........
	763	305.6	-3.70165E-001	1.58278E-005	0.00000E+000	-3.70003E-001	-3.70070E-001	7	...........
	764	306	-3.59965E-001	1.74629E-005	0.00000E+000	-3.60005E-001	-3.60267E-001	7	...........
	765	306.4	-3.50165E-001	1.91231E-005	0.00000E+000	-3.50006E-001	-3.50263E-001	7	...........
	766	306.8	-3.40165E-001	2.06563E-005	0.00000E+000	-3.40007E-001	-3.40259E-001	7	...........
	767	307.2	-3.30165E-001	2.21962E-005	0.00000E+000	-3.30008E-001	-3.30456E-001	7	...........
	768	307.6	-3.20165E-001	2.36693E-005	0.00000E+000	-3.20010E-001	-3.20252E-001	7	...........
	769	308	-3.10165E-001	2.50472E-005	0.00000E+000	-3.10011E-001	-3.10448E-001	7	...........
	770	308.4	-3.00365E-001	2.68427E-005	0.00000E+000	-3.00012E-001	-3.00445E-001	7	...........
	771	308.8	-2.90165E-001	2.81688E-005	0.00000E+000	-2.90013E-001	-2.90241E-001	7	...........
	772	309.2	-2.80365E-001	2.99526E-005	0.00000E+000	-2.80015E-001	-2.80437E-001	7	...........
	773	309.6	-2.70165E-001	3.13071E-005	0.00000E+000	-2.70016E-001	-2.70233E-001	7	...........
	774	310	-2.60365E-001	3.28720E-005	0.00000E+000	-2.60017E-001	-2.60630E-001	7	...........
	775	310.4	-2.50165E-001	3.44721E-005	0.00000E+000	-2.50018E-001	-2.50226E-001	7	...........
	776	310.8	-2.40165E-001	3.60721E-005	0.00000E+000	-2.40020E-001	-2.40422E-001	7	...........
	777	311.2	-2.30365E-001	3.75235E-005	0.00000E+000	-2.30021E-001	-2.30219E-001	7	...........
	778	311.6	-2.20365E-001	3.91052E-005	0.00000E+000	-2.20022E-001	-2.20415E-001	7	...........
	779	312	-2.10165E-001	4.03745E-005	0.00000E+000	-2.10023E-001	-2.10411E-001	7	...........
	780	312.4	-2.00365E-001	4.22034E-005	0.00000E+000	-2.00025E-001	-2.00408E-001	7	...........
	781	312.8	-1.90165E-001	4.34360E-005	0.00000E+000	-1.89976E-001	-1.90404E-001	7	...........
	782	313.2	-1.80165E-001	4.50093E-005	0.00000E+000	-1.79977E-001	-1.80200E-001	7	...........
	783	313.6	-1.70165E-001	4.64559E-005	0.00000E+000	-1.69979E-001	-1.70397E-001	8	...........
	784	314	-1.60165E-001	4.79418E-005	0.00000E+000	-1.59980E-001	-1.60393E-001	8	...........
	785	314.4	-1.50165E-001	4.95444E-005	0.00000E+000	-1.49981E-001	-1.50189E-001	8	...........
	786	314.8	-1.40165E-001	5.07298E-005	0.00000E+000	-1.39982E-001	-1.40385E-001	8	...........
	787	315.2	-1.30165E-001	5.22824E-005	0.00000E+000	-1.29984E-001	-1.30582E-001	8	...........
	788	315.6	-1.20365E-001	5.36179E-005	0.00000E+000	-1.19985E-001	-1.20578E-001	8	...........
	789	316	-1.10365E-001	5.51038E-005	0.00000E+000	-1.09986E-001	-1.10374E-001	8	...........
	790	316.4	-1.00165E-001	5.62724E-005	0.00000E+000	-9.99874E-002	-1.00571E-001	8	...........
	791	316.8	-9.01651E-002	5.78083E-005	0.00000E+000	-8.99886E-002	-9.03670E-002	8	...........
	792	317.2	-8.03651E-002	5.90103E-005	0.00000E+000	-7.99899E-002	-8.05634E-002	8	...........
	793	317.6	-7.03651E-002	6.03626E-005	0.00000E+000	-6.99912E-002	-7.05597E-002	8	...........
	794	318	-6.05651E-002	6.16314E-005	0.00000E+000	-5.99924E-002	-6.05560E-002	8	...........
	795	318.4	-5.05651E-002	6.29837E-005	0.00000E+000	-4.99937E-002	-5.03522E-002	8	...........
	796	318.8	-4.03651E-002	6.42691E-005	0.00000E+000	-3.99949E-002	-4.03485E-002	8	...........
	797	319.2	-3.03651E-002	6.56047E-005	0.00000E+000	-2.99962E-002	-3.05449E-002	8	...........
	798	319.6	-2.03651E-002	6.68067E-005	0.00000E+000	-1.99975E-002	-2.05412E-002	8	...........
	799	320	-1.03651E-002	6.79086E-005	0.00000E+000	-9.99874E-003	-1.05375E-002	8	...........
	800	320.4	-3.65120E-004	6.95613E-005	0.00000E+000	0.00000E+000	-5.33797E-004	8	...........
	801	320.8	9.43488E-003	7.09470E-005	0.00000E+000	9.99874E-003	9.46990E-003	8	...........
	802	321.2	1.96349E-002	7.20822E-005	0.00000E+000	1.99975E-002	1.94736E-002	8	...........
	803	321.6	2.96349E-002	7.32008E-005	0.00000E+000	2.99962E-002	2.94773E-002	8	...........
	804	322	3.96349E-002	7.42693E-005	0.00000E+000	3.99949E-002	3.94810E-002	8	...........
	805	322.4	4.96349E-002	7.56215E-005	0.00000E+000	4.99937E-002	4.94847E-002	8	...........
	806	322.8	5.96349E-002	7.69571E-005	0.00000E+000	5.99924E-002	5.92883E-002	8	...........
	807	323.2	6.96349E-002	7.83261E-005	0.00000E+000	6.99912E-002	6.92920E-002	8	...........
	808	323.6	7.96349E-002	7.95114E-005	0.00000E+000	7.99899E-002	7.94958E-002	8	...........
	809	324	8.96349E-002	8.04463E-005	0.00000E+000	8.99886E-002	8.92994E-002	8	...........
	810	324.4	9.96349E-002	8.19655E-005	0.00000E+000	9.99874E-002	9.93031E-002	8	...........
	811	324.8	1.09635E-001	8.30506E-005	0.00000E+000	1.09986E-001	1.09307E-001	8	...........
	812	325.2	1.19435E-001	8.42694E-005	0.00000E+000	1.19985E-001	1.19310E-001	8	...........
	813	325.6	1.29435E-001	8.54380E-005	0.00000E+000	1.29984E-001	1.29514E-001	8	...........
	814	326	1.39635E-001	8.67736E-005	0.00000E+000	1.39982E-001	1.39318E-001	8	...........
	815	326.4	1.49435E-001	8.75749E-005	0.00000E+000	1.49981E-001	1.49322E-001	8	...........
	816	326.8	1.59635E-001	8.87101E-005	0.00000E+000	1.59980E-001	1.59325E-001	8	...........
	817	327.2	1.69435E-001	8.98621E-005	0.00000E+000	1.69979E-001	1.69329E-001	8	...........
	818	327.6	1.79435E-001	9.11309E-005	0.00000E+000	1.79977E-001	1.79333E-001	8	...........
	819	328	1.89435E-001	9.18821E-005	0.00000E+000	1.89976E-001	1.89336E-001	8	...........
	820	328.4	1.99435E-001	9.33179E-005	0.00000E+000	2.00025E-001	1.99340E-001	8	...........
	821	328.8	2.09635E-001	9.44030E-005	0.00000E+000	2.10023E-001	2.09344E-001	8	...........
	822	329.2	2.19435E-001	9.55883E-005	0.00000E+000	2.20022E-001	2.19347E-001	8	...........
	823	329.6	2.29635E-001	9.64064E-005	0.00000E+000	2.30021E-001	2.29151E-001	8	...........
	824	330	2.39435E-001	9.77086E-005	0.00000E+000	2.40020E-001	2.39155E-001	8	...........
	825	330.4	2.49235E-001	9.86435E-005	0.00000E+000	2.50018E-001	2.49359E-001	8	...........
	826	330.8	2.59435E-001	9.96952E-005	0.00000E+000	2.60017E-001	2.59362E-001	8	...........
	827	331.2	2.69435E-001	1.00830E-004	0.00000E+000	2.70016E-001	2.69366E-001	8	...........
	828	331.6	2.79435E-001	1.02032E-004	0.00000E+000	2.80015E-001	2.79170E-001	8	...........
	829	332	2.89435E-001	1.03017E-004	0.00000E+000	2.90013E-001	2.89173E-001	8	...........
	830	332.4	2.99435E-001	1.04103E-004	0.00000E+000	3.00012E-001	2.99177E-001	8	...........
	831	332.8	3.09635E-001	1.05488E-004	0.00000E+000	3.10011E-001	3.09381E-001	8	...........
	832	333.2	3.19435E-001	1.06223E-004	0.00000E+000	3.20010E-001	3.19184E-001	8	...........
	833	333.6	3.29435E-001	1.07091E-004	0.00000E+000	3.30008E-001	3.29188E-001	8	...........
	834	334	3.39435E-001	1.08093E-004	0.00000E+000	3.40007E-001	3.39192E-001	8	...........
	835	334.4	3.49435E-001	1.09111E-004	0.00000E+000	3.50006E-001	3.48995E-001	8	...........
	836	334.8	3.59435E-001	1.10146E-004	0.00000E+000	3.60005E-001	3.58999E-001	8	...........
	837	335.2	3.69435E-001	1.10797E-004	0.00000E+000	3.70003E-001	3.69203E-001	8	...........
	838	335.6	3.79635E-001	1.12116E-004	0.00000E+000	3.80002E-001	3.79207E-001	8	...........
	839	336	3.89435E-001	1.13134E-004	0.00000E+000	3.90001E-001	3.89210E-001	8	...........
	840	336.4	3.99435E-001	1.14003E-004	0.00000E+000	3.99999E-001	3.99214E-001	8	...........
	841	336.8	4.09435E-001	1.14921E-004	0.00000E+000	4.09998E-001	4.09218E-001	8	...........
	842	337.2	4.19435E-001	1.15956E-004	0.00000E+000	4.19997E-001	4.19221E-001	8	...........
	843	337.6	4.29435E-001	1.16674E-004	0.00000E+000	4.29996E-001	4.29225E-001	8	...........
	844	338	4.39435E-001	1.17859E-004	0.00000E+000	4.39994E-001	4.39229E-001	8	...........
	845	338.4	4.49235E-001	1.19044E-004	0.00000E+000	4.49993E-001	4.49232E-001	8	...........
	846	338.8	4.59435E-001	1.19846E-004	0.00000E+000	4.59992E-001	4.59036E-001	8	...........
	847	339.2	4.69235E-001	1.20630E-004	0.00000E+000	4.69991E-001	4.69040E-001	8	...........
	848	339.6	4.79435E-001	1.21498E-004	0.00000E+000	4.79989E-001	4.79043E-001	8	...........
	849	340	4.89235E-001	1.22166E-004	0.00000E+000	4.89988E-001	4.89047E-001	8	...........
	850	340.4	4.99435E-001	1.23151E-004	0.00000E+000	4.99987E-001	4.99051E-001	8	...........
	851	340.8	5.09235E-001	1.24036E-004	0.00000E+000	5.09986E-001	5.08855E-001	8	...........
	852	341.2	5.19235E-001	1.25522E-004	0.00000E+000	5.19984E-001	5.19058E-001	8	...........
	853	341.6	5.29235E-001	1.26473E-004	0.00000E+000	5.29983E-001	5.28862E-001	8	...........
	854	342	5.39235E-001	1.27425E-004	0.00000E+000	5.39982E-001	5.39066E-001	8	...........
	855	342.4	5.49035E-001	1.28427E-004	0.00000E+000	5.49981E-001	5.49069E-001	8	...........
	856	342.8	5.59235E-001	1.29228E-004	0.00000E+000	5.59979E-001	5.58873E-001	8	...........
	857	343.2	5.69435E-001	1.30163E-004	0.00000E+000	5.69978E-001	5.69077E-001	8	...........
	858	343.6	5.79235E-001	1.32016E-004	0.00000E+000	5.79977E-001	5.79080E-001	8	...........
	859	344	5.89435E-001	1.32934E-004	0.00000E+000	5.89975E-001	5.89284E-001	8	...........
	860	344.4	5.99235E-001	1.34036E-004	0.00000E+000	6.00024E-001	5.99088E-001	8	...........
	861	344.8	6.09435E-001	1.34687E-004	0.00000E+000	6.10023E-001	6.09092E-001	8	...........
	862	345.2	6.19235E-001	1.36307E-004	0.00000E+000	6.20022E-001	6.18895E-001	8	...........
	863	345.6	6.29035E-001	1.37409E-004	0.00000E+000	6.30020E-001	6.29099E-001	8	...........
	864	346	6.39235E-001	1.38928E-004	0.00000E+000	6.40019E-001	6.39103E-001	8	...........
	865	346.4	6.49235E-001	1.40213E-004	0.00000E+000	6.50018E-001	6.48906E-001	8	...........
	866	346.8	6.59235E-001	1.41699E-004	0.00000E+000	6.60017E-001	6.59110E-001	8	...........
	867	347.2	6.69235E-001	1.43302E-004	0.00000E+000	6.70015E-001	6.69114E-001	8	...........
	868	347.6	6.79235E-001	1.44454E-004	0.00000E+000	6.80014E-001	6.78917E-001	8	...........
	869	348	6.89235E-001	1.46657E-004	0.00000E+000	6.90013E-001	6.88921E-001	8	...........
	870	348.4	6.99035E-001	1.48410E-004	0.00000E+000	7.00012E-001	6.98925E-001	8	...........
	871	348.8	7.09235E-001	1.50030E-004	0.00000E+000	7.10010E-001	7.08928E-001	8	...........
	872	349.2	7.19235E-001	1.52751E-004	0.00000E+000	7.20009E-001	7.18932E-001	8	...........
	873	349.6	7.29235E-001	1.54671E-004	0.00000E+000	7.30008E-001	7.28936E-001	8	...........
	874	350	7.39235E-001	1.57342E-004	0.00000E+000	7.40007E-001	7.38940E-001	8	...........
	875	350.4	7.49235E-001	1.59579E-004	0.00000E+000	7.50005E-001	7.48943E-001	8	...........
	876	350.8	7.59235E-001	1.62701E-004	0.00000E+000	7.60004E-001	7.58947E-001	8	...........
	877	351.2	7.69435E-001	1.65522E-004	0.00000E+000	7.70003E-001	7.68951E-001	8	...........
	878	351.6	7.79235E-001	1.69212E-004	0.00000E+000	7.80001E-001	7.78954E-001	8	...........
	879	352	7.89035E-001	1.72367E-004	0.00000E+000	7.90000E-001	7.88958E-001	8	...........
	880	352.4	7.99235E-001	1.76324E-004	0.00000E+000	7.99999E-001	7.98762E-001	8	...........
CURVE4	TABLE
	Pt	T	Vf	Im	Vu	Sig	Ach	IERange	Over
	#	s	V vs. Ref.	A	V	V	V	#	bits
	881	352.8	7.89235E-001	1.62250E-004	0.00000E+000	7.90000E-001	7.88958E-001	8	...........
	882	353.2	7.79235E-001	1.50547E-004	0.00000E+000	7.80001E-001	7.78954E-001	8	...........
	883	353.6	7.69235E-001	1.40146E-004	0.00000E+000	7.70003E-001	7.68951E-001	8	...........
	884	354	7.59235E-001	1.30948E-004	0.00000E+000	7.60004E-001	7.58947E-001	8	...........
	885	354.4	7.49035E-001	1.22150E-004	0.00000E+000	7.50005E-001	7.48743E-001	8	...........
	886	354.8	7.39235E-001	1.14570E-004	0.00000E+000	7.40007E-001	7.38940E-001	8	...........
	887	355.2	7.29235E-001	1.07241E-004	0.00000E+000	7.30008E-001	7.28736E-001	8	...........
	888	355.6	7.19235E-001	1.00263E-004	0.00000E+000	7.20009E-001	7.18932E-001	8	...........
	889	356	7.09235E-001	9.43530E-005	0.00000E+000	7.10010E-001	7.08928E-001	8	...........
	890	356.4	6.99435E-001	8.84764E-005	0.00000E+000	7.00012E-001	6.98925E-001	8	...........
	891	356.8	6.89235E-001	8.30340E-005	0.00000E+000	6.90013E-001	6.89121E-001	8	...........
	892	357.2	6.79235E-001	7.75915E-005	0.00000E+000	6.80014E-001	6.79117E-001	8	...........
	893	357.6	6.69235E-001	7.30339E-005	0.00000E+000	6.70015E-001	6.68914E-001	8	...........
	894	358	6.59235E-001	6.79086E-005	0.00000E+000	6.60017E-001	6.58910E-001	8	...........
	895	358.4	6.49235E-001	6.39853E-005	0.00000E+000	6.50018E-001	6.49106E-001	8	...........
	896	358.8	6.39235E-001	5.95279E-005	0.00000E+000	6.40019E-001	6.38903E-001	8	...........
	897	359.2	6.29235E-001	5.55044E-005	0.00000E+000	6.30020E-001	6.28899E-001	8	...........
	898	359.6	6.19435E-001	5.16981E-005	0.00000E+000	6.20022E-001	6.19095E-001	8	...........
	899	360	6.09435E-001	4.76746E-005	0.00000E+000	6.10023E-001	6.09092E-001	8	...........
	900	360.4	5.99435E-001	4.43023E-005	0.00000E+000	6.00024E-001	5.99088E-001	8	...........
	901	360.8	5.89235E-001	4.12639E-005	0.00000E+000	5.89975E-001	5.88884E-001	8	...........
	902	361.2	5.79235E-001	3.79750E-005	0.00000E+000	5.79977E-001	5.79080E-001	8	...........
	903	361.6	5.69235E-001	3.47694E-005	0.00000E+000	5.69978E-001	5.69077E-001	7	...........
	904	362	5.59235E-001	3.16545E-005	0.00000E+000	5.59979E-001	5.59073E-001	7	...........
	905	362.4	5.49435E-001	2.90039E-005	0.00000E+000	5.49981E-001	5.49069E-001	7	...........
	906	362.8	5.39435E-001	2.61145E-005	0.00000E+000	5.39982E-001	5.39066E-001	7	...........
	907	363.2	5.29435E-001	2.32802E-005	0.00000E+000	5.29983E-001	5.29062E-001	7	...........
	908	363.6	5.19235E-001	2.07549E-005	0.00000E+000	5.19984E-001	5.18858E-001	7	...........
	909	364	5.09235E-001	1.82229E-005	0.00000E+000	5.09986E-001	5.09055E-001	7	...........
	910	364.4	4.99035E-001	1.58178E-005	0.00000E+000	4.99987E-001	4.99051E-001	7	...........
	911	364.8	4.89235E-001	1.33860E-005	0.00000E+000	4.89988E-001	4.89247E-001	7	...........
	912	365.2	4.79435E-001	1.10344E-005	0.00000E+000	4.79989E-001	4.79043E-001	7	...........
	913	365.6	4.69435E-001	8.75791E-006	0.00000E+000	4.69991E-001	4.69040E-001	7	...........
	914	366	4.59435E-001	6.79545E-006	0.00000E+000	4.59992E-001	4.59036E-001	7	...........
	915	366.4	4.49235E-001	4.49727E-006	0.00000E+000	4.49993E-001	4.49032E-001	7	...........
	916	366.8	4.39235E-001	2.50641E-006	0.00000E+000	4.39994E-001	4.39029E-001	7	...........
	917	367.2	4.29235E-001	3.85278E-007	0.00000E+000	4.29996E-001	4.29025E-001	7	...........
	918	367.6	4.19435E-001	-1.78763E-006	0.00000E+000	4.19997E-001	4.19021E-001	7	...........
	919	368	4.09435E-001	-3.68663E-006	0.00000E+000	4.09998E-001	4.09218E-001	7	...........
	920	368.4	3.99435E-001	-5.54388E-006	0.00000E+000	3.99999E-001	3.99014E-001	7	...........
	921	368.8	3.89435E-001	-7.31093E-006	0.00000E+000	3.90001E-001	3.89210E-001	7	...........
	922	369.2	3.79435E-001	-9.10137E-006	0.00000E+000	3.80002E-001	3.79207E-001	7	...........
	923	369.6	3.69635E-001	-1.08150E-005	0.00000E+000	3.70003E-001	3.69203E-001	7	...........
	924	370	3.59435E-001	-1.25369E-005	0.00000E+000	3.60005E-001	3.59199E-001	7	...........
	925	370.4	3.49435E-001	-1.40802E-005	0.00000E+000	3.50006E-001	3.49396E-001	7	...........
	926	370.8	3.39435E-001	-1.57838E-005	0.00000E+000	3.40007E-001	3.39192E-001	7	...........
	927	371.2	3.29235E-001	-1.74606E-005	0.00000E+000	3.30008E-001	3.29388E-001	7	...........
	928	371.6	3.19435E-001	-1.88903E-005	0.00000E+000	3.20010E-001	3.19184E-001	7	...........
	929	372	3.09635E-001	-2.05555E-005	0.00000E+000	3.10011E-001	3.09381E-001	7	...........
	930	372.4	2.99435E-001	-2.22023E-005	0.00000E+000	3.00012E-001	2.99177E-001	7	...........
	931	372.8	2.89635E-001	-2.35585E-005	0.00000E+000	2.90013E-001	2.89373E-001	7	...........
	932	373.2	2.79435E-001	-2.50433E-005	0.00000E+000	2.80015E-001	2.79370E-001	7	...........
	933	373.6	2.69635E-001	-2.64178E-005	0.00000E+000	2.70016E-001	2.69366E-001	7	...........
	934	374	2.59435E-001	-2.79043E-005	0.00000E+000	2.60017E-001	2.59362E-001	7	...........
	935	374.4	2.49635E-001	-2.92338E-005	0.00000E+000	2.50018E-001	2.49159E-001	7	...........
	936	374.8	2.39435E-001	-3.05399E-005	0.00000E+000	2.40020E-001	2.39355E-001	7	...........
	937	375.2	2.29635E-001	-3.19261E-005	0.00000E+000	2.30021E-001	2.29151E-001	7	...........
	938	375.6	2.19435E-001	-3.33374E-005	0.00000E+000	2.20022E-001	2.19347E-001	7	...........
	939	376	2.09635E-001	-3.44531E-005	0.00000E+000	2.10023E-001	2.09344E-001	7	...........
	940	376.4	1.99635E-001	-3.60298E-005	0.00000E+000	2.00025E-001	1.99340E-001	7	...........
	941	376.8	1.89435E-001	-3.75847E-005	0.00000E+000	1.89976E-001	1.89536E-001	7	...........
	942	377.2	1.79635E-001	-3.87104E-005	0.00000E+000	1.79977E-001	1.79133E-001	7	...........
	943	377.6	1.69435E-001	-3.98395E-005	0.00000E+000	1.69979E-001	1.69329E-001	7	...........
	944	378	1.59635E-001	-4.11489E-005	0.00000E+000	1.59980E-001	1.59525E-001	7	...........
	945	378.4	1.49635E-001	-4.23130E-005	0.00000E+000	1.49981E-001	1.49522E-001	7	...........
	946	378.8	1.39635E-001	-4.35990E-005	0.00000E+000	1.39982E-001	1.39318E-001	7	...........
	947	379.2	1.29835E-001	-4.47481E-005	0.00000E+000	1.29984E-001	1.29514E-001	7	...........
	948	379.6	1.19635E-001	-4.58322E-005	0.00000E+000	1.19985E-001	1.19310E-001	8	...........
	949	380	1.09635E-001	-4.70509E-005	0.00000E+000	1.09986E-001	1.09107E-001	8	...........
	950	380.4	9.96349E-002	-4.83364E-005	0.00000E+000	9.99874E-002	9.95032E-002	8	...........
	951	380.8	8.96349E-002	-4.94884E-005	0.00000E+000	8.99886E-002	8.92994E-002	8	...........
	952	381.2	7.96349E-002	-5.03398E-005	0.00000E+000	7.99899E-002	7.92957E-002	8	...........
	953	381.6	6.94349E-002	-5.13749E-005	0.00000E+000	6.99912E-002	6.94921E-002	8	...........
	954	382	5.96349E-002	-5.29108E-005	0.00000E+000	5.99924E-002	5.94884E-002	8	...........
	955	382.4	4.96349E-002	-5.40627E-005	0.00000E+000	4.99937E-002	4.94847E-002	8	...........
	956	382.8	3.96349E-002	-5.47806E-005	0.00000E+000	3.99949E-002	3.94810E-002	8	...........
	957	383.2	2.96349E-002	-5.60828E-005	0.00000E+000	2.99962E-002	2.94773E-002	8	...........
	958	383.6	1.94349E-002	-5.71011E-005	0.00000E+000	1.99975E-002	1.94736E-002	8	...........
	959	384	9.43488E-003	-5.82197E-005	0.00000E+000	9.99874E-003	9.46990E-003	8	...........
	960	384.4	-1.65120E-004	-5.93048E-005	0.00000E+000	0.00000E+000	-5.33797E-004	8	...........
