EXPLAIN
TAG	PWR800_CHARGE
TITLE	LABEL	PWR Cyclic Charge Discharge (Cell) - Charge Step	Test &Identifier
DATE	LABEL	11-7-2017	Date
TIME	LABEL	13:50:23	Time
NOTES	NOTES	3	&Notes...
	supercap test cell
	0.8mg
	6M KOH
PSTAT	PSTAT	IFC5000-01520	Potentiostat
CAPACITY	QUANT	1.00000E-003	Capacity (A-hr)
CELLTYPE	SELECTOR	1	&Cell Type
WORKINGCONNECTION	SELECTOR	0	&Working Lead
MAXCHARGETIME	VARIABLEANDUNITS	1.00000E+002	s	1.00000E+002	second(s)	Max &Charge Time
CHARGECURRENT	QUANT	8.00000E-004	&Charge Current (A) 
VOLTAGEFINISH	TWOPARAM	F	1.00000E-003	3.60000E+003	&Voltage Finish	 I (A) < 	Max Time(s)
SAMPLETIME	QUANT	1.00000E-002	Sa&mple Period (s)
CHARGESTOPAT1	MULTIPARAM	4	1.00000E+000	Charge Stop At &1	Voltage > Limit	V
CHARGESTOPAT2	MULTIPARAM	0	0.00000E+000	Charge Stop At &2	None	N/A
AESBHCSELECTOR	TOGGLE	F	Save Both Half Cells
IRCOMP	TOGGLE	F	IR &Measure
EOC	QUANT	0	Open Circuit (V)
SEQUENCER	TOGGLE	TRUE	Run as Sequence
PSTATMODEL	IQUANT	53	Pstat Model
PSTATSECTION	LABEL	IFC5000-01520	Pstat Section
PSTATSERIALNO	LABEL	01520	Pstat Serial Number
CTRLMODE	IQUANT	0	Control Mode
ELECTROMETER	IQUANT	1	RE=0 or CS=1
IESTAB	IQUANT	0	I/E Stability
CASPEED	IQUANT	4	Control Amp Speed
CONVENTION	IQUANT	1	Current Convention
ICHRANGE	IQUANT	2	Ich Range
ICHRANGEMODE	TOGGLE	T	Ich Auto Range
ICHOFFSETENABLE	TOGGLE	F	Ich Offset Enable
ICHOFFSET	QUANT	0	Ich Offset (V)
ICHFILTER	IQUANT	1	Ich Filter
VCHRANGE	IQUANT	2	Vch Range
VCHRANGEMODE	TOGGLE	T	Vch Auto Range
VCHOFFSETENABLE	TOGGLE	F	Vch Offset Enable
VCHOFFSET	QUANT	0	Vch Offset (V)
VCHFILTER	IQUANT	1	Vch Filter
IERANGELOWERLIMIT	IQUANT	9	I/E Range Lower Limit
IERANGEMODE	TOGGLE	F	I/E AutoRange
IERANGE	IQUANT	9	I/E Range
ACHSELECT	IQUANT	1	Ach Select
ACHRANGE	IQUANT	2	Ach Range
ACHOFFSETENABLE	TOGGLE	F	Ach Offset Enable
ACHOFFSET	QUANT	0	Ach Offset (V)
ACHFILTER	IQUANT	1	Ach Filter
CABLEID	IQUANT	14	Cable ID
DCCALDATE	LABEL	5-7-2017	DC Calibration Date
ACCALDATE	LABEL	12/3/2015	AC Calibration Date
FRAMEWORKVERSION	QUANT	7.01	Framework Version
INSTRUMENTVERSION	LABEL	4.00	Instrument Version
CURVE	TABLE	46
	Pt	T	Vf	Im	Vu	Pwr	Sig	Ach	Temp	IERange	Over
	#	s	V	A	V	W	V	V	deg C	#	bits
	0	0.013333	5.53453E-001	8.00735E-004	0.00000E+000	4.43169E-004	4.80080E-001	5.53621E-001	3.57520E+000	9	...........
	1	0.026667	5.94065E-001	8.00910E-004	0.00000E+000	4.75792E-004	4.80080E-001	5.94235E-001	3.57520E+000	9	...........
	2	0.04	6.27028E-001	8.00705E-004	0.00000E+000	5.02065E-004	4.80080E-001	6.27198E-001	3.57520E+000	9	...........
	3	0.053333	6.54785E-001	8.01112E-004	0.00000E+000	5.24556E-004	4.80080E-001	6.54943E-001	3.57520E+000	9	...........
	4	0.066667	6.78739E-001	8.00657E-004	0.00000E+000	5.43436E-004	4.80080E-001	6.78899E-001	3.57520E+000	9	...........
	5	0.08	6.99878E-001	8.00778E-004	0.00000E+000	5.60447E-004	4.80080E-001	7.00045E-001	3.57520E+000	9	...........
	6	0.093333	7.18828E-001	8.01008E-004	0.00000E+000	5.75787E-004	4.80080E-001	7.19001E-001	3.57520E+000	9	...........
	7	0.106667	7.35991E-001	8.00919E-004	0.00000E+000	5.89469E-004	4.80080E-001	7.36161E-001	3.57520E+000	9	...........
	8	0.12	7.51732E-001	8.01236E-004	0.00000E+000	6.02314E-004	4.80080E-001	7.51905E-001	3.57520E+000	9	...........
	9	0.133333	7.66091E-001	8.00938E-004	0.00000E+000	6.13591E-004	4.80080E-001	7.66276E-001	3.57520E+000	9	...........
	10	0.146667	7.79460E-001	8.00996E-004	0.00000E+000	6.24344E-004	4.80080E-001	7.79637E-001	3.57520E+000	9	...........
	11	0.16	7.91950E-001	8.01105E-004	0.00000E+000	6.34435E-004	4.80080E-001	7.92141E-001	3.57520E+000	9	...........
	12	0.173333	8.03637E-001	8.01069E-004	0.00000E+000	6.43769E-004	4.80080E-001	8.03803E-001	3.57520E+000	9	...........
	13	0.186667	8.14520E-001	8.01063E-004	0.00000E+000	6.52482E-004	4.80080E-001	8.14726E-001	3.57520E+000	9	...........
	14	0.2	8.24836E-001	8.00926E-004	0.00000E+000	6.60633E-004	4.80080E-001	8.25011E-001	3.57520E+000	9	...........
	15	0.213333	8.34556E-001	8.00984E-004	0.00000E+000	6.68466E-004	4.80080E-001	8.34755E-001	3.57520E+000	9	...........
	16	0.226667	8.43819E-001	8.01344E-004	0.00000E+000	6.76190E-004	4.80080E-001	8.43994E-001	3.57520E+000	9	...........
	17	0.24	8.52592E-001	8.01004E-004	0.00000E+000	6.82930E-004	4.80080E-001	8.52816E-001	3.57520E+000	9	...........
	18	0.253333	8.60957E-001	8.01019E-004	0.00000E+000	6.89643E-004	4.80080E-001	8.61158E-001	3.57520E+000	9	...........
	19	0.266667	8.68965E-001	8.00924E-004	0.00000E+000	6.95975E-004	4.80080E-001	8.69173E-001	3.57520E+000	9	...........
	20	0.28	8.76605E-001	8.00796E-004	0.00000E+000	7.01982E-004	4.80080E-001	8.76813E-001	3.57520E+000	9	...........
	21	0.293333	8.83903E-001	8.00817E-004	0.00000E+000	7.07845E-004	4.80080E-001	8.84114E-001	3.57520E+000	9	...........
	22	0.306667	8.90914E-001	8.01340E-004	0.00000E+000	7.13925E-004	4.80080E-001	8.91123E-001	3.57520E+000	9	...........
	23	0.32	8.97709E-001	8.01174E-004	0.00000E+000	7.19222E-004	4.80080E-001	8.97922E-001	3.57520E+000	9	...........
	24	0.333333	9.04191E-001	8.00839E-004	0.00000E+000	7.24111E-004	4.80080E-001	9.04430E-001	3.57520E+000	9	...........
	25	0.346667	9.10433E-001	8.00906E-004	0.00000E+000	7.29171E-004	4.80080E-001	9.10683E-001	3.57520E+000	9	...........
	26	0.36	9.16476E-001	8.01352E-004	0.00000E+000	7.34421E-004	4.80080E-001	9.16730E-001	3.57520E+000	9	...........
	27	0.373333	9.22334E-001	8.00974E-004	0.00000E+000	7.38765E-004	4.80080E-001	9.22547E-001	3.57520E+000	9	...........
	28	0.386667	9.27982E-001	8.01304E-004	0.00000E+000	7.43595E-004	4.80080E-001	9.28205E-001	3.57520E+000	9	...........
	29	0.4	9.33429E-001	8.01091E-004	0.00000E+000	7.47762E-004	4.80080E-001	9.33623E-001	3.57520E+000	9	...........
	30	0.413333	9.38717E-001	8.01038E-004	0.00000E+000	7.51948E-004	4.80080E-001	9.38929E-001	3.57520E+000	9	...........
	31	0.426667	9.43874E-001	8.01281E-004	0.00000E+000	7.56308E-004	4.80080E-001	9.44046E-001	3.57520E+000	9	...........
	32	0.44	9.48868E-001	8.00773E-004	0.00000E+000	7.59828E-004	4.80080E-001	9.49074E-001	3.57520E+000	9	...........
	33	0.453333	9.53624E-001	8.01013E-004	0.00000E+000	7.63865E-004	4.80080E-001	9.53836E-001	3.57520E+000	9	...........
	34	0.466667	9.58292E-001	8.01187E-004	0.00000E+000	7.67771E-004	4.80080E-001	9.58519E-001	3.57520E+000	9	...........
	35	0.48	9.62761E-001	8.00762E-004	0.00000E+000	7.70942E-004	4.80080E-001	9.63028E-001	3.57520E+000	9	...........
	36	0.493333	9.67130E-001	8.00673E-004	0.00000E+000	7.74355E-004	4.80080E-001	9.67400E-001	3.57520E+000	9	...........
	37	0.506667	9.71407E-001	8.01037E-004	0.00000E+000	7.78133E-004	4.80080E-001	9.71713E-001	3.57520E+000	9	...........
	38	0.52	9.75590E-001	8.00915E-004	0.00000E+000	7.81364E-004	4.80080E-001	9.75850E-001	3.57520E+000	9	...........
	39	0.533333	9.79560E-001	8.00901E-004	0.00000E+000	7.84531E-004	4.80080E-001	9.79845E-001	3.57520E+000	9	...........
	40	0.546667	9.83480E-001	8.01036E-004	0.00000E+000	7.87803E-004	4.80080E-001	9.83761E-001	3.57520E+000	9	...........
	41	0.56	9.87255E-001	8.01186E-004	0.00000E+000	7.90975E-004	4.80080E-001	9.87534E-001	3.57520E+000	9	...........
	42	0.573333	9.90978E-001	8.01279E-004	0.00000E+000	7.94049E-004	4.80080E-001	9.91220E-001	3.57520E+000	9	...........
	43	0.586667	9.94538E-001	8.01210E-004	0.00000E+000	7.96833E-004	4.80080E-001	9.94821E-001	3.57520E+000	9	...........
	44	0.6	9.98058E-001	8.00875E-004	0.00000E+000	7.99320E-004	4.80080E-001	9.98367E-001	3.57520E+000	9	...........
	45	0.601667	1.00001E+000	8.00952E-004	0.00000E+000	8.00957E-004	4.80080E-001	1.00027E+000	3.57520E+000	9	...........
STARTTIMEOFFSET	QUANT	45.90501	Start Time Offset (s)
