EXPLAIN
TAG	PWR800_CHARGE
TITLE	LABEL	PWR Cyclic Charge Discharge (Cell) - Charge Step	Test &Identifier
DATE	LABEL	11-7-2017	Date
TIME	LABEL	13:54:43	Time
NOTES	NOTES	3	&Notes...
	supercap test cell
	0.8mg
	6M KOH
PSTAT	PSTAT	IFC5000-01520	Potentiostat
CAPACITY	QUANT	1.00000E-003	Capacity (A-hr)
CELLTYPE	SELECTOR	1	&Cell Type
WORKINGCONNECTION	SELECTOR	0	&Working Lead
MAXCHARGETIME	VARIABLEANDUNITS	1.00000E+002	s	1.00000E+002	second(s)	Max &Charge Time
CHARGECURRENT	QUANT	8.00000E-004	&Charge Current (A) 
VOLTAGEFINISH	TWOPARAM	F	1.00000E-003	3.60000E+003	&Voltage Finish	 I (A) < 	Max Time(s)
SAMPLETIME	QUANT	1.00000E-002	Sa&mple Period (s)
CHARGESTOPAT1	MULTIPARAM	4	1.00000E+000	Charge Stop At &1	Voltage > Limit	V
CHARGESTOPAT2	MULTIPARAM	0	0.00000E+000	Charge Stop At &2	None	N/A
AESBHCSELECTOR	TOGGLE	F	Save Both Half Cells
IRCOMP	TOGGLE	F	IR &Measure
EOC	QUANT	0	Open Circuit (V)
SEQUENCER	TOGGLE	TRUE	Run as Sequence
PSTATMODEL	IQUANT	53	Pstat Model
PSTATSECTION	LABEL	IFC5000-01520	Pstat Section
PSTATSERIALNO	LABEL	01520	Pstat Serial Number
CTRLMODE	IQUANT	0	Control Mode
ELECTROMETER	IQUANT	1	RE=0 or CS=1
IESTAB	IQUANT	0	I/E Stability
CASPEED	IQUANT	4	Control Amp Speed
CONVENTION	IQUANT	1	Current Convention
ICHRANGE	IQUANT	2	Ich Range
ICHRANGEMODE	TOGGLE	T	Ich Auto Range
ICHOFFSETENABLE	TOGGLE	F	Ich Offset Enable
ICHOFFSET	QUANT	0	Ich Offset (V)
ICHFILTER	IQUANT	1	Ich Filter
VCHRANGE	IQUANT	2	Vch Range
VCHRANGEMODE	TOGGLE	T	Vch Auto Range
VCHOFFSETENABLE	TOGGLE	F	Vch Offset Enable
VCHOFFSET	QUANT	0	Vch Offset (V)
VCHFILTER	IQUANT	1	Vch Filter
IERANGELOWERLIMIT	IQUANT	9	I/E Range Lower Limit
IERANGEMODE	TOGGLE	F	I/E AutoRange
IERANGE	IQUANT	9	I/E Range
ACHSELECT	IQUANT	1	Ach Select
ACHRANGE	IQUANT	2	Ach Range
ACHOFFSETENABLE	TOGGLE	F	Ach Offset Enable
ACHOFFSET	QUANT	0	Ach Offset (V)
ACHFILTER	IQUANT	1	Ach Filter
CABLEID	IQUANT	14	Cable ID
DCCALDATE	LABEL	5-7-2017	DC Calibration Date
ACCALDATE	LABEL	12/3/2015	AC Calibration Date
FRAMEWORKVERSION	QUANT	7.01	Framework Version
INSTRUMENTVERSION	LABEL	4.00	Instrument Version
CURVE	TABLE	38
	Pt	T	Vf	Im	Vu	Pwr	Sig	Ach	Temp	IERange	Over
	#	s	V	A	V	W	V	V	deg C	#	bits
	0	0.013333	5.53206E-001	8.00566E-004	0.00000E+000	4.42878E-004	4.80080E-001	5.53390E-001	3.57580E+000	9	...........
	1	0.026667	5.96254E-001	8.00899E-004	0.00000E+000	4.77540E-004	4.80080E-001	5.96470E-001	3.57580E+000	9	...........
	2	0.04	6.31634E-001	8.00697E-004	0.00000E+000	5.05747E-004	4.80080E-001	6.31821E-001	3.57580E+000	9	...........
	3	0.053333	6.61660E-001	8.00867E-004	0.00000E+000	5.29901E-004	4.80080E-001	6.61853E-001	3.57580E+000	9	...........
	4	0.066667	6.87778E-001	8.00907E-004	0.00000E+000	5.50846E-004	4.80080E-001	6.87979E-001	3.57580E+000	9	...........
	5	0.08	7.10895E-001	8.01283E-004	0.00000E+000	5.69628E-004	4.80080E-001	7.11121E-001	3.57580E+000	9	...........
	6	0.093333	7.31637E-001	8.00915E-004	0.00000E+000	5.85979E-004	4.80080E-001	7.31824E-001	3.57580E+000	9	...........
	7	0.106667	7.50405E-001	8.00569E-004	0.00000E+000	6.00751E-004	4.80080E-001	7.50610E-001	3.57580E+000	9	...........
	8	0.12	7.67556E-001	8.00973E-004	0.00000E+000	6.14792E-004	4.80080E-001	7.67735E-001	3.57580E+000	9	...........
	9	0.133333	7.83340E-001	8.00770E-004	0.00000E+000	6.27275E-004	4.80080E-001	7.83527E-001	3.57580E+000	9	...........
	10	0.146667	7.97933E-001	8.00898E-004	0.00000E+000	6.39063E-004	4.80080E-001	7.98101E-001	3.57580E+000	9	...........
	11	0.16	8.11453E-001	8.01262E-004	0.00000E+000	6.50186E-004	4.80080E-001	8.11643E-001	3.57580E+000	9	...........
	12	0.173333	8.24068E-001	8.00610E-004	0.00000E+000	6.59757E-004	4.80080E-001	8.24282E-001	3.57580E+000	9	...........
	13	0.186667	8.35862E-001	8.00706E-004	0.00000E+000	6.69279E-004	4.80080E-001	8.36094E-001	3.57580E+000	9	...........
	14	0.2	8.46976E-001	8.00730E-004	0.00000E+000	6.78199E-004	4.80080E-001	8.47202E-001	3.57580E+000	9	...........
	15	0.213333	8.57446E-001	8.01158E-004	0.00000E+000	6.86949E-004	4.80080E-001	8.57689E-001	3.57580E+000	9	...........
	16	0.226667	8.67370E-001	8.01194E-004	0.00000E+000	6.94931E-004	4.80080E-001	8.67628E-001	3.57580E+000	9	...........
	17	0.24	8.76757E-001	8.00852E-004	0.00000E+000	7.02153E-004	4.80080E-001	8.77001E-001	3.57580E+000	9	...........
	18	0.253333	8.85666E-001	8.00832E-004	0.00000E+000	7.09269E-004	4.80080E-001	8.85907E-001	3.57580E+000	9	...........
	19	0.266667	8.94191E-001	8.01009E-004	0.00000E+000	7.16254E-004	4.80080E-001	8.94388E-001	3.57580E+000	9	...........
	20	0.28	9.02276E-001	8.00994E-004	0.00000E+000	7.22718E-004	4.80080E-001	9.02529E-001	3.57580E+000	9	...........
	21	0.293333	9.10030E-001	8.01108E-004	0.00000E+000	7.29032E-004	4.80080E-001	9.10255E-001	3.57580E+000	9	...........
	22	0.306667	9.17461E-001	8.00796E-004	0.00000E+000	7.34699E-004	4.80080E-001	9.17719E-001	3.57580E+000	9	...........
	23	0.32	9.24638E-001	8.00798E-004	0.00000E+000	7.40449E-004	4.80080E-001	9.24840E-001	3.57580E+000	9	...........
	24	0.333333	9.31433E-001	8.00972E-004	0.00000E+000	7.46052E-004	4.80080E-001	9.31665E-001	3.57580E+000	9	...........
	25	0.346667	9.37949E-001	8.01417E-004	0.00000E+000	7.51689E-004	4.80080E-001	9.38196E-001	3.57580E+000	9	...........
	26	0.36	9.44215E-001	8.01022E-004	0.00000E+000	7.56337E-004	4.80080E-001	9.44483E-001	3.57580E+000	9	...........
	27	0.373333	9.50300E-001	8.01008E-004	0.00000E+000	7.61198E-004	4.80080E-001	9.50544E-001	3.57580E+000	9	...........
	28	0.386667	9.56117E-001	8.00861E-004	0.00000E+000	7.65717E-004	4.80080E-001	9.56361E-001	3.57580E+000	9	...........
	29	0.4	9.61736E-001	8.00949E-004	0.00000E+000	7.70301E-004	4.80080E-001	9.62003E-001	3.57580E+000	9	...........
	30	0.413333	9.67171E-001	8.01127E-004	0.00000E+000	7.74828E-004	4.80080E-001	9.67410E-001	3.57580E+000	9	...........
	31	0.426667	9.72401E-001	8.01159E-004	0.00000E+000	7.79047E-004	4.80080E-001	9.72673E-001	3.57580E+000	9	...........
	32	0.44	9.77539E-001	8.00762E-004	0.00000E+000	7.82776E-004	4.80080E-001	9.77751E-001	3.57580E+000	9	...........
	33	0.453333	9.82438E-001	8.00686E-004	0.00000E+000	7.86624E-004	4.80080E-001	9.82682E-001	3.57580E+000	9	...........
	34	0.466667	9.87199E-001	8.00822E-004	0.00000E+000	7.90571E-004	4.80080E-001	9.87445E-001	3.57580E+000	9	...........
	35	0.48	9.91832E-001	8.00962E-004	0.00000E+000	7.94419E-004	4.80080E-001	9.92069E-001	3.57580E+000	9	...........
	36	0.493333	9.96298E-001	8.00995E-004	0.00000E+000	7.98030E-004	4.80080E-001	9.96544E-001	3.57580E+000	9	...........
	37	0.5	9.99591E-001	8.00563E-004	0.00000E+000	8.00235E-004	4.80080E-001	9.99852E-001	3.57580E+000	9	...........
STARTTIMEOFFSET	QUANT	185.7199	Start Time Offset (s)
