EXPLAIN
TAG	PWR800_CHARGE
TITLE	LABEL	PWR Cyclic Charge Discharge (Cell) - Charge Step	Test &Identifier
DATE	LABEL	11-7-2017	Date
TIME	LABEL	13:50:32	Time
NOTES	NOTES	3	&Notes...
	supercap test cell
	0.8mg
	6M KOH
PSTAT	PSTAT	IFC5000-01520	Potentiostat
CAPACITY	QUANT	1.00000E-003	Capacity (A-hr)
CELLTYPE	SELECTOR	1	&Cell Type
WORKINGCONNECTION	SELECTOR	0	&Working Lead
MAXCHARGETIME	VARIABLEANDUNITS	1.00000E+002	s	1.00000E+002	second(s)	Max &Charge Time
CHARGECURRENT	QUANT	8.00000E-004	&Charge Current (A) 
VOLTAGEFINISH	TWOPARAM	F	1.00000E-003	3.60000E+003	&Voltage Finish	 I (A) < 	Max Time(s)
SAMPLETIME	QUANT	1.00000E-002	Sa&mple Period (s)
CHARGESTOPAT1	MULTIPARAM	4	1.00000E+000	Charge Stop At &1	Voltage > Limit	V
CHARGESTOPAT2	MULTIPARAM	0	0.00000E+000	Charge Stop At &2	None	N/A
AESBHCSELECTOR	TOGGLE	F	Save Both Half Cells
IRCOMP	TOGGLE	F	IR &Measure
EOC	QUANT	0	Open Circuit (V)
SEQUENCER	TOGGLE	TRUE	Run as Sequence
PSTATMODEL	IQUANT	53	Pstat Model
PSTATSECTION	LABEL	IFC5000-01520	Pstat Section
PSTATSERIALNO	LABEL	01520	Pstat Serial Number
CTRLMODE	IQUANT	0	Control Mode
ELECTROMETER	IQUANT	1	RE=0 or CS=1
IESTAB	IQUANT	0	I/E Stability
CASPEED	IQUANT	4	Control Amp Speed
CONVENTION	IQUANT	1	Current Convention
ICHRANGE	IQUANT	2	Ich Range
ICHRANGEMODE	TOGGLE	T	Ich Auto Range
ICHOFFSETENABLE	TOGGLE	F	Ich Offset Enable
ICHOFFSET	QUANT	0	Ich Offset (V)
ICHFILTER	IQUANT	1	Ich Filter
VCHRANGE	IQUANT	2	Vch Range
VCHRANGEMODE	TOGGLE	T	Vch Auto Range
VCHOFFSETENABLE	TOGGLE	F	Vch Offset Enable
VCHOFFSET	QUANT	0	Vch Offset (V)
VCHFILTER	IQUANT	1	Vch Filter
IERANGELOWERLIMIT	IQUANT	9	I/E Range Lower Limit
IERANGEMODE	TOGGLE	F	I/E AutoRange
IERANGE	IQUANT	9	I/E Range
ACHSELECT	IQUANT	1	Ach Select
ACHRANGE	IQUANT	2	Ach Range
ACHOFFSETENABLE	TOGGLE	F	Ach Offset Enable
ACHOFFSET	QUANT	0	Ach Offset (V)
ACHFILTER	IQUANT	1	Ach Filter
CABLEID	IQUANT	14	Cable ID
DCCALDATE	LABEL	5-7-2017	DC Calibration Date
ACCALDATE	LABEL	12/3/2015	AC Calibration Date
FRAMEWORKVERSION	QUANT	7.01	Framework Version
INSTRUMENTVERSION	LABEL	4.00	Instrument Version
CURVE	TABLE	45
	Pt	T	Vf	Im	Vu	Pwr	Sig	Ach	Temp	IERange	Over
	#	s	V	A	V	W	V	V	deg C	#	bits
	0	0.013333	5.59047E-001	8.00857E-004	0.00000E+000	4.47716E-004	4.80080E-001	5.59207E-001	3.57390E+000	9	...........
	1	0.026667	5.99052E-001	8.00751E-004	0.00000E+000	4.79691E-004	4.80080E-001	5.99233E-001	3.57390E+000	9	...........
	2	0.04	6.31550E-001	8.00973E-004	0.00000E+000	5.05855E-004	4.80080E-001	6.31708E-001	3.57390E+000	9	...........
	3	0.053333	6.58962E-001	8.00799E-004	0.00000E+000	5.27697E-004	4.80080E-001	6.59081E-001	3.57390E+000	9	...........
	4	0.066667	6.82633E-001	8.00743E-004	0.00000E+000	5.46613E-004	4.80080E-001	6.82778E-001	3.57390E+000	9	...........
	5	0.08	7.03536E-001	8.00811E-004	0.00000E+000	5.63400E-004	4.80080E-001	7.03695E-001	3.57390E+000	9	...........
	6	0.093333	7.22201E-001	8.01166E-004	0.00000E+000	5.78603E-004	4.80080E-001	7.22360E-001	3.57390E+000	9	...........
	7	0.106667	7.39106E-001	8.00852E-004	0.00000E+000	5.91915E-004	4.80080E-001	7.39291E-001	3.57390E+000	9	...........
	8	0.12	7.54562E-001	8.01183E-004	0.00000E+000	6.04542E-004	4.80080E-001	7.54729E-001	3.57390E+000	9	...........
	9	0.133333	7.68814E-001	8.00585E-004	0.00000E+000	6.15501E-004	4.80080E-001	7.68995E-001	3.57390E+000	9	...........
	10	0.146667	7.82050E-001	8.00718E-004	0.00000E+000	6.26202E-004	4.80080E-001	7.82220E-001	3.57390E+000	9	...........
	11	0.16	7.94301E-001	8.01174E-004	0.00000E+000	6.36374E-004	4.80080E-001	7.94514E-001	3.57390E+000	9	...........
	12	0.173333	8.05769E-001	8.01070E-004	0.00000E+000	6.45478E-004	4.80080E-001	8.05995E-001	3.57390E+000	9	...........
	13	0.186667	8.16542E-001	8.01514E-004	0.00000E+000	6.54470E-004	4.80080E-001	8.16752E-001	3.57390E+000	9	...........
	14	0.2	8.26737E-001	8.01341E-004	0.00000E+000	6.62498E-004	4.80080E-001	8.26936E-001	3.57390E+000	9	...........
	15	0.213333	8.36344E-001	8.00907E-004	0.00000E+000	6.69834E-004	4.80080E-001	8.36583E-001	3.57390E+000	9	...........
	16	0.226667	8.45518E-001	8.00968E-004	0.00000E+000	6.77233E-004	4.80080E-001	8.45743E-001	3.57390E+000	9	...........
	17	0.24	8.54257E-001	8.01246E-004	0.00000E+000	6.84470E-004	4.80080E-001	8.54499E-001	3.57390E+000	9	...........
	18	0.253333	8.62571E-001	8.00844E-004	0.00000E+000	6.90785E-004	4.80080E-001	8.62799E-001	3.57390E+000	9	...........
	19	0.266667	8.70552E-001	8.01316E-004	0.00000E+000	6.97587E-004	4.80080E-001	8.70782E-001	3.57390E+000	9	...........
	20	0.28	8.78171E-001	8.00719E-004	0.00000E+000	7.03168E-004	4.80080E-001	8.78392E-001	3.57390E+000	9	...........
	21	0.293333	8.85477E-001	8.00928E-004	0.00000E+000	7.09204E-004	4.80080E-001	8.85707E-001	3.57390E+000	9	...........
	22	0.306667	8.92465E-001	8.00841E-004	0.00000E+000	7.14723E-004	4.80080E-001	8.92702E-001	3.57390E+000	9	...........
	23	0.32	8.99195E-001	8.00811E-004	0.00000E+000	7.20085E-004	4.80080E-001	8.99444E-001	3.57390E+000	9	...........
	24	0.333333	9.05661E-001	8.01022E-004	0.00000E+000	7.25455E-004	4.80080E-001	9.05925E-001	3.57390E+000	9	...........
	25	0.346667	9.11901E-001	8.00910E-004	0.00000E+000	7.30350E-004	4.80080E-001	9.12145E-001	3.57390E+000	9	...........
	26	0.36	9.17914E-001	8.00884E-004	0.00000E+000	7.35143E-004	4.80080E-001	9.18187E-001	3.57390E+000	9	...........
	27	0.373333	9.23808E-001	8.01080E-004	0.00000E+000	7.40044E-004	4.80080E-001	9.24015E-001	3.57390E+000	9	...........
	28	0.386667	9.29442E-001	8.01083E-004	0.00000E+000	7.44560E-004	4.80080E-001	9.29660E-001	3.57390E+000	9	...........
	29	0.4	9.34861E-001	8.01148E-004	0.00000E+000	7.48962E-004	4.80080E-001	9.35095E-001	3.57390E+000	9	...........
	30	0.413333	9.40123E-001	8.00999E-004	0.00000E+000	7.53038E-004	4.80080E-001	9.40375E-001	3.57390E+000	9	...........
	31	0.426667	9.45261E-001	8.01061E-004	0.00000E+000	7.57211E-004	4.80080E-001	9.45509E-001	3.57390E+000	9	...........
	32	0.44	9.50296E-001	8.01008E-004	0.00000E+000	7.61195E-004	4.80080E-001	9.50526E-001	3.57390E+000	9	...........
	33	0.453333	9.55119E-001	8.01057E-004	0.00000E+000	7.65105E-004	4.80080E-001	9.55356E-001	3.57390E+000	9	...........
	34	0.466667	9.59747E-001	8.00948E-004	0.00000E+000	7.68708E-004	4.80080E-001	9.60023E-001	3.57390E+000	9	...........
	35	0.48	9.64289E-001	8.00972E-004	0.00000E+000	7.72369E-004	4.80080E-001	9.64563E-001	3.57390E+000	9	...........
	36	0.493333	9.68682E-001	8.00896E-004	0.00000E+000	7.75814E-004	4.80080E-001	9.68936E-001	3.57390E+000	9	...........
	37	0.506667	9.72950E-001	8.01327E-004	0.00000E+000	7.79651E-004	4.80080E-001	9.73206E-001	3.57390E+000	9	...........
	38	0.52	9.77099E-001	8.00626E-004	0.00000E+000	7.82291E-004	4.80080E-001	9.77340E-001	3.57390E+000	9	...........
	39	0.533333	9.81108E-001	8.01201E-004	0.00000E+000	7.86065E-004	4.80080E-001	9.81344E-001	3.57390E+000	9	...........
	40	0.546667	9.85011E-001	8.00952E-004	0.00000E+000	7.88947E-004	4.80080E-001	9.85295E-001	3.57390E+000	9	...........
	41	0.56	9.88839E-001	8.00975E-004	0.00000E+000	7.92036E-004	4.80080E-001	9.89112E-001	3.57390E+000	9	...........
	42	0.573333	9.92536E-001	8.01014E-004	0.00000E+000	7.95035E-004	4.80080E-001	9.92807E-001	3.57390E+000	9	...........
	43	0.586667	9.96156E-001	8.01274E-004	0.00000E+000	7.98194E-004	4.80080E-001	9.96394E-001	3.57390E+000	9	...........
	44	0.596667	9.99224E-001	8.00929E-004	0.00000E+000	8.00307E-004	4.80080E-001	9.99462E-001	3.57390E+000	9	...........
STARTTIMEOFFSET	QUANT	50.88	Start Time Offset (s)
