EXPLAIN
TAG	PWR800_CHARGE
TITLE	LABEL	PWR Cyclic Charge Discharge (Cell) - Charge Step	Test &Identifier
DATE	LABEL	11-7-2017	Date
TIME	LABEL	13:52:27	Time
NOTES	NOTES	3	&Notes...
	supercap test cell
	0.8mg
	6M KOH
PSTAT	PSTAT	IFC5000-01520	Potentiostat
CAPACITY	QUANT	1.00000E-003	Capacity (A-hr)
CELLTYPE	SELECTOR	1	&Cell Type
WORKINGCONNECTION	SELECTOR	0	&Working Lead
MAXCHARGETIME	VARIABLEANDUNITS	1.00000E+002	s	1.00000E+002	second(s)	Max &Charge Time
CHARGECURRENT	QUANT	8.00000E-004	&Charge Current (A) 
VOLTAGEFINISH	TWOPARAM	F	1.00000E-003	3.60000E+003	&Voltage Finish	 I (A) < 	Max Time(s)
SAMPLETIME	QUANT	1.00000E-002	Sa&mple Period (s)
CHARGESTOPAT1	MULTIPARAM	4	1.00000E+000	Charge Stop At &1	Voltage > Limit	V
CHARGESTOPAT2	MULTIPARAM	0	0.00000E+000	Charge Stop At &2	None	N/A
AESBHCSELECTOR	TOGGLE	F	Save Both Half Cells
IRCOMP	TOGGLE	F	IR &Measure
EOC	QUANT	0	Open Circuit (V)
SEQUENCER	TOGGLE	TRUE	Run as Sequence
PSTATMODEL	IQUANT	53	Pstat Model
PSTATSECTION	LABEL	IFC5000-01520	Pstat Section
PSTATSERIALNO	LABEL	01520	Pstat Serial Number
CTRLMODE	IQUANT	0	Control Mode
ELECTROMETER	IQUANT	1	RE=0 or CS=1
IESTAB	IQUANT	0	I/E Stability
CASPEED	IQUANT	4	Control Amp Speed
CONVENTION	IQUANT	1	Current Convention
ICHRANGE	IQUANT	2	Ich Range
ICHRANGEMODE	TOGGLE	T	Ich Auto Range
ICHOFFSETENABLE	TOGGLE	F	Ich Offset Enable
ICHOFFSET	QUANT	0	Ich Offset (V)
ICHFILTER	IQUANT	1	Ich Filter
VCHRANGE	IQUANT	2	Vch Range
VCHRANGEMODE	TOGGLE	T	Vch Auto Range
VCHOFFSETENABLE	TOGGLE	F	Vch Offset Enable
VCHOFFSET	QUANT	0	Vch Offset (V)
VCHFILTER	IQUANT	1	Vch Filter
IERANGELOWERLIMIT	IQUANT	9	I/E Range Lower Limit
IERANGEMODE	TOGGLE	F	I/E AutoRange
IERANGE	IQUANT	9	I/E Range
ACHSELECT	IQUANT	1	Ach Select
ACHRANGE	IQUANT	2	Ach Range
ACHOFFSETENABLE	TOGGLE	F	Ach Offset Enable
ACHOFFSET	QUANT	0	Ach Offset (V)
ACHFILTER	IQUANT	1	Ach Filter
CABLEID	IQUANT	14	Cable ID
DCCALDATE	LABEL	5-7-2017	DC Calibration Date
ACCALDATE	LABEL	12/3/2015	AC Calibration Date
FRAMEWORKVERSION	QUANT	7.01	Framework Version
INSTRUMENTVERSION	LABEL	4.00	Instrument Version
CURVE	TABLE	41
	Pt	T	Vf	Im	Vu	Pwr	Sig	Ach	Temp	IERange	Over
	#	s	V	A	V	W	V	V	deg C	#	bits
	0	0.013333	5.49760E-001	8.00504E-004	0.00000E+000	4.40085E-004	4.80080E-001	5.49912E-001	3.57480E+000	9	...........
	1	0.026667	5.92138E-001	8.00912E-004	0.00000E+000	4.74250E-004	4.80080E-001	5.92301E-001	3.57480E+000	9	...........
	2	0.04	6.26838E-001	8.00998E-004	0.00000E+000	5.02096E-004	4.80080E-001	6.26998E-001	3.57480E+000	9	...........
	3	0.053333	6.56194E-001	8.00715E-004	0.00000E+000	5.25424E-004	4.80080E-001	6.56368E-001	3.57480E+000	9	...........
	4	0.066667	6.81676E-001	8.00999E-004	0.00000E+000	5.46022E-004	4.80080E-001	6.81848E-001	3.57480E+000	9	...........
	5	0.08	7.04162E-001	8.00894E-004	0.00000E+000	5.63959E-004	4.80080E-001	7.04365E-001	3.57480E+000	9	...........
	6	0.093333	7.24313E-001	8.01060E-004	0.00000E+000	5.80218E-004	4.80080E-001	7.24485E-001	3.57480E+000	9	...........
	7	0.106667	7.42542E-001	8.00961E-004	0.00000E+000	5.94747E-004	4.80080E-001	7.42706E-001	3.57480E+000	9	...........
	8	0.12	7.59193E-001	8.01095E-004	0.00000E+000	6.08186E-004	4.80080E-001	7.59349E-001	3.57480E+000	9	...........
	9	0.133333	7.74510E-001	8.00971E-004	0.00000E+000	6.20360E-004	4.80080E-001	7.74675E-001	3.57480E+000	9	...........
	10	0.146667	7.88668E-001	8.01006E-004	0.00000E+000	6.31727E-004	4.80080E-001	7.88832E-001	3.57480E+000	9	...........
	11	0.16	8.01830E-001	8.01074E-004	0.00000E+000	6.42326E-004	4.80080E-001	8.01995E-001	3.57480E+000	9	...........
	12	0.173333	8.14122E-001	8.00912E-004	0.00000E+000	6.52040E-004	4.80080E-001	8.14287E-001	3.57480E+000	9	...........
	13	0.186667	8.25693E-001	8.00963E-004	0.00000E+000	6.61349E-004	4.80080E-001	8.25858E-001	3.57480E+000	9	...........
	14	0.2	8.36517E-001	8.00550E-004	0.00000E+000	6.69674E-004	4.80080E-001	8.36713E-001	3.57480E+000	9	...........
	15	0.213333	8.46814E-001	8.00953E-004	0.00000E+000	6.78259E-004	4.80080E-001	8.47011E-001	3.57480E+000	9	...........
	16	0.226667	8.56517E-001	8.01013E-004	0.00000E+000	6.86081E-004	4.80080E-001	8.56749E-001	3.57480E+000	9	...........
	17	0.24	8.65753E-001	8.01009E-004	0.00000E+000	6.93475E-004	4.80080E-001	8.65974E-001	3.57480E+000	9	...........
	18	0.253333	8.74563E-001	8.01018E-004	0.00000E+000	7.00541E-004	4.80080E-001	8.74791E-001	3.57480E+000	9	...........
	19	0.266667	8.82899E-001	8.00700E-004	0.00000E+000	7.06937E-004	4.80080E-001	8.83144E-001	3.57480E+000	9	...........
	20	0.28	8.90901E-001	8.01050E-004	0.00000E+000	7.13656E-004	4.80080E-001	8.91113E-001	3.57480E+000	9	...........
	21	0.293333	8.98584E-001	8.01049E-004	0.00000E+000	7.19810E-004	4.80080E-001	8.98832E-001	3.57480E+000	9	...........
	22	0.306667	9.05897E-001	8.01095E-004	0.00000E+000	7.25710E-004	4.80080E-001	9.06164E-001	3.57480E+000	9	...........
	23	0.32	9.12951E-001	8.00780E-004	0.00000E+000	7.31074E-004	4.80080E-001	9.13193E-001	3.57480E+000	9	...........
	24	0.333333	9.19741E-001	8.00774E-004	0.00000E+000	7.36505E-004	4.80080E-001	9.19980E-001	3.57480E+000	9	...........
	25	0.346667	9.26285E-001	8.01172E-004	0.00000E+000	7.42114E-004	4.80080E-001	9.26509E-001	3.57480E+000	9	...........
	26	0.36	9.32569E-001	8.00795E-004	0.00000E+000	7.46796E-004	4.80080E-001	9.32762E-001	3.57480E+000	9	...........
	27	0.373333	9.38570E-001	8.00914E-004	0.00000E+000	7.51713E-004	4.80080E-001	9.38804E-001	3.57480E+000	9	...........
	28	0.386667	9.44374E-001	8.00876E-004	0.00000E+000	7.56327E-004	4.80080E-001	9.44595E-001	3.57480E+000	9	...........
	29	0.4	9.50056E-001	8.00869E-004	0.00000E+000	7.60871E-004	4.80080E-001	9.50290E-001	3.57480E+000	9	...........
	30	0.413333	9.55511E-001	8.00914E-004	0.00000E+000	7.65282E-004	4.80080E-001	9.55739E-001	3.57480E+000	9	...........
	31	0.426667	9.60755E-001	8.00890E-004	0.00000E+000	7.69459E-004	4.80080E-001	9.61028E-001	3.57480E+000	9	...........
	32	0.44	9.65848E-001	8.00778E-004	0.00000E+000	7.73431E-004	4.80080E-001	9.66106E-001	3.57480E+000	9	...........
	33	0.453333	9.70755E-001	8.00913E-004	0.00000E+000	7.77490E-004	4.80080E-001	9.71048E-001	3.57480E+000	9	...........
	34	0.466667	9.75577E-001	8.00725E-004	0.00000E+000	7.81169E-004	4.80080E-001	9.75826E-001	3.57480E+000	9	...........
	35	0.48	9.80211E-001	8.01165E-004	0.00000E+000	7.85311E-004	4.80080E-001	9.80458E-001	3.57480E+000	9	...........
	36	0.493333	9.84700E-001	8.00833E-004	0.00000E+000	7.88580E-004	4.80080E-001	9.84959E-001	3.57480E+000	9	...........
	37	0.506667	9.89074E-001	8.01216E-004	0.00000E+000	7.92462E-004	4.80080E-001	9.89312E-001	3.57480E+000	9	...........
	38	0.52	9.93321E-001	8.00824E-004	0.00000E+000	7.95476E-004	4.80080E-001	9.93555E-001	3.57480E+000	9	...........
	39	0.533333	9.97450E-001	8.00836E-004	0.00000E+000	7.98794E-004	4.80080E-001	9.97681E-001	3.57480E+000	9	...........
	40	0.536667	9.99951E-001	8.00486E-004	0.00000E+000	8.00446E-004	4.80080E-001	1.00021E+000	3.57480E+000	9	...........
STARTTIMEOFFSET	QUANT	113.4517	Start Time Offset (s)
