EXPLAIN
TAG	PWR800_CHARGE
TITLE	LABEL	PWR Cyclic Charge Discharge (Cell) - Charge Step	Test &Identifier
DATE	LABEL	11-7-2017	Date
TIME	LABEL	13:52:07	Time
NOTES	NOTES	3	&Notes...
	supercap test cell
	0.8mg
	6M KOH
PSTAT	PSTAT	IFC5000-01520	Potentiostat
CAPACITY	QUANT	1.00000E-003	Capacity (A-hr)
CELLTYPE	SELECTOR	1	&Cell Type
WORKINGCONNECTION	SELECTOR	0	&Working Lead
MAXCHARGETIME	VARIABLEANDUNITS	1.00000E+002	s	1.00000E+002	second(s)	Max &Charge Time
CHARGECURRENT	QUANT	8.00000E-004	&Charge Current (A) 
VOLTAGEFINISH	TWOPARAM	F	1.00000E-003	3.60000E+003	&Voltage Finish	 I (A) < 	Max Time(s)
SAMPLETIME	QUANT	1.00000E-002	Sa&mple Period (s)
CHARGESTOPAT1	MULTIPARAM	4	1.00000E+000	Charge Stop At &1	Voltage > Limit	V
CHARGESTOPAT2	MULTIPARAM	0	0.00000E+000	Charge Stop At &2	None	N/A
AESBHCSELECTOR	TOGGLE	F	Save Both Half Cells
IRCOMP	TOGGLE	F	IR &Measure
EOC	QUANT	0	Open Circuit (V)
SEQUENCER	TOGGLE	TRUE	Run as Sequence
PSTATMODEL	IQUANT	53	Pstat Model
PSTATSECTION	LABEL	IFC5000-01520	Pstat Section
PSTATSERIALNO	LABEL	01520	Pstat Serial Number
CTRLMODE	IQUANT	0	Control Mode
ELECTROMETER	IQUANT	1	RE=0 or CS=1
IESTAB	IQUANT	0	I/E Stability
CASPEED	IQUANT	4	Control Amp Speed
CONVENTION	IQUANT	1	Current Convention
ICHRANGE	IQUANT	2	Ich Range
ICHRANGEMODE	TOGGLE	T	Ich Auto Range
ICHOFFSETENABLE	TOGGLE	F	Ich Offset Enable
ICHOFFSET	QUANT	0	Ich Offset (V)
ICHFILTER	IQUANT	1	Ich Filter
VCHRANGE	IQUANT	2	Vch Range
VCHRANGEMODE	TOGGLE	T	Vch Auto Range
VCHOFFSETENABLE	TOGGLE	F	Vch Offset Enable
VCHOFFSET	QUANT	0	Vch Offset (V)
VCHFILTER	IQUANT	1	Vch Filter
IERANGELOWERLIMIT	IQUANT	9	I/E Range Lower Limit
IERANGEMODE	TOGGLE	F	I/E AutoRange
IERANGE	IQUANT	9	I/E Range
ACHSELECT	IQUANT	1	Ach Select
ACHRANGE	IQUANT	2	Ach Range
ACHOFFSETENABLE	TOGGLE	F	Ach Offset Enable
ACHOFFSET	QUANT	0	Ach Offset (V)
ACHFILTER	IQUANT	1	Ach Filter
CABLEID	IQUANT	14	Cable ID
DCCALDATE	LABEL	5-7-2017	DC Calibration Date
ACCALDATE	LABEL	12/3/2015	AC Calibration Date
FRAMEWORKVERSION	QUANT	7.01	Framework Version
INSTRUMENTVERSION	LABEL	4.00	Instrument Version
CURVE	TABLE	41
	Pt	T	Vf	Im	Vu	Pwr	Sig	Ach	Temp	IERange	Over
	#	s	V	A	V	W	V	V	deg C	#	bits
	0	0.013333	5.53572E-001	8.00593E-004	0.00000E+000	4.43186E-004	4.80080E-001	5.53720E-001	3.57540E+000	9	...........
	1	0.026667	5.95325E-001	8.00879E-004	0.00000E+000	4.76784E-004	4.80080E-001	5.95507E-001	3.57540E+000	9	...........
	2	0.04	6.29488E-001	8.00961E-004	0.00000E+000	5.04195E-004	4.80080E-001	6.29633E-001	3.57540E+000	9	...........
	3	0.053333	6.58360E-001	8.00893E-004	0.00000E+000	5.27276E-004	4.80080E-001	6.58517E-001	3.57540E+000	9	...........
	4	0.066667	6.83375E-001	8.00856E-004	0.00000E+000	5.47285E-004	4.80080E-001	6.83552E-001	3.57540E+000	9	...........
	5	0.08	7.05475E-001	8.00797E-004	0.00000E+000	5.64942E-004	4.80080E-001	7.05649E-001	3.57540E+000	9	...........
	6	0.093333	7.25328E-001	8.01011E-004	0.00000E+000	5.80996E-004	4.80080E-001	7.25468E-001	3.57540E+000	9	...........
	7	0.106667	7.43267E-001	8.01014E-004	0.00000E+000	5.95367E-004	4.80080E-001	7.43435E-001	3.57540E+000	9	...........
	8	0.12	7.59638E-001	8.00766E-004	0.00000E+000	6.08293E-004	4.80080E-001	7.59830E-001	3.57540E+000	9	...........
	9	0.133333	7.74713E-001	8.00791E-004	0.00000E+000	6.20383E-004	4.80080E-001	7.74920E-001	3.57540E+000	9	...........
	10	0.146667	7.88673E-001	8.01298E-004	0.00000E+000	6.31962E-004	4.80080E-001	7.88877E-001	3.57540E+000	9	...........
	11	0.16	8.01649E-001	8.01142E-004	0.00000E+000	6.42235E-004	4.80080E-001	8.01856E-001	3.57540E+000	9	...........
	12	0.173333	8.13760E-001	8.01121E-004	0.00000E+000	6.51920E-004	4.80080E-001	8.13966E-001	3.57540E+000	9	...........
	13	0.186667	8.25130E-001	8.00784E-004	0.00000E+000	6.60751E-004	4.80080E-001	8.25335E-001	3.57540E+000	9	...........
	14	0.2	8.35779E-001	8.00586E-004	0.00000E+000	6.69113E-004	4.80080E-001	8.36013E-001	3.57540E+000	9	...........
	15	0.213333	8.45910E-001	8.01076E-004	0.00000E+000	6.77639E-004	4.80080E-001	8.46136E-001	3.57540E+000	9	...........
	16	0.226667	8.55491E-001	8.01194E-004	0.00000E+000	6.85415E-004	4.80080E-001	8.55721E-001	3.57540E+000	9	...........
	17	0.24	8.64570E-001	8.00893E-004	0.00000E+000	6.92428E-004	4.80080E-001	8.64797E-001	3.57540E+000	9	...........
	18	0.253333	8.73272E-001	8.01025E-004	0.00000E+000	6.99513E-004	4.80080E-001	8.73506E-001	3.57540E+000	9	...........
	19	0.266667	8.81537E-001	8.00849E-004	0.00000E+000	7.05978E-004	4.80080E-001	8.81784E-001	3.57540E+000	9	...........
	20	0.28	8.89478E-001	8.00815E-004	0.00000E+000	7.12307E-004	4.80080E-001	8.89716E-001	3.57540E+000	9	...........
	21	0.293333	8.97053E-001	8.00965E-004	0.00000E+000	7.18508E-004	4.80080E-001	8.97314E-001	3.57540E+000	9	...........
	22	0.306667	9.04313E-001	8.01196E-004	0.00000E+000	7.24532E-004	4.80080E-001	9.04597E-001	3.57540E+000	9	...........
	23	0.32	9.11319E-001	8.00960E-004	0.00000E+000	7.29930E-004	4.80080E-001	9.11539E-001	3.57540E+000	9	...........
	24	0.333333	9.18038E-001	8.01056E-004	0.00000E+000	7.35400E-004	4.80080E-001	9.18290E-001	3.57540E+000	9	...........
	25	0.346667	9.24541E-001	8.00854E-004	0.00000E+000	7.40423E-004	4.80080E-001	9.24769E-001	3.57540E+000	9	...........
	26	0.36	9.30765E-001	8.01093E-004	0.00000E+000	7.45630E-004	4.80080E-001	9.30993E-001	3.57540E+000	9	...........
	27	0.373333	9.36751E-001	8.00885E-004	0.00000E+000	7.50230E-004	4.80080E-001	9.36997E-001	3.57540E+000	9	...........
	28	0.386667	9.42507E-001	8.00931E-004	0.00000E+000	7.54883E-004	4.80080E-001	9.42758E-001	3.57540E+000	9	...........
	29	0.4	9.48144E-001	8.00681E-004	0.00000E+000	7.59162E-004	4.80080E-001	9.48355E-001	3.57540E+000	9	...........
	30	0.413333	9.53599E-001	8.01088E-004	0.00000E+000	7.63916E-004	4.80080E-001	9.53800E-001	3.57540E+000	9	...........
	31	0.426667	9.58807E-001	8.01183E-004	0.00000E+000	7.68180E-004	4.80080E-001	9.59018E-001	3.57540E+000	9	...........
	32	0.44	9.63838E-001	8.01067E-004	0.00000E+000	7.72099E-004	4.80080E-001	9.64073E-001	3.57540E+000	9	...........
	33	0.453333	9.68748E-001	8.01133E-004	0.00000E+000	7.76096E-004	4.80080E-001	9.68988E-001	3.57540E+000	9	...........
	34	0.466667	9.73520E-001	8.00979E-004	0.00000E+000	7.79770E-004	4.80080E-001	9.73759E-001	3.57540E+000	9	...........
	35	0.48	9.78125E-001	8.00849E-004	0.00000E+000	7.83331E-004	4.80080E-001	9.78344E-001	3.57540E+000	9	...........
	36	0.493333	9.82568E-001	8.00943E-004	0.00000E+000	7.86981E-004	4.80080E-001	9.82798E-001	3.57540E+000	9	...........
	37	0.506667	9.86915E-001	8.00894E-004	0.00000E+000	7.90414E-004	4.80080E-001	9.87155E-001	3.57540E+000	9	...........
	38	0.52	9.91118E-001	8.01001E-004	0.00000E+000	7.93887E-004	4.80080E-001	9.91387E-001	3.57540E+000	9	...........
	39	0.533333	9.95207E-001	8.00906E-004	0.00000E+000	7.97067E-004	4.80080E-001	9.95470E-001	3.57540E+000	9	...........
	40	0.545	9.98997E-001	8.01395E-004	0.00000E+000	8.00592E-004	4.80080E-001	9.99229E-001	3.57540E+000	9	...........
STARTTIMEOFFSET	QUANT	102.3633	Start Time Offset (s)
