EXPLAIN
TAG	PWR800_CHARGE
TITLE	LABEL	PWR Cyclic Charge Discharge (Cell) - Charge Step	Test &Identifier
DATE	LABEL	11-7-2017	Date
TIME	LABEL	13:53:53	Time
NOTES	NOTES	3	&Notes...
	supercap test cell
	0.8mg
	6M KOH
PSTAT	PSTAT	IFC5000-01520	Potentiostat
CAPACITY	QUANT	1.00000E-003	Capacity (A-hr)
CELLTYPE	SELECTOR	1	&Cell Type
WORKINGCONNECTION	SELECTOR	0	&Working Lead
MAXCHARGETIME	VARIABLEANDUNITS	1.00000E+002	s	1.00000E+002	second(s)	Max &Charge Time
CHARGECURRENT	QUANT	8.00000E-004	&Charge Current (A) 
VOLTAGEFINISH	TWOPARAM	F	1.00000E-003	3.60000E+003	&Voltage Finish	 I (A) < 	Max Time(s)
SAMPLETIME	QUANT	1.00000E-002	Sa&mple Period (s)
CHARGESTOPAT1	MULTIPARAM	4	1.00000E+000	Charge Stop At &1	Voltage > Limit	V
CHARGESTOPAT2	MULTIPARAM	0	0.00000E+000	Charge Stop At &2	None	N/A
AESBHCSELECTOR	TOGGLE	F	Save Both Half Cells
IRCOMP	TOGGLE	F	IR &Measure
EOC	QUANT	0	Open Circuit (V)
SEQUENCER	TOGGLE	TRUE	Run as Sequence
PSTATMODEL	IQUANT	53	Pstat Model
PSTATSECTION	LABEL	IFC5000-01520	Pstat Section
PSTATSERIALNO	LABEL	01520	Pstat Serial Number
CTRLMODE	IQUANT	0	Control Mode
ELECTROMETER	IQUANT	1	RE=0 or CS=1
IESTAB	IQUANT	0	I/E Stability
CASPEED	IQUANT	4	Control Amp Speed
CONVENTION	IQUANT	1	Current Convention
ICHRANGE	IQUANT	2	Ich Range
ICHRANGEMODE	TOGGLE	T	Ich Auto Range
ICHOFFSETENABLE	TOGGLE	F	Ich Offset Enable
ICHOFFSET	QUANT	0	Ich Offset (V)
ICHFILTER	IQUANT	1	Ich Filter
VCHRANGE	IQUANT	2	Vch Range
VCHRANGEMODE	TOGGLE	T	Vch Auto Range
VCHOFFSETENABLE	TOGGLE	F	Vch Offset Enable
VCHOFFSET	QUANT	0	Vch Offset (V)
VCHFILTER	IQUANT	1	Vch Filter
IERANGELOWERLIMIT	IQUANT	9	I/E Range Lower Limit
IERANGEMODE	TOGGLE	F	I/E AutoRange
IERANGE	IQUANT	9	I/E Range
ACHSELECT	IQUANT	1	Ach Select
ACHRANGE	IQUANT	2	Ach Range
ACHOFFSETENABLE	TOGGLE	F	Ach Offset Enable
ACHOFFSET	QUANT	0	Ach Offset (V)
ACHFILTER	IQUANT	1	Ach Filter
CABLEID	IQUANT	14	Cable ID
DCCALDATE	LABEL	5-7-2017	DC Calibration Date
ACCALDATE	LABEL	12/3/2015	AC Calibration Date
FRAMEWORKVERSION	QUANT	7.01	Framework Version
INSTRUMENTVERSION	LABEL	4.00	Instrument Version
CURVE	TABLE	39
	Pt	T	Vf	Im	Vu	Pwr	Sig	Ach	Temp	IERange	Over
	#	s	V	A	V	W	V	V	deg C	#	bits
	0	0.013333	5.52716E-001	8.00768E-004	0.00000E+000	4.42597E-004	4.80080E-001	5.52875E-001	3.57420E+000	9	...........
	1	0.026667	5.95592E-001	8.00709E-004	0.00000E+000	4.76895E-004	4.80080E-001	5.95775E-001	3.57420E+000	9	...........
	2	0.04	6.30782E-001	8.00851E-004	0.00000E+000	5.05163E-004	4.80080E-001	6.30951E-001	3.57420E+000	9	...........
	3	0.053333	6.60579E-001	8.00821E-004	0.00000E+000	5.29006E-004	4.80080E-001	6.60772E-001	3.57420E+000	9	...........
	4	0.066667	6.86463E-001	8.01124E-004	0.00000E+000	5.49942E-004	4.80080E-001	6.86650E-001	3.57420E+000	9	...........
	5	0.08	7.09340E-001	8.00707E-004	0.00000E+000	5.67973E-004	4.80080E-001	7.09530E-001	3.57420E+000	9	...........
	6	0.093333	7.29876E-001	8.00966E-004	0.00000E+000	5.84606E-004	4.80080E-001	7.30053E-001	3.57420E+000	9	...........
	7	0.106667	7.48441E-001	8.00877E-004	0.00000E+000	5.99409E-004	4.80080E-001	7.48616E-001	3.57420E+000	9	...........
	8	0.12	7.65436E-001	8.01060E-004	0.00000E+000	6.13160E-004	4.80080E-001	7.65605E-001	3.57420E+000	9	...........
	9	0.133333	7.81031E-001	8.00996E-004	0.00000E+000	6.25603E-004	4.80080E-001	7.81212E-001	3.57420E+000	9	...........
	10	0.146667	7.95422E-001	8.01071E-004	0.00000E+000	6.37189E-004	4.80080E-001	7.95632E-001	3.57420E+000	9	...........
	11	0.16	8.08819E-001	8.00984E-004	0.00000E+000	6.47851E-004	4.80080E-001	8.09015E-001	3.57420E+000	9	...........
	12	0.173333	8.21320E-001	8.00733E-004	0.00000E+000	6.57658E-004	4.80080E-001	8.21547E-001	3.57420E+000	9	...........
	13	0.186667	8.33037E-001	8.00927E-004	0.00000E+000	6.67202E-004	4.80080E-001	8.33247E-001	3.57420E+000	9	...........
	14	0.2	8.44087E-001	8.01216E-004	0.00000E+000	6.76296E-004	4.80080E-001	8.44298E-001	3.57420E+000	9	...........
	15	0.213333	8.54481E-001	8.01115E-004	0.00000E+000	6.84537E-004	4.80080E-001	8.54714E-001	3.57420E+000	9	...........
	16	0.226667	8.64350E-001	8.00815E-004	0.00000E+000	6.92184E-004	4.80080E-001	8.64591E-001	3.57420E+000	9	...........
	17	0.24	8.73717E-001	8.01192E-004	0.00000E+000	7.00015E-004	4.80080E-001	8.73952E-001	3.57420E+000	9	...........
	18	0.253333	8.82570E-001	8.00776E-004	0.00000E+000	7.06741E-004	4.80080E-001	8.82821E-001	3.57420E+000	9	...........
	19	0.266667	8.91041E-001	8.00757E-004	0.00000E+000	7.13507E-004	4.80080E-001	8.91280E-001	3.57420E+000	9	...........
	20	0.28	8.99114E-001	8.00861E-004	0.00000E+000	7.20065E-004	4.80080E-001	8.99367E-001	3.57420E+000	9	...........
	21	0.293333	9.06864E-001	8.01052E-004	0.00000E+000	7.26446E-004	4.80080E-001	9.07125E-001	3.57420E+000	9	...........
	22	0.306667	9.14274E-001	8.01146E-004	0.00000E+000	7.32467E-004	4.80080E-001	9.14543E-001	3.57420E+000	9	...........
	23	0.32	9.21423E-001	8.01022E-004	0.00000E+000	7.38080E-004	4.80080E-001	9.21667E-001	3.57420E+000	9	...........
	24	0.333333	9.28259E-001	8.00984E-004	0.00000E+000	7.43521E-004	4.80080E-001	9.28498E-001	3.57420E+000	9	...........
	25	0.346667	9.34768E-001	8.00994E-004	0.00000E+000	7.48744E-004	4.80080E-001	9.35019E-001	3.57420E+000	9	...........
	26	0.36	9.41020E-001	8.00808E-004	0.00000E+000	7.53576E-004	4.80080E-001	9.41260E-001	3.57420E+000	9	...........
	27	0.373333	9.47110E-001	8.00825E-004	0.00000E+000	7.58470E-004	4.80080E-001	9.47353E-001	3.57420E+000	9	...........
	28	0.386667	9.52944E-001	8.00873E-004	0.00000E+000	7.63187E-004	4.80080E-001	9.53175E-001	3.57420E+000	9	...........
	29	0.4	9.58533E-001	8.01214E-004	0.00000E+000	7.67990E-004	4.80080E-001	9.58788E-001	3.57420E+000	9	...........
	30	0.413333	9.63969E-001	8.01139E-004	0.00000E+000	7.72273E-004	4.80080E-001	9.64230E-001	3.57420E+000	9	...........
	31	0.426667	9.69231E-001	8.00991E-004	0.00000E+000	7.76345E-004	4.80080E-001	9.69503E-001	3.57420E+000	9	...........
	32	0.44	9.74390E-001	8.00680E-004	0.00000E+000	7.80175E-004	4.80080E-001	9.74626E-001	3.57420E+000	9	...........
	33	0.453333	9.79303E-001	8.00849E-004	0.00000E+000	7.84274E-004	4.80080E-001	9.79556E-001	3.57420E+000	9	...........
	34	0.466667	9.84079E-001	8.01252E-004	0.00000E+000	7.88496E-004	4.80080E-001	9.84336E-001	3.57420E+000	9	...........
	35	0.48	9.88744E-001	8.00865E-004	0.00000E+000	7.91851E-004	4.80080E-001	9.88982E-001	3.57420E+000	9	...........
	36	0.493333	9.93201E-001	8.00823E-004	0.00000E+000	7.95378E-004	4.80080E-001	9.93459E-001	3.57420E+000	9	...........
	37	0.506667	9.97551E-001	8.01298E-004	0.00000E+000	7.99336E-004	4.80080E-001	9.97795E-001	3.57420E+000	9	...........
	38	0.51	1.00022E+000	8.00965E-004	0.00000E+000	8.01142E-004	4.80080E-001	1.00049E+000	3.57420E+000	9	...........
STARTTIMEOFFSET	QUANT	159.4099	Start Time Offset (s)
