EXPLAIN
TAG	PWR800_CHARGE
TITLE	LABEL	PWR Cyclic Charge Discharge (Cell) - Charge Step	Test &Identifier
DATE	LABEL	11-7-2017	Date
TIME	LABEL	13:54:59	Time
NOTES	NOTES	3	&Notes...
	supercap test cell
	0.8mg
	6M KOH
PSTAT	PSTAT	IFC5000-01520	Potentiostat
CAPACITY	QUANT	1.00000E-003	Capacity (A-hr)
CELLTYPE	SELECTOR	1	&Cell Type
WORKINGCONNECTION	SELECTOR	0	&Working Lead
MAXCHARGETIME	VARIABLEANDUNITS	1.00000E+002	s	1.00000E+002	second(s)	Max &Charge Time
CHARGECURRENT	QUANT	8.00000E-004	&Charge Current (A) 
VOLTAGEFINISH	TWOPARAM	F	1.00000E-003	3.60000E+003	&Voltage Finish	 I (A) < 	Max Time(s)
SAMPLETIME	QUANT	1.00000E-002	Sa&mple Period (s)
CHARGESTOPAT1	MULTIPARAM	4	1.00000E+000	Charge Stop At &1	Voltage > Limit	V
CHARGESTOPAT2	MULTIPARAM	0	0.00000E+000	Charge Stop At &2	None	N/A
AESBHCSELECTOR	TOGGLE	F	Save Both Half Cells
IRCOMP	TOGGLE	F	IR &Measure
EOC	QUANT	0	Open Circuit (V)
SEQUENCER	TOGGLE	TRUE	Run as Sequence
PSTATMODEL	IQUANT	53	Pstat Model
PSTATSECTION	LABEL	IFC5000-01520	Pstat Section
PSTATSERIALNO	LABEL	01520	Pstat Serial Number
CTRLMODE	IQUANT	0	Control Mode
ELECTROMETER	IQUANT	1	RE=0 or CS=1
IESTAB	IQUANT	0	I/E Stability
CASPEED	IQUANT	4	Control Amp Speed
CONVENTION	IQUANT	1	Current Convention
ICHRANGE	IQUANT	2	Ich Range
ICHRANGEMODE	TOGGLE	T	Ich Auto Range
ICHOFFSETENABLE	TOGGLE	F	Ich Offset Enable
ICHOFFSET	QUANT	0	Ich Offset (V)
ICHFILTER	IQUANT	1	Ich Filter
VCHRANGE	IQUANT	2	Vch Range
VCHRANGEMODE	TOGGLE	T	Vch Auto Range
VCHOFFSETENABLE	TOGGLE	F	Vch Offset Enable
VCHOFFSET	QUANT	0	Vch Offset (V)
VCHFILTER	IQUANT	1	Vch Filter
IERANGELOWERLIMIT	IQUANT	9	I/E Range Lower Limit
IERANGEMODE	TOGGLE	F	I/E AutoRange
IERANGE	IQUANT	9	I/E Range
ACHSELECT	IQUANT	1	Ach Select
ACHRANGE	IQUANT	2	Ach Range
ACHOFFSETENABLE	TOGGLE	F	Ach Offset Enable
ACHOFFSET	QUANT	0	Ach Offset (V)
ACHFILTER	IQUANT	1	Ach Filter
CABLEID	IQUANT	14	Cable ID
DCCALDATE	LABEL	5-7-2017	DC Calibration Date
ACCALDATE	LABEL	12/3/2015	AC Calibration Date
FRAMEWORKVERSION	QUANT	7.01	Framework Version
INSTRUMENTVERSION	LABEL	4.00	Instrument Version
CURVE	TABLE	38
	Pt	T	Vf	Im	Vu	Pwr	Sig	Ach	Temp	IERange	Over
	#	s	V	A	V	W	V	V	deg C	#	bits
	0	0.013333	5.53717E-001	8.00704E-004	0.00000E+000	4.43364E-004	4.80080E-001	5.53876E-001	3.57430E+000	9	...........
	1	0.026667	5.96804E-001	8.00718E-004	0.00000E+000	4.77872E-004	4.80080E-001	5.97016E-001	3.57430E+000	9	...........
	2	0.04	6.32249E-001	8.00880E-004	0.00000E+000	5.06356E-004	4.80080E-001	6.32414E-001	3.57430E+000	9	...........
	3	0.053333	6.62334E-001	8.00846E-004	0.00000E+000	5.30427E-004	4.80080E-001	6.62517E-001	3.57430E+000	9	...........
	4	0.066667	6.88478E-001	8.00812E-004	0.00000E+000	5.51342E-004	4.80080E-001	6.88665E-001	3.57430E+000	9	...........
	5	0.08	7.11632E-001	8.00899E-004	0.00000E+000	5.69945E-004	4.80080E-001	7.11814E-001	3.57430E+000	9	...........
	6	0.093333	7.32388E-001	8.00989E-004	0.00000E+000	5.86635E-004	4.80080E-001	7.32605E-001	3.57430E+000	9	...........
	7	0.106667	7.51229E-001	8.00588E-004	0.00000E+000	6.01425E-004	4.80080E-001	7.51425E-001	3.57430E+000	9	...........
	8	0.12	7.68405E-001	8.00886E-004	0.00000E+000	6.15405E-004	4.80080E-001	7.68600E-001	3.57430E+000	9	...........
	9	0.133333	7.84187E-001	8.01349E-004	0.00000E+000	6.28408E-004	4.80080E-001	7.84399E-001	3.57430E+000	9	...........
	10	0.146667	7.98795E-001	8.00863E-004	0.00000E+000	6.39726E-004	4.80080E-001	7.99028E-001	3.57430E+000	9	...........
	11	0.16	8.12363E-001	8.00956E-004	0.00000E+000	6.50667E-004	4.80080E-001	8.12600E-001	3.57430E+000	9	...........
	12	0.173333	8.25056E-001	8.00954E-004	0.00000E+000	6.60833E-004	4.80080E-001	8.25301E-001	3.57430E+000	9	...........
	13	0.186667	8.36895E-001	8.00699E-004	0.00000E+000	6.70101E-004	4.80080E-001	8.37163E-001	3.57430E+000	9	...........
	14	0.2	8.48079E-001	8.01219E-004	0.00000E+000	6.79497E-004	4.80080E-001	8.48319E-001	3.57430E+000	9	...........
	15	0.213333	8.58595E-001	8.00931E-004	0.00000E+000	6.87675E-004	4.80080E-001	8.58853E-001	3.57430E+000	9	...........
	16	0.226667	8.68542E-001	8.01003E-004	0.00000E+000	6.95706E-004	4.80080E-001	8.68786E-001	3.57430E+000	9	...........
	17	0.24	8.77943E-001	8.00750E-004	0.00000E+000	7.03013E-004	4.80080E-001	8.78211E-001	3.57430E+000	9	...........
	18	0.253333	8.86904E-001	8.00791E-004	0.00000E+000	7.10225E-004	4.80080E-001	8.87144E-001	3.57430E+000	9	...........
	19	0.266667	8.95380E-001	8.00851E-004	0.00000E+000	7.17066E-004	4.80080E-001	8.95637E-001	3.57430E+000	9	...........
	20	0.28	9.03493E-001	8.01224E-004	0.00000E+000	7.23900E-004	4.80080E-001	9.03774E-001	3.57430E+000	9	...........
	21	0.293333	9.11264E-001	8.01108E-004	0.00000E+000	7.30021E-004	4.80080E-001	9.11518E-001	3.57430E+000	9	...........
	22	0.306667	9.18715E-001	8.00916E-004	0.00000E+000	7.35813E-004	4.80080E-001	9.18967E-001	3.57430E+000	9	...........
	23	0.32	9.25876E-001	8.00935E-004	0.00000E+000	7.41566E-004	4.80080E-001	9.26107E-001	3.57430E+000	9	...........
	24	0.333333	9.32694E-001	8.00526E-004	0.00000E+000	7.46646E-004	4.80080E-001	9.32922E-001	3.57430E+000	9	...........
	25	0.346667	9.39205E-001	8.00833E-004	0.00000E+000	7.52146E-004	4.80080E-001	9.39460E-001	3.57430E+000	9	...........
	26	0.36	9.45518E-001	8.00951E-004	0.00000E+000	7.57314E-004	4.80080E-001	9.45774E-001	3.57430E+000	9	...........
	27	0.373333	9.51627E-001	8.00985E-004	0.00000E+000	7.62239E-004	4.80080E-001	9.51876E-001	3.57430E+000	9	...........
	28	0.386667	9.57495E-001	8.00998E-004	0.00000E+000	7.66952E-004	4.80080E-001	9.57743E-001	3.57430E+000	9	...........
	29	0.4	9.63121E-001	8.01143E-004	0.00000E+000	7.71598E-004	4.80080E-001	9.63396E-001	3.57430E+000	9	...........
	30	0.413333	9.68566E-001	8.00897E-004	0.00000E+000	7.75722E-004	4.80080E-001	9.68843E-001	3.57430E+000	9	...........
	31	0.426667	9.73885E-001	8.01032E-004	0.00000E+000	7.80113E-004	4.80080E-001	9.74170E-001	3.57430E+000	9	...........
	32	0.44	9.78953E-001	8.00795E-004	0.00000E+000	7.83941E-004	4.80080E-001	9.79213E-001	3.57430E+000	9	...........
	33	0.453333	9.83871E-001	8.00730E-004	0.00000E+000	7.87816E-004	4.80080E-001	9.84117E-001	3.57430E+000	9	...........
	34	0.466667	9.88619E-001	8.01017E-004	0.00000E+000	7.91901E-004	4.80080E-001	9.88881E-001	3.57430E+000	9	...........
	35	0.48	9.93195E-001	8.01443E-004	0.00000E+000	7.95989E-004	4.80080E-001	9.93457E-001	3.57438E+000	9	...........
	36	0.493333	9.97681E-001	8.00879E-004	0.00000E+000	7.99023E-004	4.80080E-001	9.97964E-001	3.57460E+000	9	...........
	37	0.495	1.00013E+000	8.00419E-004	0.00000E+000	8.00520E-004	4.80080E-001	1.00045E+000	3.57460E+000	9	...........
STARTTIMEOFFSET	QUANT	194.4133	Start Time Offset (s)
