EXPLAIN
TAG	PWR800_CHARGE
TITLE	LABEL	PWR Cyclic Charge Discharge (Cell) - Charge Step	Test &Identifier
DATE	LABEL	11-7-2017	Date
TIME	LABEL	13:49:41	Time
NOTES	NOTES	3	&Notes...
	supercap test cell
	0.8mg
	6M KOH
PSTAT	PSTAT	IFC5000-01520	Potentiostat
CAPACITY	QUANT	1.00000E-003	Capacity (A-hr)
CELLTYPE	SELECTOR	1	&Cell Type
WORKINGCONNECTION	SELECTOR	0	&Working Lead
MAXCHARGETIME	VARIABLEANDUNITS	1.00000E+002	s	1.00000E+002	second(s)	Max &Charge Time
CHARGECURRENT	QUANT	8.00000E-004	&Charge Current (A) 
VOLTAGEFINISH	TWOPARAM	F	1.00000E-003	3.60000E+003	&Voltage Finish	 I (A) < 	Max Time(s)
SAMPLETIME	QUANT	1.00000E-002	Sa&mple Period (s)
CHARGESTOPAT1	MULTIPARAM	4	1.00000E+000	Charge Stop At &1	Voltage > Limit	V
CHARGESTOPAT2	MULTIPARAM	0	0.00000E+000	Charge Stop At &2	None	N/A
AESBHCSELECTOR	TOGGLE	F	Save Both Half Cells
IRCOMP	TOGGLE	F	IR &Measure
EOC	QUANT	0	Open Circuit (V)
SEQUENCER	TOGGLE	TRUE	Run as Sequence
PSTATMODEL	IQUANT	53	Pstat Model
PSTATSECTION	LABEL	IFC5000-01520	Pstat Section
PSTATSERIALNO	LABEL	01520	Pstat Serial Number
CTRLMODE	IQUANT	0	Control Mode
ELECTROMETER	IQUANT	1	RE=0 or CS=1
IESTAB	IQUANT	0	I/E Stability
CASPEED	IQUANT	4	Control Amp Speed
CONVENTION	IQUANT	1	Current Convention
ICHRANGE	IQUANT	2	Ich Range
ICHRANGEMODE	TOGGLE	T	Ich Auto Range
ICHOFFSETENABLE	TOGGLE	F	Ich Offset Enable
ICHOFFSET	QUANT	0	Ich Offset (V)
ICHFILTER	IQUANT	1	Ich Filter
VCHRANGE	IQUANT	2	Vch Range
VCHRANGEMODE	TOGGLE	T	Vch Auto Range
VCHOFFSETENABLE	TOGGLE	F	Vch Offset Enable
VCHOFFSET	QUANT	0	Vch Offset (V)
VCHFILTER	IQUANT	1	Vch Filter
IERANGELOWERLIMIT	IQUANT	9	I/E Range Lower Limit
IERANGEMODE	TOGGLE	F	I/E AutoRange
IERANGE	IQUANT	9	I/E Range
ACHSELECT	IQUANT	1	Ach Select
ACHRANGE	IQUANT	2	Ach Range
ACHOFFSETENABLE	TOGGLE	F	Ach Offset Enable
ACHOFFSET	QUANT	0	Ach Offset (V)
ACHFILTER	IQUANT	1	Ach Filter
CABLEID	IQUANT	14	Cable ID
DCCALDATE	LABEL	5-7-2017	DC Calibration Date
ACCALDATE	LABEL	12/3/2015	AC Calibration Date
FRAMEWORKVERSION	QUANT	7.01	Framework Version
INSTRUMENTVERSION	LABEL	4.00	Instrument Version
CURVE	TABLE	48
	Pt	T	Vf	Im	Vu	Pwr	Sig	Ach	Temp	IERange	Over
	#	s	V	A	V	W	V	V	deg C	#	bits
	0	0.013333	5.65189E-001	8.00705E-004	0.00000E+000	4.52550E-004	4.80080E-001	5.65355E-001	3.57370E+000	9	...........
	1	0.026667	6.04339E-001	8.00633E-004	0.00000E+000	4.83853E-004	4.80080E-001	6.04496E-001	3.57370E+000	9	...........
	2	0.04	6.36004E-001	8.00652E-004	0.00000E+000	5.09218E-004	4.80080E-001	6.36146E-001	3.57370E+000	9	...........
	3	0.053333	6.62608E-001	8.00807E-004	0.00000E+000	5.30620E-004	4.80080E-001	6.62757E-001	3.57370E+000	9	...........
	4	0.066667	6.85570E-001	8.00993E-004	0.00000E+000	5.49137E-004	4.80080E-001	6.85713E-001	3.57370E+000	9	...........
	5	0.08	7.05736E-001	8.01148E-004	0.00000E+000	5.65399E-004	4.80080E-001	7.05903E-001	3.57370E+000	9	...........
	6	0.093333	7.23778E-001	8.00712E-004	0.00000E+000	5.79537E-004	4.80080E-001	7.23940E-001	3.57370E+000	9	...........
	7	0.106667	7.40099E-001	8.01057E-004	0.00000E+000	5.92861E-004	4.80080E-001	7.40286E-001	3.57370E+000	9	...........
	8	0.12	7.55000E-001	8.01014E-004	0.00000E+000	6.04766E-004	4.80080E-001	7.55161E-001	3.57370E+000	9	...........
	9	0.133333	7.68665E-001	8.01146E-004	0.00000E+000	6.15813E-004	4.80080E-001	7.68821E-001	3.57370E+000	9	...........
	10	0.146667	7.81314E-001	8.01002E-004	0.00000E+000	6.25834E-004	4.80080E-001	7.81472E-001	3.57370E+000	9	...........
	11	0.16	7.93096E-001	8.00965E-004	0.00000E+000	6.35242E-004	4.80080E-001	7.93260E-001	3.57370E+000	9	...........
	12	0.173333	8.04135E-001	8.00801E-004	0.00000E+000	6.43952E-004	4.80080E-001	8.04288E-001	3.57370E+000	9	...........
	13	0.186667	8.14451E-001	8.01034E-004	0.00000E+000	6.52403E-004	4.80080E-001	8.14633E-001	3.57370E+000	9	...........
	14	0.2	8.24222E-001	8.00915E-004	0.00000E+000	6.60132E-004	4.80080E-001	8.24396E-001	3.57370E+000	9	...........
	15	0.213333	8.33434E-001	8.00982E-004	0.00000E+000	6.67566E-004	4.80080E-001	8.33611E-001	3.57370E+000	9	...........
	16	0.226667	8.42179E-001	8.00735E-004	0.00000E+000	6.74362E-004	4.80080E-001	8.42350E-001	3.57370E+000	9	...........
	17	0.24	8.50542E-001	8.01208E-004	0.00000E+000	6.81461E-004	4.80080E-001	8.50742E-001	3.57370E+000	9	...........
	18	0.253333	8.58474E-001	8.00865E-004	0.00000E+000	6.87521E-004	4.80080E-001	8.58681E-001	3.57370E+000	9	...........
	19	0.266667	8.66063E-001	8.00907E-004	0.00000E+000	6.93635E-004	4.80080E-001	8.66288E-001	3.57370E+000	9	...........
	20	0.28	8.73378E-001	8.00813E-004	0.00000E+000	6.99412E-004	4.80080E-001	8.73591E-001	3.57370E+000	9	...........
	21	0.293333	8.80299E-001	8.01269E-004	0.00000E+000	7.05357E-004	4.80080E-001	8.80549E-001	3.57370E+000	9	...........
	22	0.306667	8.86995E-001	8.00811E-004	0.00000E+000	7.10315E-004	4.80080E-001	8.87228E-001	3.57370E+000	9	...........
	23	0.32	8.93414E-001	8.00549E-004	0.00000E+000	7.15222E-004	4.80080E-001	8.93674E-001	3.57370E+000	9	...........
	24	0.333333	8.99608E-001	8.01067E-004	0.00000E+000	7.20646E-004	4.80080E-001	8.99849E-001	3.57370E+000	9	...........
	25	0.346667	9.05566E-001	8.00984E-004	0.00000E+000	7.25344E-004	4.80080E-001	9.05819E-001	3.57370E+000	9	...........
	26	0.36	9.11360E-001	8.00796E-004	0.00000E+000	7.29813E-004	4.80080E-001	9.11604E-001	3.57370E+000	9	...........
	27	0.373333	9.16925E-001	8.01086E-004	0.00000E+000	7.34536E-004	4.80080E-001	9.17184E-001	3.57370E+000	9	...........
	28	0.386667	9.22379E-001	8.01377E-004	0.00000E+000	7.39173E-004	4.80080E-001	9.22608E-001	3.57370E+000	9	...........
	29	0.4	9.27624E-001	8.01181E-004	0.00000E+000	7.43195E-004	4.80080E-001	9.27832E-001	3.57370E+000	9	...........
	30	0.413333	9.32669E-001	8.00974E-004	0.00000E+000	7.47044E-004	4.80080E-001	9.32904E-001	3.57370E+000	9	...........
	31	0.426667	9.37515E-001	8.01210E-004	0.00000E+000	7.51147E-004	4.80080E-001	9.37774E-001	3.57370E+000	9	...........
	32	0.44	9.42256E-001	8.01009E-004	0.00000E+000	7.54755E-004	4.80080E-001	9.42511E-001	3.57370E+000	9	...........
	33	0.453333	9.46879E-001	8.01131E-004	0.00000E+000	7.58574E-004	4.80080E-001	9.47131E-001	3.57370E+000	9	...........
	34	0.466667	9.51357E-001	8.00786E-004	0.00000E+000	7.61833E-004	4.80080E-001	9.51621E-001	3.57370E+000	9	...........
	35	0.48	9.55711E-001	8.01141E-004	0.00000E+000	7.65659E-004	4.80080E-001	9.55959E-001	3.57370E+000	9	...........
	36	0.493333	9.59939E-001	8.00746E-004	0.00000E+000	7.68667E-004	4.80080E-001	9.60208E-001	3.57370E+000	9	...........
	37	0.506667	9.64025E-001	8.00887E-004	0.00000E+000	7.72075E-004	4.80080E-001	9.64298E-001	3.57370E+000	9	...........
	38	0.52	9.68007E-001	8.01214E-004	0.00000E+000	7.75580E-004	4.80080E-001	9.68246E-001	3.57370E+000	9	...........
	39	0.533333	9.71877E-001	8.01036E-004	0.00000E+000	7.78508E-004	4.80080E-001	9.72119E-001	3.57370E+000	9	...........
	40	0.546667	9.75637E-001	8.00921E-004	0.00000E+000	7.81408E-004	4.80080E-001	9.75881E-001	3.57370E+000	9	...........
	41	0.56	9.79262E-001	8.01028E-004	0.00000E+000	7.84417E-004	4.80080E-001	9.79526E-001	3.57370E+000	9	...........
	42	0.573333	9.82821E-001	8.00683E-004	0.00000E+000	7.86928E-004	4.80080E-001	9.83049E-001	3.57370E+000	9	...........
	43	0.586667	9.86235E-001	8.01056E-004	0.00000E+000	7.90029E-004	4.80080E-001	9.86511E-001	3.57370E+000	9	...........
	44	0.6	9.89587E-001	8.01157E-004	0.00000E+000	7.92814E-004	4.80080E-001	9.89837E-001	3.57370E+000	9	...........
	45	0.613333	9.92811E-001	8.00658E-004	0.00000E+000	7.94902E-004	4.80080E-001	9.93077E-001	3.57370E+000	9	...........
	46	0.626667	9.95988E-001	8.01190E-004	0.00000E+000	7.97976E-004	4.80080E-001	9.96245E-001	3.57370E+000	9	...........
	47	0.638333	9.98913E-001	8.00624E-004	0.00000E+000	7.99753E-004	4.80080E-001	9.99165E-001	3.57370E+000	9	...........
STARTTIMEOFFSET	QUANT	22.94167	Start Time Offset (s)
