EXPLAIN
TAG	PWR800_CHARGE
TITLE	LABEL	PWR Cyclic Charge Discharge (Cell) - Charge Step	Test &Identifier
DATE	LABEL	11-7-2017	Date
TIME	LABEL	13:51:56	Time
NOTES	NOTES	3	&Notes...
	supercap test cell
	0.8mg
	6M KOH
PSTAT	PSTAT	IFC5000-01520	Potentiostat
CAPACITY	QUANT	1.00000E-003	Capacity (A-hr)
CELLTYPE	SELECTOR	1	&Cell Type
WORKINGCONNECTION	SELECTOR	0	&Working Lead
MAXCHARGETIME	VARIABLEANDUNITS	1.00000E+002	s	1.00000E+002	second(s)	Max &Charge Time
CHARGECURRENT	QUANT	8.00000E-004	&Charge Current (A) 
VOLTAGEFINISH	TWOPARAM	F	1.00000E-003	3.60000E+003	&Voltage Finish	 I (A) < 	Max Time(s)
SAMPLETIME	QUANT	1.00000E-002	Sa&mple Period (s)
CHARGESTOPAT1	MULTIPARAM	4	1.00000E+000	Charge Stop At &1	Voltage > Limit	V
CHARGESTOPAT2	MULTIPARAM	0	0.00000E+000	Charge Stop At &2	None	N/A
AESBHCSELECTOR	TOGGLE	F	Save Both Half Cells
IRCOMP	TOGGLE	F	IR &Measure
EOC	QUANT	0	Open Circuit (V)
SEQUENCER	TOGGLE	TRUE	Run as Sequence
PSTATMODEL	IQUANT	53	Pstat Model
PSTATSECTION	LABEL	IFC5000-01520	Pstat Section
PSTATSERIALNO	LABEL	01520	Pstat Serial Number
CTRLMODE	IQUANT	0	Control Mode
ELECTROMETER	IQUANT	1	RE=0 or CS=1
IESTAB	IQUANT	0	I/E Stability
CASPEED	IQUANT	4	Control Amp Speed
CONVENTION	IQUANT	1	Current Convention
ICHRANGE	IQUANT	2	Ich Range
ICHRANGEMODE	TOGGLE	T	Ich Auto Range
ICHOFFSETENABLE	TOGGLE	F	Ich Offset Enable
ICHOFFSET	QUANT	0	Ich Offset (V)
ICHFILTER	IQUANT	1	Ich Filter
VCHRANGE	IQUANT	2	Vch Range
VCHRANGEMODE	TOGGLE	T	Vch Auto Range
VCHOFFSETENABLE	TOGGLE	F	Vch Offset Enable
VCHOFFSET	QUANT	0	Vch Offset (V)
VCHFILTER	IQUANT	1	Vch Filter
IERANGELOWERLIMIT	IQUANT	9	I/E Range Lower Limit
IERANGEMODE	TOGGLE	F	I/E AutoRange
IERANGE	IQUANT	9	I/E Range
ACHSELECT	IQUANT	1	Ach Select
ACHRANGE	IQUANT	2	Ach Range
ACHOFFSETENABLE	TOGGLE	F	Ach Offset Enable
ACHOFFSET	QUANT	0	Ach Offset (V)
ACHFILTER	IQUANT	1	Ach Filter
CABLEID	IQUANT	14	Cable ID
DCCALDATE	LABEL	5-7-2017	DC Calibration Date
ACCALDATE	LABEL	12/3/2015	AC Calibration Date
FRAMEWORKVERSION	QUANT	7.01	Framework Version
INSTRUMENTVERSION	LABEL	4.00	Instrument Version
CURVE	TABLE	42
	Pt	T	Vf	Im	Vu	Pwr	Sig	Ach	Temp	IERange	Over
	#	s	V	A	V	W	V	V	deg C	#	bits
	0	0.013333	5.50676E-001	8.00857E-004	0.00000E+000	4.41013E-004	4.80080E-001	5.50834E-001	3.57420E+000	9	...........
	1	0.026667	5.92584E-001	8.00471E-004	0.00000E+000	4.74346E-004	4.80080E-001	5.92787E-001	3.57420E+000	9	...........
	2	0.04	6.26873E-001	8.00857E-004	0.00000E+000	5.02035E-004	4.80080E-001	6.27041E-001	3.57420E+000	9	...........
	3	0.053333	6.55836E-001	8.00911E-004	0.00000E+000	5.25266E-004	4.80080E-001	6.56034E-001	3.57420E+000	9	...........
	4	0.066667	6.80958E-001	8.00991E-004	0.00000E+000	5.45441E-004	4.80080E-001	6.81129E-001	3.57420E+000	9	...........
	5	0.08	7.03099E-001	8.00921E-004	0.00000E+000	5.63127E-004	4.80080E-001	7.03295E-001	3.57420E+000	9	...........
	6	0.093333	7.23005E-001	8.00685E-004	0.00000E+000	5.78899E-004	4.80080E-001	7.23203E-001	3.57420E+000	9	...........
	7	0.106667	7.40980E-001	8.00924E-004	0.00000E+000	5.93469E-004	4.80080E-001	7.41174E-001	3.57420E+000	9	...........
	8	0.12	7.57408E-001	8.00954E-004	0.00000E+000	6.06649E-004	4.80080E-001	7.57622E-001	3.57420E+000	9	...........
	9	0.133333	7.72516E-001	8.01257E-004	0.00000E+000	6.18983E-004	4.80080E-001	7.72722E-001	3.57420E+000	9	...........
	10	0.146667	7.86512E-001	8.01066E-004	0.00000E+000	6.30048E-004	4.80080E-001	7.86736E-001	3.57420E+000	9	...........
	11	0.16	7.99561E-001	8.01010E-004	0.00000E+000	6.40456E-004	4.80080E-001	7.99791E-001	3.57420E+000	9	...........
	12	0.173333	8.11715E-001	8.01013E-004	0.00000E+000	6.50194E-004	4.80080E-001	8.11972E-001	3.57420E+000	9	...........
	13	0.186667	8.23174E-001	8.01211E-004	0.00000E+000	6.59536E-004	4.80080E-001	8.23425E-001	3.57420E+000	9	...........
	14	0.2	8.33915E-001	8.01157E-004	0.00000E+000	6.68096E-004	4.80080E-001	8.34175E-001	3.57420E+000	9	...........
	15	0.213333	8.44087E-001	8.00898E-004	0.00000E+000	6.76028E-004	4.80080E-001	8.44356E-001	3.57420E+000	9	...........
	16	0.226667	8.53731E-001	8.01282E-004	0.00000E+000	6.84079E-004	4.80080E-001	8.53983E-001	3.57420E+000	9	...........
	17	0.24	8.62835E-001	8.00726E-004	0.00000E+000	6.90895E-004	4.80080E-001	8.63103E-001	3.57420E+000	9	...........
	18	0.253333	8.71521E-001	8.01136E-004	0.00000E+000	6.98207E-004	4.80080E-001	8.71814E-001	3.57420E+000	9	...........
	19	0.266667	8.79823E-001	8.00725E-004	0.00000E+000	7.04496E-004	4.80080E-001	8.80103E-001	3.57420E+000	9	...........
	20	0.28	8.87742E-001	8.00976E-004	0.00000E+000	7.11060E-004	4.80080E-001	8.87988E-001	3.57420E+000	9	...........
	21	0.293333	8.95327E-001	8.00916E-004	0.00000E+000	7.17082E-004	4.80080E-001	8.95597E-001	3.57420E+000	9	...........
	22	0.306667	9.02585E-001	8.00883E-004	0.00000E+000	7.22865E-004	4.80080E-001	9.02862E-001	3.57420E+000	9	...........
	23	0.32	9.09594E-001	8.01020E-004	0.00000E+000	7.28603E-004	4.80080E-001	9.09858E-001	3.57420E+000	9	...........
	24	0.333333	9.16304E-001	8.00842E-004	0.00000E+000	7.33815E-004	4.80080E-001	9.16595E-001	3.57420E+000	9	...........
	25	0.346667	9.22888E-001	8.00900E-004	0.00000E+000	7.39141E-004	4.80080E-001	9.23113E-001	3.57420E+000	9	...........
	26	0.36	9.29071E-001	8.01086E-004	0.00000E+000	7.44266E-004	4.80080E-001	9.29336E-001	3.57420E+000	9	...........
	27	0.373333	9.35068E-001	8.00635E-004	0.00000E+000	7.48648E-004	4.80080E-001	9.35350E-001	3.57420E+000	9	...........
	28	0.386667	9.40893E-001	8.00852E-004	0.00000E+000	7.53516E-004	4.80080E-001	9.41168E-001	3.57420E+000	9	...........
	29	0.4	9.46530E-001	8.01176E-004	0.00000E+000	7.58337E-004	4.80080E-001	9.46795E-001	3.57430E+000	9	...........
	30	0.413333	9.51986E-001	8.01045E-004	0.00000E+000	7.62584E-004	4.80080E-001	9.52236E-001	3.57430E+000	9	...........
	31	0.426667	9.57224E-001	8.00801E-004	0.00000E+000	7.66546E-004	4.80080E-001	9.57480E-001	3.57430E+000	9	...........
	32	0.44	9.62313E-001	8.01189E-004	0.00000E+000	7.70995E-004	4.80080E-001	9.62605E-001	3.57430E+000	9	...........
	33	0.453333	9.67218E-001	8.01081E-004	0.00000E+000	7.74819E-004	4.80080E-001	9.67489E-001	3.57430E+000	9	...........
	34	0.466667	9.72031E-001	8.00944E-004	0.00000E+000	7.78542E-004	4.80080E-001	9.72303E-001	3.57430E+000	9	...........
	35	0.48	9.76669E-001	8.01121E-004	0.00000E+000	7.82430E-004	4.80080E-001	9.76906E-001	3.57430E+000	9	...........
	36	0.493333	9.81103E-001	8.00892E-004	0.00000E+000	7.85757E-004	4.80080E-001	9.81353E-001	3.57430E+000	9	...........
	37	0.506667	9.85436E-001	8.00969E-004	0.00000E+000	7.89304E-004	4.80080E-001	9.85704E-001	3.57430E+000	9	...........
	38	0.52	9.89661E-001	8.00862E-004	0.00000E+000	7.92582E-004	4.80080E-001	9.89927E-001	3.57430E+000	9	...........
	39	0.533333	9.93766E-001	8.00956E-004	0.00000E+000	7.95963E-004	4.80080E-001	9.94027E-001	3.57430E+000	9	...........
	40	0.546667	9.97783E-001	8.00859E-004	0.00000E+000	7.99083E-004	4.80080E-001	9.98017E-001	3.57430E+000	9	...........
	41	0.55	1.00020E+000	8.01057E-004	0.00000E+000	8.01214E-004	4.80080E-001	1.00047E+000	3.57430E+000	9	...........
STARTTIMEOFFSET	QUANT	96.7933	Start Time Offset (s)
