EXPLAIN
TAG	PWR800_CHARGE
TITLE	LABEL	PWR Cyclic Charge Discharge (Cell) - Charge Step	Test &Identifier
DATE	LABEL	11-7-2017	Date
TIME	LABEL	13:52:21	Time
NOTES	NOTES	3	&Notes...
	supercap test cell
	0.8mg
	6M KOH
PSTAT	PSTAT	IFC5000-01520	Potentiostat
CAPACITY	QUANT	1.00000E-003	Capacity (A-hr)
CELLTYPE	SELECTOR	1	&Cell Type
WORKINGCONNECTION	SELECTOR	0	&Working Lead
MAXCHARGETIME	VARIABLEANDUNITS	1.00000E+002	s	1.00000E+002	second(s)	Max &Charge Time
CHARGECURRENT	QUANT	8.00000E-004	&Charge Current (A) 
VOLTAGEFINISH	TWOPARAM	F	1.00000E-003	3.60000E+003	&Voltage Finish	 I (A) < 	Max Time(s)
SAMPLETIME	QUANT	1.00000E-002	Sa&mple Period (s)
CHARGESTOPAT1	MULTIPARAM	4	1.00000E+000	Charge Stop At &1	Voltage > Limit	V
CHARGESTOPAT2	MULTIPARAM	0	0.00000E+000	Charge Stop At &2	None	N/A
AESBHCSELECTOR	TOGGLE	F	Save Both Half Cells
IRCOMP	TOGGLE	F	IR &Measure
EOC	QUANT	0	Open Circuit (V)
SEQUENCER	TOGGLE	TRUE	Run as Sequence
PSTATMODEL	IQUANT	53	Pstat Model
PSTATSECTION	LABEL	IFC5000-01520	Pstat Section
PSTATSERIALNO	LABEL	01520	Pstat Serial Number
CTRLMODE	IQUANT	0	Control Mode
ELECTROMETER	IQUANT	1	RE=0 or CS=1
IESTAB	IQUANT	0	I/E Stability
CASPEED	IQUANT	4	Control Amp Speed
CONVENTION	IQUANT	1	Current Convention
ICHRANGE	IQUANT	2	Ich Range
ICHRANGEMODE	TOGGLE	T	Ich Auto Range
ICHOFFSETENABLE	TOGGLE	F	Ich Offset Enable
ICHOFFSET	QUANT	0	Ich Offset (V)
ICHFILTER	IQUANT	1	Ich Filter
VCHRANGE	IQUANT	2	Vch Range
VCHRANGEMODE	TOGGLE	T	Vch Auto Range
VCHOFFSETENABLE	TOGGLE	F	Vch Offset Enable
VCHOFFSET	QUANT	0	Vch Offset (V)
VCHFILTER	IQUANT	1	Vch Filter
IERANGELOWERLIMIT	IQUANT	9	I/E Range Lower Limit
IERANGEMODE	TOGGLE	F	I/E AutoRange
IERANGE	IQUANT	9	I/E Range
ACHSELECT	IQUANT	1	Ach Select
ACHRANGE	IQUANT	2	Ach Range
ACHOFFSETENABLE	TOGGLE	F	Ach Offset Enable
ACHOFFSET	QUANT	0	Ach Offset (V)
ACHFILTER	IQUANT	1	Ach Filter
CABLEID	IQUANT	14	Cable ID
DCCALDATE	LABEL	5-7-2017	DC Calibration Date
ACCALDATE	LABEL	12/3/2015	AC Calibration Date
FRAMEWORKVERSION	QUANT	7.01	Framework Version
INSTRUMENTVERSION	LABEL	4.00	Instrument Version
CURVE	TABLE	41
	Pt	T	Vf	Im	Vu	Pwr	Sig	Ach	Temp	IERange	Over
	#	s	V	A	V	W	V	V	deg C	#	bits
	0	0.013333	5.51673E-001	8.00875E-004	0.00000E+000	4.41821E-004	4.80080E-001	5.51837E-001	3.57550E+000	9	...........
	1	0.026667	5.93812E-001	8.00873E-004	0.00000E+000	4.75568E-004	4.80080E-001	5.94001E-001	3.57550E+000	9	...........
	2	0.04	6.28295E-001	8.01033E-004	0.00000E+000	5.03285E-004	4.80080E-001	6.28457E-001	3.57550E+000	9	...........
	3	0.053333	6.57433E-001	8.00695E-004	0.00000E+000	5.26403E-004	4.80080E-001	6.57619E-001	3.57550E+000	9	...........
	4	0.066667	6.82700E-001	8.00862E-004	0.00000E+000	5.46748E-004	4.80080E-001	6.82883E-001	3.57550E+000	9	...........
	5	0.08	7.05023E-001	8.01213E-004	0.00000E+000	5.64874E-004	4.80080E-001	7.05191E-001	3.57550E+000	9	...........
	6	0.093333	7.25033E-001	8.00815E-004	0.00000E+000	5.80617E-004	4.80080E-001	7.25226E-001	3.57550E+000	9	...........
	7	0.106667	7.43111E-001	8.01087E-004	0.00000E+000	5.95296E-004	4.80080E-001	7.43300E-001	3.57550E+000	9	...........
	8	0.12	7.59670E-001	8.00793E-004	0.00000E+000	6.08338E-004	4.80080E-001	7.59830E-001	3.57550E+000	9	...........
	9	0.133333	7.74887E-001	8.00818E-004	0.00000E+000	6.20543E-004	4.80080E-001	7.75071E-001	3.57550E+000	9	...........
	10	0.146667	7.88999E-001	8.01155E-004	0.00000E+000	6.32110E-004	4.80080E-001	7.89191E-001	3.57550E+000	9	...........
	11	0.16	8.02143E-001	8.00942E-004	0.00000E+000	6.42470E-004	4.80080E-001	8.02307E-001	3.57550E+000	9	...........
	12	0.173333	8.14307E-001	8.01171E-004	0.00000E+000	6.52400E-004	4.80080E-001	8.14521E-001	3.57550E+000	9	...........
	13	0.186667	8.25785E-001	8.00908E-004	0.00000E+000	6.61378E-004	4.80080E-001	8.25981E-001	3.57550E+000	9	...........
	14	0.2	8.36558E-001	8.01250E-004	0.00000E+000	6.70293E-004	4.80080E-001	8.36758E-001	3.57418E+000	9	...........
	15	0.213333	8.46763E-001	8.01027E-004	0.00000E+000	6.78280E-004	4.80080E-001	8.46987E-001	3.57410E+000	9	...........
	16	0.226667	8.56425E-001	8.01043E-004	0.00000E+000	6.86034E-004	4.80080E-001	8.56646E-001	3.57410E+000	9	...........
	17	0.24	8.65583E-001	8.01159E-004	0.00000E+000	6.93469E-004	4.80080E-001	8.65822E-001	3.57410E+000	9	...........
	18	0.253333	8.74343E-001	8.00791E-004	0.00000E+000	7.00166E-004	4.80080E-001	8.74579E-001	3.57410E+000	9	...........
	19	0.266667	8.82656E-001	8.01009E-004	0.00000E+000	7.07015E-004	4.80080E-001	8.82902E-001	3.57410E+000	9	...........
	20	0.28	8.90614E-001	8.01100E-004	0.00000E+000	7.13471E-004	4.80080E-001	8.90836E-001	3.57410E+000	9	...........
	21	0.293333	8.98216E-001	8.00963E-004	0.00000E+000	7.19437E-004	4.80080E-001	8.98470E-001	3.57410E+000	9	...........
	22	0.306667	9.05524E-001	8.01042E-004	0.00000E+000	7.25362E-004	4.80080E-001	9.05783E-001	3.57410E+000	9	...........
	23	0.32	9.12524E-001	8.00796E-004	0.00000E+000	7.30745E-004	4.80080E-001	9.12795E-001	3.57410E+000	9	...........
	24	0.333333	9.19281E-001	8.00915E-004	0.00000E+000	7.36266E-004	4.80080E-001	9.19538E-001	3.57410E+000	9	...........
	25	0.346667	9.25837E-001	8.00968E-004	0.00000E+000	7.41566E-004	4.80080E-001	9.26025E-001	3.57410E+000	9	...........
	26	0.36	9.32078E-001	8.01020E-004	0.00000E+000	7.46614E-004	4.80080E-001	9.32304E-001	3.57410E+000	9	...........
	27	0.373333	9.38083E-001	8.00734E-004	0.00000E+000	7.51155E-004	4.80080E-001	9.38319E-001	3.57410E+000	9	...........
	28	0.386667	9.43856E-001	8.00966E-004	0.00000E+000	7.55997E-004	4.80080E-001	9.44105E-001	3.57410E+000	9	...........
	29	0.4	9.49507E-001	8.00875E-004	0.00000E+000	7.60437E-004	4.80080E-001	9.49750E-001	3.57410E+000	9	...........
	30	0.413333	9.54929E-001	8.00851E-004	0.00000E+000	7.64756E-004	4.80080E-001	9.55150E-001	3.57410E+000	9	...........
	31	0.426667	9.60131E-001	8.00825E-004	0.00000E+000	7.68897E-004	4.80080E-001	9.60384E-001	3.57410E+000	9	...........
	32	0.44	9.65222E-001	8.00863E-004	0.00000E+000	7.73010E-004	4.80080E-001	9.65478E-001	3.57410E+000	9	...........
	33	0.453333	9.70140E-001	8.00844E-004	0.00000E+000	7.76931E-004	4.80080E-001	9.70415E-001	3.57410E+000	9	...........
	34	0.466667	9.74984E-001	8.00895E-004	0.00000E+000	7.80860E-004	4.80080E-001	9.75231E-001	3.57410E+000	9	...........
	35	0.48	9.79545E-001	8.01070E-004	0.00000E+000	7.84684E-004	4.80080E-001	9.79819E-001	3.57410E+000	9	...........
	36	0.493333	9.84023E-001	8.01088E-004	0.00000E+000	7.88289E-004	4.80080E-001	9.84285E-001	3.57410E+000	9	...........
	37	0.506667	9.88308E-001	8.00752E-004	0.00000E+000	7.91390E-004	4.80080E-001	9.88586E-001	3.57410E+000	9	...........
	38	0.52	9.92522E-001	8.00970E-004	0.00000E+000	7.94981E-004	4.80080E-001	9.92784E-001	3.57410E+000	9	...........
	39	0.533333	9.96620E-001	8.01195E-004	0.00000E+000	7.98487E-004	4.80080E-001	9.96872E-001	3.57410E+000	9	...........
	40	0.54	9.99618E-001	8.01248E-004	0.00000E+000	8.00943E-004	4.80080E-001	9.99900E-001	3.57410E+000	9	...........
STARTTIMEOFFSET	QUANT	109.7667	Start Time Offset (s)
