EXPLAIN
TAG	PWR800_CHARGE
TITLE	LABEL	PWR Cyclic Charge Discharge (Cell) - Charge Step	Test &Identifier
DATE	LABEL	11-7-2017	Date
TIME	LABEL	13:51:27	Time
NOTES	NOTES	3	&Notes...
	supercap test cell
	0.8mg
	6M KOH
PSTAT	PSTAT	IFC5000-01520	Potentiostat
CAPACITY	QUANT	1.00000E-003	Capacity (A-hr)
CELLTYPE	SELECTOR	1	&Cell Type
WORKINGCONNECTION	SELECTOR	0	&Working Lead
MAXCHARGETIME	VARIABLEANDUNITS	1.00000E+002	s	1.00000E+002	second(s)	Max &Charge Time
CHARGECURRENT	QUANT	8.00000E-004	&Charge Current (A) 
VOLTAGEFINISH	TWOPARAM	F	1.00000E-003	3.60000E+003	&Voltage Finish	 I (A) < 	Max Time(s)
SAMPLETIME	QUANT	1.00000E-002	Sa&mple Period (s)
CHARGESTOPAT1	MULTIPARAM	4	1.00000E+000	Charge Stop At &1	Voltage > Limit	V
CHARGESTOPAT2	MULTIPARAM	0	0.00000E+000	Charge Stop At &2	None	N/A
AESBHCSELECTOR	TOGGLE	F	Save Both Half Cells
IRCOMP	TOGGLE	F	IR &Measure
EOC	QUANT	0	Open Circuit (V)
SEQUENCER	TOGGLE	TRUE	Run as Sequence
PSTATMODEL	IQUANT	53	Pstat Model
PSTATSECTION	LABEL	IFC5000-01520	Pstat Section
PSTATSERIALNO	LABEL	01520	Pstat Serial Number
CTRLMODE	IQUANT	0	Control Mode
ELECTROMETER	IQUANT	1	RE=0 or CS=1
IESTAB	IQUANT	0	I/E Stability
CASPEED	IQUANT	4	Control Amp Speed
CONVENTION	IQUANT	1	Current Convention
ICHRANGE	IQUANT	2	Ich Range
ICHRANGEMODE	TOGGLE	T	Ich Auto Range
ICHOFFSETENABLE	TOGGLE	F	Ich Offset Enable
ICHOFFSET	QUANT	0	Ich Offset (V)
ICHFILTER	IQUANT	1	Ich Filter
VCHRANGE	IQUANT	2	Vch Range
VCHRANGEMODE	TOGGLE	T	Vch Auto Range
VCHOFFSETENABLE	TOGGLE	F	Vch Offset Enable
VCHOFFSET	QUANT	0	Vch Offset (V)
VCHFILTER	IQUANT	1	Vch Filter
IERANGELOWERLIMIT	IQUANT	9	I/E Range Lower Limit
IERANGEMODE	TOGGLE	F	I/E AutoRange
IERANGE	IQUANT	9	I/E Range
ACHSELECT	IQUANT	1	Ach Select
ACHRANGE	IQUANT	2	Ach Range
ACHOFFSETENABLE	TOGGLE	F	Ach Offset Enable
ACHOFFSET	QUANT	0	Ach Offset (V)
ACHFILTER	IQUANT	1	Ach Filter
CABLEID	IQUANT	14	Cable ID
DCCALDATE	LABEL	5-7-2017	DC Calibration Date
ACCALDATE	LABEL	12/3/2015	AC Calibration Date
FRAMEWORKVERSION	QUANT	7.01	Framework Version
INSTRUMENTVERSION	LABEL	4.00	Instrument Version
CURVE	TABLE	43
	Pt	T	Vf	Im	Vu	Pwr	Sig	Ach	Temp	IERange	Over
	#	s	V	A	V	W	V	V	deg C	#	bits
	0	0.013333	5.50914E-001	8.00851E-004	0.00000E+000	4.41200E-004	4.80080E-001	5.51085E-001	3.57400E+000	9	...........
	1	0.026667	5.92518E-001	8.01054E-004	0.00000E+000	4.74639E-004	4.80080E-001	5.92711E-001	3.57400E+000	9	...........
	2	0.04	6.26494E-001	8.00774E-004	0.00000E+000	5.01680E-004	4.80080E-001	6.26671E-001	3.57400E+000	9	...........
	3	0.053333	6.55187E-001	8.01059E-004	0.00000E+000	5.24844E-004	4.80080E-001	6.55363E-001	3.57400E+000	9	...........
	4	0.066667	6.80058E-001	8.00881E-004	0.00000E+000	5.44645E-004	4.80080E-001	6.80235E-001	3.57400E+000	9	...........
	5	0.08	7.02018E-001	8.00849E-004	0.00000E+000	5.62211E-004	4.80080E-001	7.02194E-001	3.57400E+000	9	...........
	6	0.093333	7.21702E-001	8.01020E-004	0.00000E+000	5.78098E-004	4.80080E-001	7.21905E-001	3.57400E+000	9	...........
	7	0.106667	7.39526E-001	8.01012E-004	0.00000E+000	5.92369E-004	4.80080E-001	7.39699E-001	3.57400E+000	9	...........
	8	0.12	7.55777E-001	8.01047E-004	0.00000E+000	6.05413E-004	4.80080E-001	7.55951E-001	3.57400E+000	9	...........
	9	0.133333	7.70738E-001	8.00948E-004	0.00000E+000	6.17321E-004	4.80080E-001	7.70925E-001	3.57400E+000	9	...........
	10	0.146667	7.84568E-001	8.01016E-004	0.00000E+000	6.28451E-004	4.80080E-001	7.84747E-001	3.57400E+000	9	...........
	11	0.16	7.97480E-001	8.00903E-004	0.00000E+000	6.38704E-004	4.80080E-001	7.97631E-001	3.57400E+000	9	...........
	12	0.173333	8.09473E-001	8.00982E-004	0.00000E+000	6.48373E-004	4.80080E-001	8.09695E-001	3.57400E+000	9	...........
	13	0.186667	8.20816E-001	8.00749E-004	0.00000E+000	6.57268E-004	4.80080E-001	8.21011E-001	3.57400E+000	9	...........
	14	0.2	8.31445E-001	8.01313E-004	0.00000E+000	6.66248E-004	4.80080E-001	8.31651E-001	3.57400E+000	9	...........
	15	0.213333	8.41482E-001	8.00916E-004	0.00000E+000	6.73957E-004	4.80080E-001	8.41706E-001	3.57400E+000	9	...........
	16	0.226667	8.51042E-001	8.01029E-004	0.00000E+000	6.81710E-004	4.80080E-001	8.51259E-001	3.57400E+000	9	...........
	17	0.24	8.60108E-001	8.00880E-004	0.00000E+000	6.88844E-004	4.80080E-001	8.60346E-001	3.57400E+000	9	...........
	18	0.253333	8.68753E-001	8.00921E-004	0.00000E+000	6.95802E-004	4.80080E-001	8.69008E-001	3.57400E+000	9	...........
	19	0.266667	8.77027E-001	8.00995E-004	0.00000E+000	7.02494E-004	4.80080E-001	8.77248E-001	3.57400E+000	9	...........
	20	0.28	8.84897E-001	8.01244E-004	0.00000E+000	7.09019E-004	4.80080E-001	8.85169E-001	3.57400E+000	9	...........
	21	0.293333	8.92444E-001	8.00885E-004	0.00000E+000	7.14745E-004	4.80080E-001	8.92708E-001	3.57400E+000	9	...........
	22	0.306667	8.99649E-001	8.00735E-004	0.00000E+000	7.20380E-004	4.80080E-001	8.99922E-001	3.57430E+000	9	...........
	23	0.32	9.06588E-001	8.01304E-004	0.00000E+000	7.26452E-004	4.80080E-001	9.06860E-001	3.57430E+000	9	...........
	24	0.333333	9.13306E-001	8.01085E-004	0.00000E+000	7.31636E-004	4.80080E-001	9.13557E-001	3.57430E+000	9	...........
	25	0.346667	9.19750E-001	8.00762E-004	0.00000E+000	7.36501E-004	4.80080E-001	9.19990E-001	3.57430E+000	9	...........
	26	0.36	9.26000E-001	8.00869E-004	0.00000E+000	7.41605E-004	4.80080E-001	9.26195E-001	3.57430E+000	9	...........
	27	0.373333	9.31973E-001	8.01125E-004	0.00000E+000	7.46627E-004	4.80080E-001	9.32172E-001	3.57430E+000	9	...........
	28	0.386667	9.37741E-001	8.00991E-004	0.00000E+000	7.51122E-004	4.80080E-001	9.37965E-001	3.57430E+000	9	...........
	29	0.4	9.43291E-001	8.01160E-004	0.00000E+000	7.55727E-004	4.80080E-001	9.43503E-001	3.57430E+000	9	...........
	30	0.413333	9.48722E-001	8.00819E-004	0.00000E+000	7.59755E-004	4.80080E-001	9.48929E-001	3.57430E+000	9	...........
	31	0.426667	9.53927E-001	8.01231E-004	0.00000E+000	7.64315E-004	4.80080E-001	9.54161E-001	3.57430E+000	9	...........
	32	0.44	9.58992E-001	8.00973E-004	0.00000E+000	7.68127E-004	4.80080E-001	9.59218E-001	3.57430E+000	9	...........
	33	0.453333	9.63879E-001	8.00618E-004	0.00000E+000	7.71699E-004	4.80080E-001	9.64140E-001	3.57430E+000	9	...........
	34	0.466667	9.68619E-001	8.00966E-004	0.00000E+000	7.75831E-004	4.80080E-001	9.68880E-001	3.57430E+000	9	...........
	35	0.48	9.73266E-001	8.01121E-004	0.00000E+000	7.79704E-004	4.80080E-001	9.73521E-001	3.57430E+000	9	...........
	36	0.493333	9.77715E-001	8.01231E-004	0.00000E+000	7.83375E-004	4.80080E-001	9.77989E-001	3.57430E+000	9	...........
	37	0.506667	9.82054E-001	8.01003E-004	0.00000E+000	7.86629E-004	4.80080E-001	9.82310E-001	3.57430E+000	9	...........
	38	0.52	9.86266E-001	8.01359E-004	0.00000E+000	7.90353E-004	4.80080E-001	9.86544E-001	3.57430E+000	9	...........
	39	0.533333	9.90347E-001	8.01107E-004	0.00000E+000	7.93374E-004	4.80080E-001	9.90604E-001	3.57430E+000	9	...........
	40	0.546667	9.94276E-001	8.00811E-004	0.00000E+000	7.96227E-004	4.80080E-001	9.94540E-001	3.57430E+000	9	...........
	41	0.56	9.98153E-001	8.01342E-004	0.00000E+000	7.99862E-004	4.80080E-001	9.98422E-001	3.57430E+000	9	...........
	42	0.561667	1.00029E+000	8.01578E-004	0.00000E+000	8.01807E-004	4.80080E-001	1.00053E+000	3.57430E+000	9	...........
STARTTIMEOFFSET	QUANT	80.81498	Start Time Offset (s)
