EXPLAIN
TAG	PWR800_CHARGE
TITLE	LABEL	PWR Cyclic Charge Discharge (Cell) - Charge Step	Test &Identifier
DATE	LABEL	11-7-2017	Date
TIME	LABEL	13:52:00	Time
NOTES	NOTES	3	&Notes...
	supercap test cell
	0.8mg
	6M KOH
PSTAT	PSTAT	IFC5000-01520	Potentiostat
CAPACITY	QUANT	1.00000E-003	Capacity (A-hr)
CELLTYPE	SELECTOR	1	&Cell Type
WORKINGCONNECTION	SELECTOR	0	&Working Lead
MAXCHARGETIME	VARIABLEANDUNITS	1.00000E+002	s	1.00000E+002	second(s)	Max &Charge Time
CHARGECURRENT	QUANT	8.00000E-004	&Charge Current (A) 
VOLTAGEFINISH	TWOPARAM	F	1.00000E-003	3.60000E+003	&Voltage Finish	 I (A) < 	Max Time(s)
SAMPLETIME	QUANT	1.00000E-002	Sa&mple Period (s)
CHARGESTOPAT1	MULTIPARAM	4	1.00000E+000	Charge Stop At &1	Voltage > Limit	V
CHARGESTOPAT2	MULTIPARAM	0	0.00000E+000	Charge Stop At &2	None	N/A
AESBHCSELECTOR	TOGGLE	F	Save Both Half Cells
IRCOMP	TOGGLE	F	IR &Measure
EOC	QUANT	0	Open Circuit (V)
SEQUENCER	TOGGLE	TRUE	Run as Sequence
PSTATMODEL	IQUANT	53	Pstat Model
PSTATSECTION	LABEL	IFC5000-01520	Pstat Section
PSTATSERIALNO	LABEL	01520	Pstat Serial Number
CTRLMODE	IQUANT	0	Control Mode
ELECTROMETER	IQUANT	1	RE=0 or CS=1
IESTAB	IQUANT	0	I/E Stability
CASPEED	IQUANT	4	Control Amp Speed
CONVENTION	IQUANT	1	Current Convention
ICHRANGE	IQUANT	2	Ich Range
ICHRANGEMODE	TOGGLE	T	Ich Auto Range
ICHOFFSETENABLE	TOGGLE	F	Ich Offset Enable
ICHOFFSET	QUANT	0	Ich Offset (V)
ICHFILTER	IQUANT	1	Ich Filter
VCHRANGE	IQUANT	2	Vch Range
VCHRANGEMODE	TOGGLE	T	Vch Auto Range
VCHOFFSETENABLE	TOGGLE	F	Vch Offset Enable
VCHOFFSET	QUANT	0	Vch Offset (V)
VCHFILTER	IQUANT	1	Vch Filter
IERANGELOWERLIMIT	IQUANT	9	I/E Range Lower Limit
IERANGEMODE	TOGGLE	F	I/E AutoRange
IERANGE	IQUANT	9	I/E Range
ACHSELECT	IQUANT	1	Ach Select
ACHRANGE	IQUANT	2	Ach Range
ACHOFFSETENABLE	TOGGLE	F	Ach Offset Enable
ACHOFFSET	QUANT	0	Ach Offset (V)
ACHFILTER	IQUANT	1	Ach Filter
CABLEID	IQUANT	14	Cable ID
DCCALDATE	LABEL	5-7-2017	DC Calibration Date
ACCALDATE	LABEL	12/3/2015	AC Calibration Date
FRAMEWORKVERSION	QUANT	7.01	Framework Version
INSTRUMENTVERSION	LABEL	4.00	Instrument Version
CURVE	TABLE	42
	Pt	T	Vf	Im	Vu	Pwr	Sig	Ach	Temp	IERange	Over
	#	s	V	A	V	W	V	V	deg C	#	bits
	0	0.013333	5.49516E-001	8.00670E-004	0.00000E+000	4.39981E-004	4.80080E-001	5.49651E-001	3.57540E+000	9	...........
	1	0.026667	5.91573E-001	8.00701E-004	0.00000E+000	4.73673E-004	4.80080E-001	5.91762E-001	3.57540E+000	9	...........
	2	0.04	6.25977E-001	8.00757E-004	0.00000E+000	5.01255E-004	4.80080E-001	6.26153E-001	3.57540E+000	9	...........
	3	0.053333	6.55049E-001	8.00870E-004	0.00000E+000	5.24609E-004	4.80080E-001	6.55199E-001	3.57540E+000	9	...........
	4	0.066667	6.80280E-001	8.00867E-004	0.00000E+000	5.44814E-004	4.80080E-001	6.80444E-001	3.57540E+000	9	...........
	5	0.08	7.02516E-001	8.00802E-004	0.00000E+000	5.62577E-004	4.80080E-001	7.02712E-001	3.57540E+000	9	...........
	6	0.093333	7.22425E-001	8.00861E-004	0.00000E+000	5.78562E-004	4.80080E-001	7.22626E-001	3.57540E+000	9	...........
	7	0.106667	7.40499E-001	8.01135E-004	0.00000E+000	5.93239E-004	4.80080E-001	7.40680E-001	3.57540E+000	9	...........
	8	0.12	7.57031E-001	8.00579E-004	0.00000E+000	6.06064E-004	4.80080E-001	7.57191E-001	3.57540E+000	9	...........
	9	0.133333	7.72201E-001	8.00828E-004	0.00000E+000	6.18400E-004	4.80080E-001	7.72399E-001	3.57540E+000	9	...........
	10	0.146667	7.86243E-001	8.00817E-004	0.00000E+000	6.29637E-004	4.80080E-001	7.86427E-001	3.57540E+000	9	...........
	11	0.16	7.99336E-001	8.00988E-004	0.00000E+000	6.40258E-004	4.80080E-001	7.99510E-001	3.57540E+000	9	...........
	12	0.173333	8.11494E-001	8.01282E-004	0.00000E+000	6.50235E-004	4.80080E-001	8.11701E-001	3.57540E+000	9	...........
	13	0.186667	8.22939E-001	8.00766E-004	0.00000E+000	6.58982E-004	4.80080E-001	8.23135E-001	3.57540E+000	9	...........
	14	0.2	8.33720E-001	8.00662E-004	0.00000E+000	6.67527E-004	4.80080E-001	8.33946E-001	3.57540E+000	9	...........
	15	0.213333	8.43917E-001	8.01129E-004	0.00000E+000	6.76087E-004	4.80080E-001	8.44127E-001	3.57540E+000	9	...........
	16	0.226667	8.53562E-001	8.00834E-004	0.00000E+000	6.83561E-004	4.80080E-001	8.53816E-001	3.57540E+000	9	...........
	17	0.24	8.62704E-001	8.01285E-004	0.00000E+000	6.91272E-004	4.80080E-001	8.62953E-001	3.57540E+000	9	...........
	18	0.253333	8.71431E-001	8.00886E-004	0.00000E+000	6.97917E-004	4.80080E-001	8.71676E-001	3.57540E+000	9	...........
	19	0.266667	8.79744E-001	8.01276E-004	0.00000E+000	7.04918E-004	4.80080E-001	8.79984E-001	3.57540E+000	9	...........
	20	0.28	8.87701E-001	8.00845E-004	0.00000E+000	7.10911E-004	4.80080E-001	8.87915E-001	3.57540E+000	9	...........
	21	0.293333	8.95266E-001	8.00819E-004	0.00000E+000	7.16946E-004	4.80080E-001	8.95498E-001	3.57540E+000	9	...........
	22	0.306667	9.02576E-001	8.00783E-004	0.00000E+000	7.22767E-004	4.80080E-001	9.02834E-001	3.57540E+000	9	...........
	23	0.32	9.09571E-001	8.00860E-004	0.00000E+000	7.28439E-004	4.80080E-001	9.09817E-001	3.57540E+000	9	...........
	24	0.333333	9.16288E-001	8.00889E-004	0.00000E+000	7.33845E-004	4.80080E-001	9.16533E-001	3.57540E+000	9	...........
	25	0.346667	9.22801E-001	8.00767E-004	0.00000E+000	7.38949E-004	4.80080E-001	9.23010E-001	3.57540E+000	9	...........
	26	0.36	9.29074E-001	8.01131E-004	0.00000E+000	7.44309E-004	4.80080E-001	9.29268E-001	3.57540E+000	9	...........
	27	0.373333	9.35076E-001	8.01045E-004	0.00000E+000	7.49038E-004	4.80080E-001	9.35300E-001	3.57540E+000	9	...........
	28	0.386667	9.40879E-001	8.00651E-004	0.00000E+000	7.53316E-004	4.80080E-001	9.41115E-001	3.57540E+000	9	...........
	29	0.4	9.46531E-001	8.01010E-004	0.00000E+000	7.58181E-004	4.80080E-001	9.46769E-001	3.57540E+000	9	...........
	30	0.413333	9.51987E-001	8.01052E-004	0.00000E+000	7.62592E-004	4.80080E-001	9.52231E-001	3.57540E+000	9	...........
	31	0.426667	9.57250E-001	8.00992E-004	0.00000E+000	7.66750E-004	4.80080E-001	9.57493E-001	3.57540E+000	9	...........
	32	0.44	9.62341E-001	8.00968E-004	0.00000E+000	7.70804E-004	4.80080E-001	9.62598E-001	3.57540E+000	9	...........
	33	0.453333	9.67263E-001	8.00968E-004	0.00000E+000	7.74747E-004	4.80080E-001	9.67543E-001	3.57540E+000	9	...........
	34	0.466667	9.72066E-001	8.01046E-004	0.00000E+000	7.78670E-004	4.80080E-001	9.72349E-001	3.57540E+000	9	...........
	35	0.48	9.76744E-001	8.00798E-004	0.00000E+000	7.82175E-004	4.80080E-001	9.76990E-001	3.57540E+000	9	...........
	36	0.493333	9.81214E-001	8.01032E-004	0.00000E+000	7.85983E-004	4.80080E-001	9.81469E-001	3.57540E+000	9	...........
	37	0.506667	9.85562E-001	8.01249E-004	0.00000E+000	7.89681E-004	4.80080E-001	9.85857E-001	3.57540E+000	9	...........
	38	0.52	9.89832E-001	8.00975E-004	0.00000E+000	7.92831E-004	4.80080E-001	9.90092E-001	3.57540E+000	9	...........
	39	0.533333	9.93934E-001	8.01095E-004	0.00000E+000	7.96236E-004	4.80080E-001	9.94191E-001	3.57540E+000	9	...........
	40	0.546667	9.97955E-001	8.01268E-004	0.00000E+000	7.99630E-004	4.80080E-001	9.98225E-001	3.57540E+000	9	...........
	41	0.548333	1.00020E+000	8.00736E-004	0.00000E+000	8.00893E-004	4.80080E-001	1.00041E+000	3.57540E+000	9	...........
STARTTIMEOFFSET	QUANT	98.6617	Start Time Offset (s)
