EXPLAIN
TAG	PWR800_CHARGE
TITLE	LABEL	PWR Cyclic Charge Discharge (Cell) - Charge Step	Test &Identifier
DATE	LABEL	11-7-2017	Date
TIME	LABEL	13:49:53	Time
NOTES	NOTES	3	&Notes...
	supercap test cell
	0.8mg
	6M KOH
PSTAT	PSTAT	IFC5000-01520	Potentiostat
CAPACITY	QUANT	1.00000E-003	Capacity (A-hr)
CELLTYPE	SELECTOR	1	&Cell Type
WORKINGCONNECTION	SELECTOR	0	&Working Lead
MAXCHARGETIME	VARIABLEANDUNITS	1.00000E+002	s	1.00000E+002	second(s)	Max &Charge Time
CHARGECURRENT	QUANT	8.00000E-004	&Charge Current (A) 
VOLTAGEFINISH	TWOPARAM	F	1.00000E-003	3.60000E+003	&Voltage Finish	 I (A) < 	Max Time(s)
SAMPLETIME	QUANT	1.00000E-002	Sa&mple Period (s)
CHARGESTOPAT1	MULTIPARAM	4	1.00000E+000	Charge Stop At &1	Voltage > Limit	V
CHARGESTOPAT2	MULTIPARAM	0	0.00000E+000	Charge Stop At &2	None	N/A
AESBHCSELECTOR	TOGGLE	F	Save Both Half Cells
IRCOMP	TOGGLE	F	IR &Measure
EOC	QUANT	0	Open Circuit (V)
SEQUENCER	TOGGLE	TRUE	Run as Sequence
PSTATMODEL	IQUANT	53	Pstat Model
PSTATSECTION	LABEL	IFC5000-01520	Pstat Section
PSTATSERIALNO	LABEL	01520	Pstat Serial Number
CTRLMODE	IQUANT	0	Control Mode
ELECTROMETER	IQUANT	1	RE=0 or CS=1
IESTAB	IQUANT	0	I/E Stability
CASPEED	IQUANT	4	Control Amp Speed
CONVENTION	IQUANT	1	Current Convention
ICHRANGE	IQUANT	2	Ich Range
ICHRANGEMODE	TOGGLE	T	Ich Auto Range
ICHOFFSETENABLE	TOGGLE	F	Ich Offset Enable
ICHOFFSET	QUANT	0	Ich Offset (V)
ICHFILTER	IQUANT	1	Ich Filter
VCHRANGE	IQUANT	2	Vch Range
VCHRANGEMODE	TOGGLE	T	Vch Auto Range
VCHOFFSETENABLE	TOGGLE	F	Vch Offset Enable
VCHOFFSET	QUANT	0	Vch Offset (V)
VCHFILTER	IQUANT	1	Vch Filter
IERANGELOWERLIMIT	IQUANT	9	I/E Range Lower Limit
IERANGEMODE	TOGGLE	F	I/E AutoRange
IERANGE	IQUANT	9	I/E Range
ACHSELECT	IQUANT	1	Ach Select
ACHRANGE	IQUANT	2	Ach Range
ACHOFFSETENABLE	TOGGLE	F	Ach Offset Enable
ACHOFFSET	QUANT	0	Ach Offset (V)
ACHFILTER	IQUANT	1	Ach Filter
CABLEID	IQUANT	14	Cable ID
DCCALDATE	LABEL	5-7-2017	DC Calibration Date
ACCALDATE	LABEL	12/3/2015	AC Calibration Date
FRAMEWORKVERSION	QUANT	7.01	Framework Version
INSTRUMENTVERSION	LABEL	4.00	Instrument Version
CURVE	TABLE	47
	Pt	T	Vf	Im	Vu	Pwr	Sig	Ach	Temp	IERange	Over
	#	s	V	A	V	W	V	V	deg C	#	bits
	0	0.013333	5.62564E-001	8.00687E-004	0.00000E+000	4.50438E-004	4.80080E-001	5.62687E-001	3.57370E+000	9	...........
	1	0.026667	6.02196E-001	8.00984E-004	0.00000E+000	4.82350E-004	4.80080E-001	6.02348E-001	3.57370E+000	9	...........
	2	0.04	6.34266E-001	8.00684E-004	0.00000E+000	5.07846E-004	4.80080E-001	6.34422E-001	3.57370E+000	9	...........
	3	0.053333	6.61242E-001	8.00806E-004	0.00000E+000	5.29526E-004	4.80080E-001	6.61374E-001	3.57370E+000	9	...........
	4	0.066667	6.84476E-001	8.01051E-004	0.00000E+000	5.48300E-004	4.80080E-001	6.84629E-001	3.57370E+000	9	...........
	5	0.08	7.04938E-001	8.00810E-004	0.00000E+000	5.64521E-004	4.80080E-001	7.05083E-001	3.57370E+000	9	...........
	6	0.093333	7.23226E-001	8.00956E-004	0.00000E+000	5.79272E-004	4.80080E-001	7.23354E-001	3.57370E+000	9	...........
	7	0.106667	7.39780E-001	8.01025E-004	0.00000E+000	5.92582E-004	4.80080E-001	7.39915E-001	3.57370E+000	9	...........
	8	0.12	7.54877E-001	8.01097E-004	0.00000E+000	6.04730E-004	4.80080E-001	7.55034E-001	3.57370E+000	9	...........
	9	0.133333	7.68746E-001	8.00870E-004	0.00000E+000	6.15665E-004	4.80080E-001	7.68919E-001	3.57370E+000	9	...........
	10	0.146667	7.81585E-001	8.00912E-004	0.00000E+000	6.25981E-004	4.80080E-001	7.81767E-001	3.57370E+000	9	...........
	11	0.16	7.93543E-001	8.00974E-004	0.00000E+000	6.35608E-004	4.80080E-001	7.93715E-001	3.57370E+000	9	...........
	12	0.173333	8.04710E-001	8.01308E-004	0.00000E+000	6.44820E-004	4.80080E-001	8.04871E-001	3.57370E+000	9	...........
	13	0.186667	8.15185E-001	8.00784E-004	0.00000E+000	6.52787E-004	4.80080E-001	8.15378E-001	3.57370E+000	9	...........
	14	0.2	8.25060E-001	8.01088E-004	0.00000E+000	6.60946E-004	4.80080E-001	8.25283E-001	3.57370E+000	9	...........
	15	0.213333	8.34400E-001	8.00619E-004	0.00000E+000	6.68036E-004	4.80080E-001	8.34655E-001	3.57370E+000	9	...........
	16	0.226667	8.43263E-001	8.01010E-004	0.00000E+000	6.75462E-004	4.80080E-001	8.43527E-001	3.57370E+000	9	...........
	17	0.24	8.51734E-001	8.01066E-004	0.00000E+000	6.82295E-004	4.80080E-001	8.51964E-001	3.57370E+000	9	...........
	18	0.253333	8.59778E-001	8.00774E-004	0.00000E+000	6.88488E-004	4.80080E-001	8.60021E-001	3.57370E+000	9	...........
	19	0.266667	8.67456E-001	8.01365E-004	0.00000E+000	6.95149E-004	4.80080E-001	8.67713E-001	3.57370E+000	9	...........
	20	0.28	8.74836E-001	8.01184E-004	0.00000E+000	7.00904E-004	4.80080E-001	8.75056E-001	3.57370E+000	9	...........
	21	0.293333	8.81900E-001	8.01288E-004	0.00000E+000	7.06656E-004	4.80080E-001	8.82133E-001	3.57385E+000	9	...........
	22	0.306667	8.88685E-001	8.01045E-004	0.00000E+000	7.11877E-004	4.80080E-001	8.88924E-001	3.57410E+000	9	...........
	23	0.32	8.95222E-001	8.00983E-004	0.00000E+000	7.17058E-004	4.80080E-001	8.95482E-001	3.57410E+000	9	...........
	24	0.333333	9.01527E-001	8.00778E-004	0.00000E+000	7.21923E-004	4.80080E-001	9.01763E-001	3.57410E+000	9	...........
	25	0.346667	9.07587E-001	8.00772E-004	0.00000E+000	7.26770E-004	4.80080E-001	9.07823E-001	3.57410E+000	9	...........
	26	0.36	9.13440E-001	8.01138E-004	0.00000E+000	7.31792E-004	4.80080E-001	9.13684E-001	3.57410E+000	9	...........
	27	0.373333	9.19064E-001	8.01245E-004	0.00000E+000	7.36395E-004	4.80080E-001	9.19308E-001	3.57410E+000	9	...........
	28	0.386667	9.24579E-001	8.00966E-004	0.00000E+000	7.40557E-004	4.80080E-001	9.24783E-001	3.57410E+000	9	...........
	29	0.4	9.29851E-001	8.01087E-004	0.00000E+000	7.44892E-004	4.80080E-001	9.30069E-001	3.57410E+000	9	...........
	30	0.413333	9.34966E-001	8.01241E-004	0.00000E+000	7.49133E-004	4.80080E-001	9.35194E-001	3.57410E+000	9	...........
	31	0.426667	9.39934E-001	8.00884E-004	0.00000E+000	7.52778E-004	4.80080E-001	9.40168E-001	3.57410E+000	9	...........
	32	0.44	9.44757E-001	8.01118E-004	0.00000E+000	7.56862E-004	4.80080E-001	9.44965E-001	3.57410E+000	9	...........
	33	0.453333	9.49427E-001	8.01077E-004	0.00000E+000	7.60565E-004	4.80080E-001	9.49646E-001	3.57410E+000	9	...........
	34	0.466667	9.53949E-001	8.01057E-004	0.00000E+000	7.64167E-004	4.80080E-001	9.54155E-001	3.57410E+000	9	...........
	35	0.48	9.58368E-001	8.01125E-004	0.00000E+000	7.67773E-004	4.80080E-001	9.58555E-001	3.57410E+000	9	...........
	36	0.493333	9.62632E-001	8.00777E-004	0.00000E+000	7.70854E-004	4.80080E-001	9.62845E-001	3.57410E+000	9	...........
	37	0.506667	9.66730E-001	8.00978E-004	0.00000E+000	7.74330E-004	4.80080E-001	9.66969E-001	3.57410E+000	9	...........
	38	0.52	9.70754E-001	8.01023E-004	0.00000E+000	7.77596E-004	4.80080E-001	9.71010E-001	3.57410E+000	9	...........
	39	0.533333	9.74717E-001	8.01307E-004	0.00000E+000	7.81047E-004	4.80080E-001	9.74980E-001	3.57410E+000	9	...........
	40	0.546667	9.78523E-001	8.01211E-004	0.00000E+000	7.84003E-004	4.80080E-001	9.78760E-001	3.57410E+000	9	...........
	41	0.56	9.82208E-001	8.01085E-004	0.00000E+000	7.86832E-004	4.80080E-001	9.82469E-001	3.57410E+000	9	...........
	42	0.573333	9.85770E-001	8.00728E-004	0.00000E+000	7.89334E-004	4.80080E-001	9.86085E-001	3.57410E+000	9	...........
	43	0.586667	9.89263E-001	8.00648E-004	0.00000E+000	7.92052E-004	4.80080E-001	9.89544E-001	3.57410E+000	9	...........
	44	0.6	9.92635E-001	8.01020E-004	0.00000E+000	7.95120E-004	4.80080E-001	9.92902E-001	3.57410E+000	9	...........
	45	0.613333	9.95932E-001	8.00892E-004	0.00000E+000	7.97634E-004	4.80080E-001	9.96207E-001	3.57410E+000	9	...........
	46	0.625	9.98978E-001	8.01019E-004	0.00000E+000	8.00201E-004	4.80080E-001	9.99252E-001	3.57410E+000	9	...........
STARTTIMEOFFSET	QUANT	28.99833	Start Time Offset (s)
