EXPLAIN
TAG	PWR800_CHARGE
TITLE	LABEL	PWR Cyclic Charge Discharge (Cell) - Charge Step	Test &Identifier
DATE	LABEL	11-7-2017	Date
TIME	LABEL	13:50:12	Time
NOTES	NOTES	3	&Notes...
	supercap test cell
	0.8mg
	6M KOH
PSTAT	PSTAT	IFC5000-01520	Potentiostat
CAPACITY	QUANT	1.00000E-003	Capacity (A-hr)
CELLTYPE	SELECTOR	1	&Cell Type
WORKINGCONNECTION	SELECTOR	0	&Working Lead
MAXCHARGETIME	VARIABLEANDUNITS	1.00000E+002	s	1.00000E+002	second(s)	Max &Charge Time
CHARGECURRENT	QUANT	8.00000E-004	&Charge Current (A) 
VOLTAGEFINISH	TWOPARAM	F	1.00000E-003	3.60000E+003	&Voltage Finish	 I (A) < 	Max Time(s)
SAMPLETIME	QUANT	1.00000E-002	Sa&mple Period (s)
CHARGESTOPAT1	MULTIPARAM	4	1.00000E+000	Charge Stop At &1	Voltage > Limit	V
CHARGESTOPAT2	MULTIPARAM	0	0.00000E+000	Charge Stop At &2	None	N/A
AESBHCSELECTOR	TOGGLE	F	Save Both Half Cells
IRCOMP	TOGGLE	F	IR &Measure
EOC	QUANT	0	Open Circuit (V)
SEQUENCER	TOGGLE	TRUE	Run as Sequence
PSTATMODEL	IQUANT	53	Pstat Model
PSTATSECTION	LABEL	IFC5000-01520	Pstat Section
PSTATSERIALNO	LABEL	01520	Pstat Serial Number
CTRLMODE	IQUANT	0	Control Mode
ELECTROMETER	IQUANT	1	RE=0 or CS=1
IESTAB	IQUANT	0	I/E Stability
CASPEED	IQUANT	4	Control Amp Speed
CONVENTION	IQUANT	1	Current Convention
ICHRANGE	IQUANT	2	Ich Range
ICHRANGEMODE	TOGGLE	T	Ich Auto Range
ICHOFFSETENABLE	TOGGLE	F	Ich Offset Enable
ICHOFFSET	QUANT	0	Ich Offset (V)
ICHFILTER	IQUANT	1	Ich Filter
VCHRANGE	IQUANT	2	Vch Range
VCHRANGEMODE	TOGGLE	T	Vch Auto Range
VCHOFFSETENABLE	TOGGLE	F	Vch Offset Enable
VCHOFFSET	QUANT	0	Vch Offset (V)
VCHFILTER	IQUANT	1	Vch Filter
IERANGELOWERLIMIT	IQUANT	9	I/E Range Lower Limit
IERANGEMODE	TOGGLE	F	I/E AutoRange
IERANGE	IQUANT	9	I/E Range
ACHSELECT	IQUANT	1	Ach Select
ACHRANGE	IQUANT	2	Ach Range
ACHOFFSETENABLE	TOGGLE	F	Ach Offset Enable
ACHOFFSET	QUANT	0	Ach Offset (V)
ACHFILTER	IQUANT	1	Ach Filter
CABLEID	IQUANT	14	Cable ID
DCCALDATE	LABEL	5-7-2017	DC Calibration Date
ACCALDATE	LABEL	12/3/2015	AC Calibration Date
FRAMEWORKVERSION	QUANT	7.01	Framework Version
INSTRUMENTVERSION	LABEL	4.00	Instrument Version
CURVE	TABLE	46
	Pt	T	Vf	Im	Vu	Pwr	Sig	Ach	Temp	IERange	Over
	#	s	V	A	V	W	V	V	deg C	#	bits
	0	0.013333	5.55526E-001	8.00775E-004	0.00000E+000	4.44851E-004	4.80080E-001	5.55666E-001	3.57380E+000	9	...........
	1	0.026667	5.96049E-001	8.00898E-004	0.00000E+000	4.77375E-004	4.80080E-001	5.96226E-001	3.57380E+000	9	...........
	2	0.04	6.28963E-001	8.00722E-004	0.00000E+000	5.03624E-004	4.80080E-001	6.29102E-001	3.57380E+000	9	...........
	3	0.053333	6.56608E-001	8.01098E-004	0.00000E+000	5.26007E-004	4.80080E-001	6.56790E-001	3.57380E+000	9	...........
	4	0.066667	6.80519E-001	8.00893E-004	0.00000E+000	5.45023E-004	4.80080E-001	6.80684E-001	3.57380E+000	9	...........
	5	0.08	7.01551E-001	8.01214E-004	0.00000E+000	5.62092E-004	4.80080E-001	7.01718E-001	3.57380E+000	9	...........
	6	0.093333	7.20361E-001	8.01118E-004	0.00000E+000	5.77094E-004	4.80080E-001	7.20543E-001	3.57380E+000	9	...........
	7	0.106667	7.37400E-001	8.00958E-004	0.00000E+000	5.90626E-004	4.80080E-001	7.37583E-001	3.57380E+000	9	...........
	8	0.12	7.52945E-001	8.01119E-004	0.00000E+000	6.03198E-004	4.80080E-001	7.53121E-001	3.57380E+000	9	...........
	9	0.133333	7.67250E-001	8.01086E-004	0.00000E+000	6.14633E-004	4.80080E-001	7.67442E-001	3.57380E+000	9	...........
	10	0.146667	7.80477E-001	8.01179E-004	0.00000E+000	6.25302E-004	4.80080E-001	7.80696E-001	3.57380E+000	9	...........
	11	0.16	7.92816E-001	8.00864E-004	0.00000E+000	6.34937E-004	4.80080E-001	7.93015E-001	3.57380E+000	9	...........
	12	0.173333	8.04332E-001	8.00872E-004	0.00000E+000	6.44167E-004	4.80080E-001	8.04523E-001	3.57380E+000	9	...........
	13	0.186667	8.15096E-001	8.00691E-004	0.00000E+000	6.52640E-004	4.80080E-001	8.15330E-001	3.57380E+000	9	...........
	14	0.2	8.25270E-001	8.00929E-004	0.00000E+000	6.60983E-004	4.80080E-001	8.25476E-001	3.57380E+000	9	...........
	15	0.213333	8.34850E-001	8.01056E-004	0.00000E+000	6.68761E-004	4.80080E-001	8.35087E-001	3.57380E+000	9	...........
	16	0.226667	8.43991E-001	8.00945E-004	0.00000E+000	6.75990E-004	4.80080E-001	8.44181E-001	3.57380E+000	9	...........
	17	0.24	8.52620E-001	8.01108E-004	0.00000E+000	6.83041E-004	4.80080E-001	8.52816E-001	3.57380E+000	9	...........
	18	0.253333	8.60893E-001	8.01089E-004	0.00000E+000	6.89652E-004	4.80080E-001	8.61093E-001	3.57380E+000	9	...........
	19	0.266667	8.68801E-001	8.00840E-004	0.00000E+000	6.95771E-004	4.80080E-001	8.69004E-001	3.57380E+000	9	...........
	20	0.28	8.76392E-001	8.01163E-004	0.00000E+000	7.02132E-004	4.80080E-001	8.76596E-001	3.57380E+000	9	...........
	21	0.293333	8.83639E-001	8.01021E-004	0.00000E+000	7.07814E-004	4.80080E-001	8.83839E-001	3.57380E+000	9	...........
	22	0.306667	8.90609E-001	8.00989E-004	0.00000E+000	7.13368E-004	4.80080E-001	8.90802E-001	3.57380E+000	9	...........
	23	0.32	8.97273E-001	8.00848E-004	0.00000E+000	7.18580E-004	4.80080E-001	8.97494E-001	3.57380E+000	9	...........
	24	0.333333	9.03690E-001	8.01090E-004	0.00000E+000	7.23937E-004	4.80080E-001	9.03914E-001	3.57380E+000	9	...........
	25	0.346667	9.09883E-001	8.01557E-004	0.00000E+000	7.29323E-004	4.80080E-001	9.10090E-001	3.57380E+000	9	...........
	26	0.36	9.15847E-001	8.01117E-004	0.00000E+000	7.33701E-004	4.80080E-001	9.16064E-001	3.57380E+000	9	...........
	27	0.373333	9.21661E-001	8.01116E-004	0.00000E+000	7.38357E-004	4.80080E-001	9.21824E-001	3.57380E+000	9	...........
	28	0.386667	9.27255E-001	8.01304E-004	0.00000E+000	7.43013E-004	4.80080E-001	9.27422E-001	3.57380E+000	9	...........
	29	0.4	9.32675E-001	8.00934E-004	0.00000E+000	7.47011E-004	4.80080E-001	9.32850E-001	3.57380E+000	9	...........
	30	0.413333	9.37903E-001	8.00999E-004	0.00000E+000	7.51260E-004	4.80080E-001	9.38113E-001	3.57380E+000	9	...........
	31	0.426667	9.42974E-001	8.00915E-004	0.00000E+000	7.55242E-004	4.80080E-001	9.43185E-001	3.57380E+000	9	...........
	32	0.44	9.47929E-001	8.01037E-004	0.00000E+000	7.59326E-004	4.80080E-001	9.48130E-001	3.57380E+000	9	...........
	33	0.453333	9.52679E-001	8.01473E-004	0.00000E+000	7.63546E-004	4.80080E-001	9.52884E-001	3.57380E+000	9	...........
	34	0.466667	9.57276E-001	8.01239E-004	0.00000E+000	7.67007E-004	4.80080E-001	9.57483E-001	3.57380E+000	9	...........
	35	0.48	9.61726E-001	8.00949E-004	0.00000E+000	7.70293E-004	4.80080E-001	9.61998E-001	3.57380E+000	9	...........
	36	0.493333	9.66098E-001	8.01321E-004	0.00000E+000	7.74155E-004	4.80080E-001	9.66349E-001	3.57380E+000	9	...........
	37	0.506667	9.70324E-001	8.01088E-004	0.00000E+000	7.77315E-004	4.80080E-001	9.70599E-001	3.57380E+000	9	...........
	38	0.52	9.74505E-001	8.01051E-004	0.00000E+000	7.80629E-004	4.80080E-001	9.74734E-001	3.57380E+000	9	...........
	39	0.533333	9.78471E-001	8.00883E-004	0.00000E+000	7.83640E-004	4.80080E-001	9.78698E-001	3.57380E+000	9	...........
	40	0.546667	9.82302E-001	8.01043E-004	0.00000E+000	7.86866E-004	4.80080E-001	9.82534E-001	3.57380E+000	9	...........
	41	0.56	9.86058E-001	8.01089E-004	0.00000E+000	7.89920E-004	4.80080E-001	9.86327E-001	3.57380E+000	9	...........
	42	0.573333	9.89723E-001	8.00973E-004	0.00000E+000	7.92742E-004	4.80080E-001	9.89984E-001	3.57380E+000	9	...........
	43	0.586667	9.93245E-001	8.01047E-004	0.00000E+000	7.95636E-004	4.80080E-001	9.93495E-001	3.57380E+000	9	...........
	44	0.6	9.96696E-001	8.01075E-004	0.00000E+000	7.98429E-004	4.80080E-001	9.96956E-001	3.57380E+000	9	...........
	45	0.608333	9.99422E-001	8.00989E-004	0.00000E+000	8.00526E-004	4.80080E-001	9.99709E-001	3.57380E+000	9	...........
STARTTIMEOFFSET	QUANT	39.95001	Start Time Offset (s)
