EXPLAIN
TAG	PWR800_CHARGE
TITLE	LABEL	PWR Cyclic Charge Discharge (Cell) - Charge Step	Test &Identifier
DATE	LABEL	11-7-2017	Date
TIME	LABEL	13:49:18	Time
NOTES	NOTES	3	&Notes...
	supercap test cell
	0.8mg
	6M KOH
PSTAT	PSTAT	IFC5000-01520	Potentiostat
CAPACITY	QUANT	1.00000E-003	Capacity (A-hr)
CELLTYPE	SELECTOR	1	&Cell Type
WORKINGCONNECTION	SELECTOR	0	&Working Lead
MAXCHARGETIME	VARIABLEANDUNITS	1.00000E+002	s	1.00000E+002	second(s)	Max &Charge Time
CHARGECURRENT	QUANT	8.00000E-004	&Charge Current (A) 
VOLTAGEFINISH	TWOPARAM	F	1.00000E-003	3.60000E+003	&Voltage Finish	 I (A) < 	Max Time(s)
SAMPLETIME	QUANT	1.00000E-002	Sa&mple Period (s)
CHARGESTOPAT1	MULTIPARAM	4	1.00000E+000	Charge Stop At &1	Voltage > Limit	V
CHARGESTOPAT2	MULTIPARAM	0	0.00000E+000	Charge Stop At &2	None	N/A
AESBHCSELECTOR	TOGGLE	F	Save Both Half Cells
IRCOMP	TOGGLE	F	IR &Measure
EOC	QUANT	0	Open Circuit (V)
SEQUENCER	TOGGLE	TRUE	Run as Sequence
PSTATMODEL	IQUANT	53	Pstat Model
PSTATSECTION	LABEL	IFC5000-01520	Pstat Section
PSTATSERIALNO	LABEL	01520	Pstat Serial Number
CTRLMODE	IQUANT	0	Control Mode
ELECTROMETER	IQUANT	1	RE=0 or CS=1
IESTAB	IQUANT	0	I/E Stability
CASPEED	IQUANT	4	Control Amp Speed
CONVENTION	IQUANT	1	Current Convention
ICHRANGE	IQUANT	2	Ich Range
ICHRANGEMODE	TOGGLE	T	Ich Auto Range
ICHOFFSETENABLE	TOGGLE	F	Ich Offset Enable
ICHOFFSET	QUANT	0	Ich Offset (V)
ICHFILTER	IQUANT	1	Ich Filter
VCHRANGE	IQUANT	2	Vch Range
VCHRANGEMODE	TOGGLE	T	Vch Auto Range
VCHOFFSETENABLE	TOGGLE	F	Vch Offset Enable
VCHOFFSET	QUANT	0	Vch Offset (V)
VCHFILTER	IQUANT	1	Vch Filter
IERANGELOWERLIMIT	IQUANT	9	I/E Range Lower Limit
IERANGEMODE	TOGGLE	F	I/E AutoRange
IERANGE	IQUANT	9	I/E Range
ACHSELECT	IQUANT	1	Ach Select
ACHRANGE	IQUANT	2	Ach Range
ACHOFFSETENABLE	TOGGLE	F	Ach Offset Enable
ACHOFFSET	QUANT	0	Ach Offset (V)
ACHFILTER	IQUANT	1	Ach Filter
CABLEID	IQUANT	14	Cable ID
DCCALDATE	LABEL	5-7-2017	DC Calibration Date
ACCALDATE	LABEL	12/3/2015	AC Calibration Date
FRAMEWORKVERSION	QUANT	7.01	Framework Version
INSTRUMENTVERSION	LABEL	4.00	Instrument Version
CURVE	TABLE	53
	Pt	T	Vf	Im	Vu	Pwr	Sig	Ach	Temp	IERange	Over
	#	s	V	A	V	W	V	V	deg C	#	bits
	0	0.013333	5.83320E-001	8.01016E-004	0.00000E+000	4.67248E-004	4.80080E-001	5.83478E-001	3.57360E+000	9	...........
	1	0.026667	6.20302E-001	8.00833E-004	0.00000E+000	4.96758E-004	4.80080E-001	6.20497E-001	3.57360E+000	9	...........
	2	0.04	6.49985E-001	8.00909E-004	0.00000E+000	5.20579E-004	4.80080E-001	6.50174E-001	3.57360E+000	9	...........
	3	0.053333	6.74886E-001	8.00665E-004	0.00000E+000	5.40357E-004	4.80080E-001	6.75063E-001	3.57360E+000	9	...........
	4	0.066667	6.96304E-001	8.00577E-004	0.00000E+000	5.57445E-004	4.80080E-001	6.96502E-001	3.57360E+000	9	...........
	5	0.08	7.15153E-001	8.00775E-004	0.00000E+000	5.72677E-004	4.80080E-001	7.15344E-001	3.57360E+000	9	...........
	6	0.093333	7.31951E-001	8.00883E-004	0.00000E+000	5.86207E-004	4.80080E-001	7.32108E-001	3.57360E+000	9	...........
	7	0.106667	7.47104E-001	8.01088E-004	0.00000E+000	5.98496E-004	4.80080E-001	7.47265E-001	3.57360E+000	9	...........
	8	0.12	7.60933E-001	8.00976E-004	0.00000E+000	6.09489E-004	4.80080E-001	7.61111E-001	3.57360E+000	9	...........
	9	0.133333	7.73635E-001	8.01036E-004	0.00000E+000	6.19709E-004	4.80080E-001	7.73829E-001	3.57360E+000	9	...........
	10	0.146667	7.85385E-001	8.01199E-004	0.00000E+000	6.29250E-004	4.80080E-001	7.85551E-001	3.57360E+000	9	...........
	11	0.16	7.96304E-001	8.01194E-004	0.00000E+000	6.37994E-004	4.80080E-001	7.96495E-001	3.57360E+000	9	...........
	12	0.173333	8.06484E-001	8.01210E-004	0.00000E+000	6.46163E-004	4.80080E-001	8.06672E-001	3.57360E+000	9	...........
	13	0.186667	8.16070E-001	8.01096E-004	0.00000E+000	6.53751E-004	4.80080E-001	8.16287E-001	3.57413E+000	9	...........
	14	0.2	8.25105E-001	8.00856E-004	0.00000E+000	6.60790E-004	4.80080E-001	8.25323E-001	3.57500E+000	9	...........
	15	0.213333	8.33632E-001	8.00544E-004	0.00000E+000	6.67359E-004	4.80080E-001	8.33848E-001	3.57500E+000	9	...........
	16	0.226667	8.41731E-001	8.01351E-004	0.00000E+000	6.74523E-004	4.80080E-001	8.41968E-001	3.57500E+000	9	...........
	17	0.24	8.49458E-001	8.01221E-004	0.00000E+000	6.80604E-004	4.80080E-001	8.49661E-001	3.57500E+000	9	...........
	18	0.253333	8.56778E-001	8.01206E-004	0.00000E+000	6.86455E-004	4.80080E-001	8.57002E-001	3.57500E+000	9	...........
	19	0.266667	8.63836E-001	8.00727E-004	0.00000E+000	6.91697E-004	4.80080E-001	8.64059E-001	3.57500E+000	9	...........
	20	0.28	8.70619E-001	8.00832E-004	0.00000E+000	6.97220E-004	4.80080E-001	8.70837E-001	3.57500E+000	9	...........
	21	0.293333	8.77118E-001	8.01193E-004	0.00000E+000	7.02741E-004	4.80080E-001	8.77326E-001	3.57500E+000	9	...........
	22	0.306667	8.83347E-001	8.01092E-004	0.00000E+000	7.07642E-004	4.80080E-001	8.83567E-001	3.57500E+000	9	...........
	23	0.32	8.89353E-001	8.00918E-004	0.00000E+000	7.12299E-004	4.80080E-001	8.89568E-001	3.57500E+000	9	...........
	24	0.333333	8.95121E-001	8.00689E-004	0.00000E+000	7.16713E-004	4.80080E-001	8.95367E-001	3.57500E+000	9	...........
	25	0.346667	9.00666E-001	8.01039E-004	0.00000E+000	7.21468E-004	4.80080E-001	9.00912E-001	3.57500E+000	9	...........
	26	0.36	9.06036E-001	8.01200E-004	0.00000E+000	7.25917E-004	4.80080E-001	9.06273E-001	3.57500E+000	9	...........
	27	0.373333	9.11199E-001	8.00301E-004	0.00000E+000	7.29234E-004	4.80080E-001	9.11417E-001	3.57500E+000	9	...........
	28	0.386667	9.16188E-001	8.00674E-004	0.00000E+000	7.33568E-004	4.80080E-001	9.16423E-001	3.57500E+000	9	...........
	29	0.4	9.21041E-001	8.01319E-004	0.00000E+000	7.38047E-004	4.80080E-001	9.21275E-001	3.57500E+000	9	...........
	30	0.413333	9.25776E-001	8.01123E-004	0.00000E+000	7.41661E-004	4.80080E-001	9.25989E-001	3.57500E+000	9	...........
	31	0.426667	9.30312E-001	8.00960E-004	0.00000E+000	7.45142E-004	4.80080E-001	9.30540E-001	3.57500E+000	9	...........
	32	0.44	9.34711E-001	8.00720E-004	0.00000E+000	7.48442E-004	4.80080E-001	9.34945E-001	3.57500E+000	9	...........
	33	0.453333	9.38982E-001	8.00664E-004	0.00000E+000	7.51809E-004	4.80080E-001	9.39213E-001	3.57500E+000	9	...........
	34	0.466667	9.43169E-001	8.01223E-004	0.00000E+000	7.55689E-004	4.80080E-001	9.43398E-001	3.57500E+000	9	...........
	35	0.48	9.47244E-001	8.01053E-004	0.00000E+000	7.58793E-004	4.80080E-001	9.47479E-001	3.57500E+000	9	...........
	36	0.493333	9.51192E-001	8.00965E-004	0.00000E+000	7.61871E-004	4.80080E-001	9.51410E-001	3.57500E+000	9	...........
	37	0.506667	9.55014E-001	8.00554E-004	0.00000E+000	7.64541E-004	4.80080E-001	9.55243E-001	3.57500E+000	9	...........
	38	0.52	9.58707E-001	8.00652E-004	0.00000E+000	7.67591E-004	4.80080E-001	9.58971E-001	3.57500E+000	9	...........
	39	0.533333	9.62315E-001	8.01328E-004	0.00000E+000	7.71129E-004	4.80080E-001	9.62581E-001	3.57500E+000	9	...........
	40	0.546667	9.65800E-001	8.01143E-004	0.00000E+000	7.73744E-004	4.80080E-001	9.66081E-001	3.57500E+000	9	...........
	41	0.56	9.69170E-001	8.01184E-004	0.00000E+000	7.76483E-004	4.80080E-001	9.69481E-001	3.57500E+000	9	...........
	42	0.573333	9.72512E-001	8.01072E-004	0.00000E+000	7.79052E-004	4.80080E-001	9.72810E-001	3.57500E+000	9	...........
	43	0.586667	9.75771E-001	8.00938E-004	0.00000E+000	7.81532E-004	4.80080E-001	9.76019E-001	3.57500E+000	9	...........
	44	0.6	9.78952E-001	8.01239E-004	0.00000E+000	7.84374E-004	4.80080E-001	9.79141E-001	3.57500E+000	9	...........
	45	0.613333	9.82014E-001	8.01083E-004	0.00000E+000	7.86675E-004	4.80080E-001	9.82235E-001	3.57500E+000	9	...........
	46	0.626667	9.84984E-001	8.01743E-004	0.00000E+000	7.89704E-004	4.80080E-001	9.85229E-001	3.57500E+000	9	...........
	47	0.64	9.87857E-001	8.00783E-004	0.00000E+000	7.91058E-004	4.80080E-001	9.88117E-001	3.57500E+000	9	...........
	48	0.653333	9.90664E-001	8.00821E-004	0.00000E+000	7.93345E-004	4.80080E-001	9.90937E-001	3.57500E+000	9	...........
	49	0.666667	9.93391E-001	8.01412E-004	0.00000E+000	7.96115E-004	4.80080E-001	9.93652E-001	3.57500E+000	9	...........
	50	0.68	9.96088E-001	8.01172E-004	0.00000E+000	7.98038E-004	4.80080E-001	9.96320E-001	3.57500E+000	9	...........
	51	0.693333	9.98749E-001	8.00886E-004	0.00000E+000	7.99884E-004	4.80080E-001	9.98981E-001	3.57500E+000	9	...........
	52	0.695	1.00015E+000	8.01903E-004	0.00000E+000	8.02020E-004	4.80080E-001	1.00042E+000	3.57500E+000	9	...........
STARTTIMEOFFSET	QUANT	9.65833	Start Time Offset (s)
