EXPLAIN
TAG	PWR800_CHARGE
TITLE	LABEL	PWR Cyclic Charge Discharge (Cell) - Charge Step	Test &Identifier
DATE	LABEL	11-7-2017	Date
TIME	LABEL	13:51:06	Time
NOTES	NOTES	3	&Notes...
	supercap test cell
	0.8mg
	6M KOH
PSTAT	PSTAT	IFC5000-01520	Potentiostat
CAPACITY	QUANT	1.00000E-003	Capacity (A-hr)
CELLTYPE	SELECTOR	1	&Cell Type
WORKINGCONNECTION	SELECTOR	0	&Working Lead
MAXCHARGETIME	VARIABLEANDUNITS	1.00000E+002	s	1.00000E+002	second(s)	Max &Charge Time
CHARGECURRENT	QUANT	8.00000E-004	&Charge Current (A) 
VOLTAGEFINISH	TWOPARAM	F	1.00000E-003	3.60000E+003	&Voltage Finish	 I (A) < 	Max Time(s)
SAMPLETIME	QUANT	1.00000E-002	Sa&mple Period (s)
CHARGESTOPAT1	MULTIPARAM	4	1.00000E+000	Charge Stop At &1	Voltage > Limit	V
CHARGESTOPAT2	MULTIPARAM	0	0.00000E+000	Charge Stop At &2	None	N/A
AESBHCSELECTOR	TOGGLE	F	Save Both Half Cells
IRCOMP	TOGGLE	F	IR &Measure
EOC	QUANT	0	Open Circuit (V)
SEQUENCER	TOGGLE	TRUE	Run as Sequence
PSTATMODEL	IQUANT	53	Pstat Model
PSTATSECTION	LABEL	IFC5000-01520	Pstat Section
PSTATSERIALNO	LABEL	01520	Pstat Serial Number
CTRLMODE	IQUANT	0	Control Mode
ELECTROMETER	IQUANT	1	RE=0 or CS=1
IESTAB	IQUANT	0	I/E Stability
CASPEED	IQUANT	4	Control Amp Speed
CONVENTION	IQUANT	1	Current Convention
ICHRANGE	IQUANT	2	Ich Range
ICHRANGEMODE	TOGGLE	T	Ich Auto Range
ICHOFFSETENABLE	TOGGLE	F	Ich Offset Enable
ICHOFFSET	QUANT	0	Ich Offset (V)
ICHFILTER	IQUANT	1	Ich Filter
VCHRANGE	IQUANT	2	Vch Range
VCHRANGEMODE	TOGGLE	T	Vch Auto Range
VCHOFFSETENABLE	TOGGLE	F	Vch Offset Enable
VCHOFFSET	QUANT	0	Vch Offset (V)
VCHFILTER	IQUANT	1	Vch Filter
IERANGELOWERLIMIT	IQUANT	9	I/E Range Lower Limit
IERANGEMODE	TOGGLE	F	I/E AutoRange
IERANGE	IQUANT	9	I/E Range
ACHSELECT	IQUANT	1	Ach Select
ACHRANGE	IQUANT	2	Ach Range
ACHOFFSETENABLE	TOGGLE	F	Ach Offset Enable
ACHOFFSET	QUANT	0	Ach Offset (V)
ACHFILTER	IQUANT	1	Ach Filter
CABLEID	IQUANT	14	Cable ID
DCCALDATE	LABEL	5-7-2017	DC Calibration Date
ACCALDATE	LABEL	12/3/2015	AC Calibration Date
FRAMEWORKVERSION	QUANT	7.01	Framework Version
INSTRUMENTVERSION	LABEL	4.00	Instrument Version
CURVE	TABLE	44
	Pt	T	Vf	Im	Vu	Pwr	Sig	Ach	Temp	IERange	Over
	#	s	V	A	V	W	V	V	deg C	#	bits
	0	0.013333	5.50344E-001	8.00783E-004	0.00000E+000	4.40706E-004	4.80080E-001	5.50477E-001	3.57390E+000	9	...........
	1	0.026667	5.91501E-001	8.00834E-004	0.00000E+000	4.73694E-004	4.80080E-001	5.91690E-001	3.57390E+000	9	...........
	2	0.04	6.25116E-001	8.00827E-004	0.00000E+000	5.00610E-004	4.80080E-001	6.25267E-001	3.57390E+000	9	...........
	3	0.053333	6.53495E-001	8.01157E-004	0.00000E+000	5.23552E-004	4.80080E-001	6.53648E-001	3.57390E+000	9	...........
	4	0.066667	6.78057E-001	8.01250E-004	0.00000E+000	5.43293E-004	4.80080E-001	6.78204E-001	3.57390E+000	9	...........
	5	0.08	6.99736E-001	8.00992E-004	0.00000E+000	5.60483E-004	4.80080E-001	6.99887E-001	3.57390E+000	9	...........
	6	0.093333	7.19153E-001	8.00973E-004	0.00000E+000	5.76023E-004	4.80080E-001	7.19318E-001	3.57390E+000	9	...........
	7	0.106667	7.36716E-001	8.01061E-004	0.00000E+000	5.90154E-004	4.80080E-001	7.36875E-001	3.57390E+000	9	...........
	8	0.12	7.52778E-001	8.00593E-004	0.00000E+000	6.02669E-004	4.80080E-001	7.52945E-001	3.57390E+000	9	...........
	9	0.133333	7.67584E-001	8.00832E-004	0.00000E+000	6.14705E-004	4.80080E-001	7.67739E-001	3.57390E+000	9	...........
	10	0.146667	7.81268E-001	8.00835E-004	0.00000E+000	6.25666E-004	4.80080E-001	7.81436E-001	3.57390E+000	9	...........
	11	0.16	7.93986E-001	8.01196E-004	0.00000E+000	6.36139E-004	4.80080E-001	7.94150E-001	3.57390E+000	9	...........
	12	0.173333	8.05858E-001	8.00883E-004	0.00000E+000	6.45398E-004	4.80080E-001	8.06045E-001	3.57390E+000	9	...........
	13	0.186667	8.17015E-001	8.00946E-004	0.00000E+000	6.54385E-004	4.80080E-001	8.17255E-001	3.57390E+000	9	...........
	14	0.2	8.27547E-001	8.00866E-004	0.00000E+000	6.62754E-004	4.80080E-001	8.27776E-001	3.57390E+000	9	...........
	15	0.213333	8.37465E-001	8.00837E-004	0.00000E+000	6.70673E-004	4.80080E-001	8.37705E-001	3.57390E+000	9	...........
	16	0.226667	8.46936E-001	8.00720E-004	0.00000E+000	6.78158E-004	4.80080E-001	8.47196E-001	3.57390E+000	9	...........
	17	0.24	8.55927E-001	8.01106E-004	0.00000E+000	6.85688E-004	4.80080E-001	8.56157E-001	3.57391E+000	9	...........
	18	0.253333	8.64452E-001	8.00951E-004	0.00000E+000	6.92384E-004	4.80080E-001	8.64703E-001	3.57460E+000	9	...........
	19	0.266667	8.72618E-001	8.01021E-004	0.00000E+000	6.98985E-004	4.80080E-001	8.72851E-001	3.57460E+000	9	...........
	20	0.28	8.80423E-001	8.00858E-004	0.00000E+000	7.05093E-004	4.80080E-001	8.80641E-001	3.57460E+000	9	...........
	21	0.293333	8.87885E-001	8.00837E-004	0.00000E+000	7.11051E-004	4.80080E-001	8.88126E-001	3.57460E+000	9	...........
	22	0.306667	8.95102E-001	8.01108E-004	0.00000E+000	7.17073E-004	4.80080E-001	8.95340E-001	3.57460E+000	9	...........
	23	0.32	9.02026E-001	8.01139E-004	0.00000E+000	7.22648E-004	4.80080E-001	9.02230E-001	3.57460E+000	9	...........
	24	0.333333	9.08662E-001	8.00901E-004	0.00000E+000	7.27749E-004	4.80080E-001	9.08879E-001	3.57460E+000	9	...........
	25	0.346667	9.15072E-001	8.01386E-004	0.00000E+000	7.33326E-004	4.80080E-001	9.15313E-001	3.57460E+000	9	...........
	26	0.36	9.21294E-001	8.01060E-004	0.00000E+000	7.38012E-004	4.80080E-001	9.21524E-001	3.57460E+000	9	...........
	27	0.373333	9.27252E-001	8.00799E-004	0.00000E+000	7.42542E-004	4.80080E-001	9.27462E-001	3.57460E+000	9	...........
	28	0.386667	9.33036E-001	8.00627E-004	0.00000E+000	7.47014E-004	4.80080E-001	9.33224E-001	3.57460E+000	9	...........
	29	0.4	9.38642E-001	8.00997E-004	0.00000E+000	7.51850E-004	4.80080E-001	9.38825E-001	3.57460E+000	9	...........
	30	0.413333	9.44058E-001	8.01165E-004	0.00000E+000	7.56346E-004	4.80080E-001	9.44256E-001	3.57460E+000	9	...........
	31	0.426667	9.49282E-001	8.00858E-004	0.00000E+000	7.60240E-004	4.80080E-001	9.49486E-001	3.57460E+000	9	...........
	32	0.44	9.54344E-001	8.00682E-004	0.00000E+000	7.64126E-004	4.80080E-001	9.54539E-001	3.57460E+000	9	...........
	33	0.453333	9.59222E-001	8.01036E-004	0.00000E+000	7.68371E-004	4.80080E-001	9.59451E-001	3.57460E+000	9	...........
	34	0.466667	9.63968E-001	8.00746E-004	0.00000E+000	7.71893E-004	4.80080E-001	9.64213E-001	3.57460E+000	9	...........
	35	0.48	9.68573E-001	8.00957E-004	0.00000E+000	7.75785E-004	4.80080E-001	9.68820E-001	3.57460E+000	9	...........
	36	0.493333	9.73062E-001	8.01009E-004	0.00000E+000	7.79431E-004	4.80080E-001	9.73304E-001	3.57460E+000	9	...........
	37	0.506667	9.77424E-001	8.01012E-004	0.00000E+000	7.82928E-004	4.80080E-001	9.77636E-001	3.57460E+000	9	...........
	38	0.52	9.81641E-001	8.00756E-004	0.00000E+000	7.86054E-004	4.80080E-001	9.81871E-001	3.57460E+000	9	...........
	39	0.533333	9.85739E-001	8.01223E-004	0.00000E+000	7.89797E-004	4.80080E-001	9.85964E-001	3.57460E+000	9	...........
	40	0.546667	9.89710E-001	8.00975E-004	0.00000E+000	7.92733E-004	4.80080E-001	9.89947E-001	3.57460E+000	9	...........
	41	0.56	9.93570E-001	8.00868E-004	0.00000E+000	7.95718E-004	4.80080E-001	9.93802E-001	3.57460E+000	9	...........
	42	0.573333	9.97361E-001	8.01193E-004	0.00000E+000	7.99079E-004	4.80080E-001	9.97582E-001	3.57460E+000	9	...........
	43	0.578333	9.99866E-001	8.00405E-004	0.00000E+000	8.00298E-004	4.80080E-001	1.00011E+000	3.57460E+000	9	...........
STARTTIMEOFFSET	QUANT	69.32665	Start Time Offset (s)
