EXPLAIN
TAG	PWR800_CHARGE
TITLE	LABEL	PWR Cyclic Charge Discharge (Cell) - Charge Step	Test &Identifier
DATE	LABEL	11-7-2017	Date
TIME	LABEL	13:49:30	Time
NOTES	NOTES	3	&Notes...
	supercap test cell
	0.8mg
	6M KOH
PSTAT	PSTAT	IFC5000-01520	Potentiostat
CAPACITY	QUANT	1.00000E-003	Capacity (A-hr)
CELLTYPE	SELECTOR	1	&Cell Type
WORKINGCONNECTION	SELECTOR	0	&Working Lead
MAXCHARGETIME	VARIABLEANDUNITS	1.00000E+002	s	1.00000E+002	second(s)	Max &Charge Time
CHARGECURRENT	QUANT	8.00000E-004	&Charge Current (A) 
VOLTAGEFINISH	TWOPARAM	F	1.00000E-003	3.60000E+003	&Voltage Finish	 I (A) < 	Max Time(s)
SAMPLETIME	QUANT	1.00000E-002	Sa&mple Period (s)
CHARGESTOPAT1	MULTIPARAM	4	1.00000E+000	Charge Stop At &1	Voltage > Limit	V
CHARGESTOPAT2	MULTIPARAM	0	0.00000E+000	Charge Stop At &2	None	N/A
AESBHCSELECTOR	TOGGLE	F	Save Both Half Cells
IRCOMP	TOGGLE	F	IR &Measure
EOC	QUANT	0	Open Circuit (V)
SEQUENCER	TOGGLE	TRUE	Run as Sequence
PSTATMODEL	IQUANT	53	Pstat Model
PSTATSECTION	LABEL	IFC5000-01520	Pstat Section
PSTATSERIALNO	LABEL	01520	Pstat Serial Number
CTRLMODE	IQUANT	0	Control Mode
ELECTROMETER	IQUANT	1	RE=0 or CS=1
IESTAB	IQUANT	0	I/E Stability
CASPEED	IQUANT	4	Control Amp Speed
CONVENTION	IQUANT	1	Current Convention
ICHRANGE	IQUANT	2	Ich Range
ICHRANGEMODE	TOGGLE	T	Ich Auto Range
ICHOFFSETENABLE	TOGGLE	F	Ich Offset Enable
ICHOFFSET	QUANT	0	Ich Offset (V)
ICHFILTER	IQUANT	1	Ich Filter
VCHRANGE	IQUANT	2	Vch Range
VCHRANGEMODE	TOGGLE	T	Vch Auto Range
VCHOFFSETENABLE	TOGGLE	F	Vch Offset Enable
VCHOFFSET	QUANT	0	Vch Offset (V)
VCHFILTER	IQUANT	1	Vch Filter
IERANGELOWERLIMIT	IQUANT	9	I/E Range Lower Limit
IERANGEMODE	TOGGLE	F	I/E AutoRange
IERANGE	IQUANT	9	I/E Range
ACHSELECT	IQUANT	1	Ach Select
ACHRANGE	IQUANT	2	Ach Range
ACHOFFSETENABLE	TOGGLE	F	Ach Offset Enable
ACHOFFSET	QUANT	0	Ach Offset (V)
ACHFILTER	IQUANT	1	Ach Filter
CABLEID	IQUANT	14	Cable ID
DCCALDATE	LABEL	5-7-2017	DC Calibration Date
ACCALDATE	LABEL	12/3/2015	AC Calibration Date
FRAMEWORKVERSION	QUANT	7.01	Framework Version
INSTRUMENTVERSION	LABEL	4.00	Instrument Version
CURVE	TABLE	50
	Pt	T	Vf	Im	Vu	Pwr	Sig	Ach	Temp	IERange	Over
	#	s	V	A	V	W	V	V	deg C	#	bits
	0	0.013333	5.71862E-001	8.00472E-004	0.00000E+000	4.57759E-004	4.80080E-001	5.71995E-001	3.57370E+000	9	...........
	1	0.026667	6.10390E-001	8.00871E-004	0.00000E+000	4.88843E-004	4.80080E-001	6.10532E-001	3.57370E+000	9	...........
	2	0.04	6.41436E-001	8.00761E-004	0.00000E+000	5.13637E-004	4.80080E-001	6.41563E-001	3.57370E+000	9	...........
	3	0.053333	6.67484E-001	8.00929E-004	0.00000E+000	5.34608E-004	4.80080E-001	6.67603E-001	3.57370E+000	9	...........
	4	0.066667	6.89886E-001	8.00318E-004	0.00000E+000	5.52128E-004	4.80080E-001	6.90039E-001	3.57370E+000	9	...........
	5	0.08	7.09610E-001	8.00915E-004	0.00000E+000	5.68337E-004	4.80080E-001	7.09765E-001	3.57370E+000	9	...........
	6	0.093333	7.27277E-001	8.00747E-004	0.00000E+000	5.82365E-004	4.80080E-001	7.27424E-001	3.57370E+000	9	...........
	7	0.106667	7.43200E-001	8.01244E-004	0.00000E+000	5.95485E-004	4.80080E-001	7.43361E-001	3.57370E+000	9	...........
	8	0.12	7.57695E-001	8.01081E-004	0.00000E+000	6.06975E-004	4.80080E-001	7.57869E-001	3.57370E+000	9	...........
	9	0.133333	7.71044E-001	8.01293E-004	0.00000E+000	6.17832E-004	4.80080E-001	7.71215E-001	3.57370E+000	9	...........
	10	0.146667	7.83355E-001	8.01012E-004	0.00000E+000	6.27476E-004	4.80080E-001	7.83550E-001	3.57370E+000	9	...........
	11	0.16	7.94841E-001	8.00695E-004	0.00000E+000	6.36426E-004	4.80080E-001	7.95035E-001	3.57370E+000	9	...........
	12	0.173333	8.05552E-001	8.01041E-004	0.00000E+000	6.45280E-004	4.80080E-001	8.05750E-001	3.57370E+000	9	...........
	13	0.186667	8.15608E-001	8.00830E-004	0.00000E+000	6.53164E-004	4.80080E-001	8.15818E-001	3.57370E+000	9	...........
	14	0.2	8.25110E-001	8.01088E-004	0.00000E+000	6.60986E-004	4.80080E-001	8.25321E-001	3.57370E+000	9	...........
	15	0.213333	8.34067E-001	8.01000E-004	0.00000E+000	6.68088E-004	4.80080E-001	8.34282E-001	3.57370E+000	9	...........
	16	0.226667	8.42585E-001	8.01125E-004	0.00000E+000	6.75016E-004	4.80080E-001	8.42816E-001	3.57370E+000	9	...........
	17	0.24	8.50705E-001	8.00799E-004	0.00000E+000	6.81244E-004	4.80080E-001	8.50886E-001	3.57370E+000	9	...........
	18	0.253333	8.58405E-001	8.00876E-004	0.00000E+000	6.87476E-004	4.80080E-001	8.58623E-001	3.57370E+000	9	...........
	19	0.266667	8.65789E-001	8.00831E-004	0.00000E+000	6.93350E-004	4.80080E-001	8.66012E-001	3.57370E+000	9	...........
	20	0.28	8.72900E-001	8.01043E-004	0.00000E+000	6.99231E-004	4.80080E-001	8.73122E-001	3.57370E+000	9	...........
	21	0.293333	8.79667E-001	8.01043E-004	0.00000E+000	7.04651E-004	4.80080E-001	8.79888E-001	3.57370E+000	9	...........
	22	0.306667	8.86186E-001	8.00834E-004	0.00000E+000	7.09688E-004	4.80080E-001	8.86424E-001	3.57370E+000	9	...........
	23	0.32	8.92422E-001	8.01034E-004	0.00000E+000	7.14861E-004	4.80080E-001	8.92659E-001	3.57370E+000	9	...........
	24	0.333333	8.98451E-001	8.00717E-004	0.00000E+000	7.19405E-004	4.80080E-001	8.98725E-001	3.57370E+000	9	...........
	25	0.346667	9.04264E-001	8.01188E-004	0.00000E+000	7.24486E-004	4.80080E-001	9.04515E-001	3.57370E+000	9	...........
	26	0.36	9.09910E-001	8.00942E-004	0.00000E+000	7.28785E-004	4.80080E-001	9.10140E-001	3.57370E+000	9	...........
	27	0.373333	9.15352E-001	8.01140E-004	0.00000E+000	7.33325E-004	4.80080E-001	9.15618E-001	3.57370E+000	9	...........
	28	0.386667	9.20662E-001	8.01001E-004	0.00000E+000	7.37451E-004	4.80080E-001	9.20883E-001	3.57370E+000	9	...........
	29	0.4	9.25811E-001	8.00728E-004	0.00000E+000	7.41323E-004	4.80080E-001	9.26007E-001	3.57370E+000	9	...........
	30	0.413333	9.30704E-001	8.00694E-004	0.00000E+000	7.45209E-004	4.80080E-001	9.30860E-001	3.57370E+000	9	...........
	31	0.426667	9.35495E-001	8.01086E-004	0.00000E+000	7.49411E-004	4.80080E-001	9.35682E-001	3.57370E+000	9	...........
	32	0.44	9.40136E-001	8.01331E-004	0.00000E+000	7.53360E-004	4.80080E-001	9.40334E-001	3.57370E+000	9	...........
	33	0.453333	9.44637E-001	8.00737E-004	0.00000E+000	7.56405E-004	4.80080E-001	9.44848E-001	3.57370E+000	9	...........
	34	0.466667	9.49036E-001	8.01107E-004	0.00000E+000	7.60279E-004	4.80080E-001	9.49235E-001	3.57370E+000	9	...........
	35	0.48	9.53252E-001	8.01189E-004	0.00000E+000	7.63735E-004	4.80080E-001	9.53448E-001	3.57370E+000	9	...........
	36	0.493333	9.57317E-001	8.00808E-004	0.00000E+000	7.66626E-004	4.80080E-001	9.57526E-001	3.57370E+000	9	...........
	37	0.506667	9.61268E-001	8.01357E-004	0.00000E+000	7.70318E-004	4.80080E-001	9.61516E-001	3.57370E+000	9	...........
	38	0.52	9.65113E-001	8.01131E-004	0.00000E+000	7.73182E-004	4.80080E-001	9.65358E-001	3.57370E+000	9	...........
	39	0.533333	9.68848E-001	8.01158E-004	0.00000E+000	7.76200E-004	4.80080E-001	9.69088E-001	3.57423E+000	9	...........
	40	0.546667	9.72496E-001	8.00975E-004	0.00000E+000	7.78945E-004	4.80080E-001	9.72749E-001	3.57430E+000	9	...........
	41	0.56	9.76052E-001	8.00797E-004	0.00000E+000	7.81620E-004	4.80080E-001	9.76274E-001	3.57430E+000	9	...........
	42	0.573333	9.79463E-001	8.01122E-004	0.00000E+000	7.84670E-004	4.80080E-001	9.79685E-001	3.57430E+000	9	...........
	43	0.586667	9.82803E-001	8.00774E-004	0.00000E+000	7.87004E-004	4.80080E-001	9.83049E-001	3.57430E+000	9	...........
	44	0.6	9.86065E-001	8.01345E-004	0.00000E+000	7.90178E-004	4.80080E-001	9.86335E-001	3.57430E+000	9	...........
	45	0.613333	9.89276E-001	8.00744E-004	0.00000E+000	7.92157E-004	4.80080E-001	9.89542E-001	3.57430E+000	9	...........
	46	0.626667	9.92376E-001	8.00950E-004	0.00000E+000	7.94844E-004	4.80080E-001	9.92637E-001	3.57430E+000	9	...........
	47	0.64	9.95431E-001	8.00649E-004	0.00000E+000	7.96991E-004	4.80080E-001	9.95696E-001	3.57430E+000	9	...........
	48	0.653333	9.98379E-001	8.01110E-004	0.00000E+000	7.99811E-004	4.80080E-001	9.98629E-001	3.57430E+000	9	...........
	49	0.655	1.00004E+000	8.00627E-004	0.00000E+000	8.00656E-004	4.80080E-001	1.00025E+000	3.57430E+000	9	...........
STARTTIMEOFFSET	QUANT	16.86167	Start Time Offset (s)
