EXPLAIN
TAG	PWR800_CHARGE
TITLE	LABEL	PWR Cyclic Charge Discharge (Cell) - Charge Step	Test &Identifier
DATE	LABEL	11-7-2017	Date
TIME	LABEL	13:53:32	Time
NOTES	NOTES	3	&Notes...
	supercap test cell
	0.8mg
	6M KOH
PSTAT	PSTAT	IFC5000-01520	Potentiostat
CAPACITY	QUANT	1.00000E-003	Capacity (A-hr)
CELLTYPE	SELECTOR	1	&Cell Type
WORKINGCONNECTION	SELECTOR	0	&Working Lead
MAXCHARGETIME	VARIABLEANDUNITS	1.00000E+002	s	1.00000E+002	second(s)	Max &Charge Time
CHARGECURRENT	QUANT	8.00000E-004	&Charge Current (A) 
VOLTAGEFINISH	TWOPARAM	F	1.00000E-003	3.60000E+003	&Voltage Finish	 I (A) < 	Max Time(s)
SAMPLETIME	QUANT	1.00000E-002	Sa&mple Period (s)
CHARGESTOPAT1	MULTIPARAM	4	1.00000E+000	Charge Stop At &1	Voltage > Limit	V
CHARGESTOPAT2	MULTIPARAM	0	0.00000E+000	Charge Stop At &2	None	N/A
AESBHCSELECTOR	TOGGLE	F	Save Both Half Cells
IRCOMP	TOGGLE	F	IR &Measure
EOC	QUANT	0	Open Circuit (V)
SEQUENCER	TOGGLE	TRUE	Run as Sequence
PSTATMODEL	IQUANT	53	Pstat Model
PSTATSECTION	LABEL	IFC5000-01520	Pstat Section
PSTATSERIALNO	LABEL	01520	Pstat Serial Number
CTRLMODE	IQUANT	0	Control Mode
ELECTROMETER	IQUANT	1	RE=0 or CS=1
IESTAB	IQUANT	0	I/E Stability
CASPEED	IQUANT	4	Control Amp Speed
CONVENTION	IQUANT	1	Current Convention
ICHRANGE	IQUANT	2	Ich Range
ICHRANGEMODE	TOGGLE	T	Ich Auto Range
ICHOFFSETENABLE	TOGGLE	F	Ich Offset Enable
ICHOFFSET	QUANT	0	Ich Offset (V)
ICHFILTER	IQUANT	1	Ich Filter
VCHRANGE	IQUANT	2	Vch Range
VCHRANGEMODE	TOGGLE	T	Vch Auto Range
VCHOFFSETENABLE	TOGGLE	F	Vch Offset Enable
VCHOFFSET	QUANT	0	Vch Offset (V)
VCHFILTER	IQUANT	1	Vch Filter
IERANGELOWERLIMIT	IQUANT	9	I/E Range Lower Limit
IERANGEMODE	TOGGLE	F	I/E AutoRange
IERANGE	IQUANT	9	I/E Range
ACHSELECT	IQUANT	1	Ach Select
ACHRANGE	IQUANT	2	Ach Range
ACHOFFSETENABLE	TOGGLE	F	Ach Offset Enable
ACHOFFSET	QUANT	0	Ach Offset (V)
ACHFILTER	IQUANT	1	Ach Filter
CABLEID	IQUANT	14	Cable ID
DCCALDATE	LABEL	5-7-2017	DC Calibration Date
ACCALDATE	LABEL	12/3/2015	AC Calibration Date
FRAMEWORKVERSION	QUANT	7.01	Framework Version
INSTRUMENTVERSION	LABEL	4.00	Instrument Version
CURVE	TABLE	39
	Pt	T	Vf	Im	Vu	Pwr	Sig	Ach	Temp	IERange	Over
	#	s	V	A	V	W	V	V	deg C	#	bits
	0	0.013333	5.51164E-001	8.00759E-004	0.00000E+000	4.41349E-004	4.80080E-001	5.51337E-001	3.57450E+000	9	...........
	1	0.026667	5.93963E-001	8.00701E-004	0.00000E+000	4.75587E-004	4.80080E-001	5.94160E-001	3.57450E+000	9	...........
	2	0.04	6.29065E-001	8.00947E-004	0.00000E+000	5.03848E-004	4.80080E-001	6.29199E-001	3.57450E+000	9	...........
	3	0.053333	6.58771E-001	8.00783E-004	0.00000E+000	5.27532E-004	4.80080E-001	6.58942E-001	3.57450E+000	9	...........
	4	0.066667	6.84584E-001	8.00530E-004	0.00000E+000	5.48031E-004	4.80080E-001	6.84742E-001	3.57450E+000	9	...........
	5	0.08	7.07420E-001	8.01022E-004	0.00000E+000	5.66659E-004	4.80080E-001	7.07581E-001	3.57450E+000	9	...........
	6	0.093333	7.27940E-001	8.00944E-004	0.00000E+000	5.83040E-004	4.80080E-001	7.28100E-001	3.57450E+000	9	...........
	7	0.106667	7.46442E-001	8.00883E-004	0.00000E+000	5.97813E-004	4.80080E-001	7.46616E-001	3.57450E+000	9	...........
	8	0.12	7.63359E-001	8.00899E-004	0.00000E+000	6.11373E-004	4.80080E-001	7.63561E-001	3.57450E+000	9	...........
	9	0.133333	7.78919E-001	8.01097E-004	0.00000E+000	6.23990E-004	4.80080E-001	7.79092E-001	3.57450E+000	9	...........
	10	0.146667	7.93316E-001	8.00869E-004	0.00000E+000	6.35342E-004	4.80080E-001	7.93487E-001	3.57450E+000	9	...........
	11	0.16	8.06690E-001	8.00798E-004	0.00000E+000	6.45996E-004	4.80080E-001	8.06866E-001	3.57450E+000	9	...........
	12	0.173333	8.19182E-001	8.01012E-004	0.00000E+000	6.56174E-004	4.80080E-001	8.19368E-001	3.57450E+000	9	...........
	13	0.186667	8.30875E-001	8.00769E-004	0.00000E+000	6.65339E-004	4.80080E-001	8.31058E-001	3.57450E+000	9	...........
	14	0.2	8.41864E-001	8.01006E-004	0.00000E+000	6.74338E-004	4.80080E-001	8.42081E-001	3.57450E+000	9	...........
	15	0.213333	8.52261E-001	8.00818E-004	0.00000E+000	6.82506E-004	4.80080E-001	8.52461E-001	3.57450E+000	9	...........
	16	0.226667	8.62070E-001	8.01070E-004	0.00000E+000	6.90579E-004	4.80080E-001	8.62311E-001	3.57450E+000	9	...........
	17	0.24	8.71415E-001	8.01051E-004	0.00000E+000	6.98048E-004	4.80080E-001	8.71661E-001	3.57450E+000	9	...........
	18	0.253333	8.80268E-001	8.01084E-004	0.00000E+000	7.05168E-004	4.80080E-001	8.80493E-001	3.57450E+000	9	...........
	19	0.266667	8.88707E-001	8.00884E-004	0.00000E+000	7.11751E-004	4.80080E-001	8.88928E-001	3.57450E+000	9	...........
	20	0.28	8.96779E-001	8.01185E-004	0.00000E+000	7.18486E-004	4.80080E-001	8.97005E-001	3.57450E+000	9	...........
	21	0.293333	9.04462E-001	8.00724E-004	0.00000E+000	7.24225E-004	4.80080E-001	9.04735E-001	3.57450E+000	9	...........
	22	0.306667	9.11896E-001	8.00578E-004	0.00000E+000	7.30044E-004	4.80080E-001	9.12120E-001	3.57450E+000	9	...........
	23	0.32	9.19015E-001	8.00837E-004	0.00000E+000	7.35981E-004	4.80080E-001	9.19245E-001	3.57450E+000	9	...........
	24	0.333333	9.25850E-001	8.00647E-004	0.00000E+000	7.41279E-004	4.80080E-001	9.26057E-001	3.57450E+000	9	...........
	25	0.346667	9.32422E-001	8.00838E-004	0.00000E+000	7.46719E-004	4.80080E-001	9.32635E-001	3.57457E+000	9	...........
	26	0.36	9.38686E-001	8.00782E-004	0.00000E+000	7.51682E-004	4.80080E-001	9.38951E-001	3.57510E+000	9	...........
	27	0.373333	9.44767E-001	8.00884E-004	0.00000E+000	7.56648E-004	4.80080E-001	9.45020E-001	3.57510E+000	9	...........
	28	0.386667	9.50668E-001	8.01063E-004	0.00000E+000	7.61545E-004	4.80080E-001	9.50873E-001	3.57510E+000	9	...........
	29	0.4	9.56302E-001	8.01249E-004	0.00000E+000	7.66237E-004	4.80080E-001	9.56520E-001	3.57510E+000	9	...........
	30	0.413333	9.61739E-001	8.00828E-004	0.00000E+000	7.70188E-004	4.80080E-001	9.61991E-001	3.57510E+000	9	...........
	31	0.426667	9.67003E-001	8.01039E-004	0.00000E+000	7.74607E-004	4.80080E-001	9.67246E-001	3.57510E+000	9	...........
	32	0.44	9.72121E-001	8.00851E-004	0.00000E+000	7.78524E-004	4.80080E-001	9.72375E-001	3.57510E+000	9	...........
	33	0.453333	9.77053E-001	8.00937E-004	0.00000E+000	7.82557E-004	4.80080E-001	9.77306E-001	3.57510E+000	9	...........
	34	0.466667	9.81856E-001	8.00690E-004	0.00000E+000	7.86162E-004	4.80080E-001	9.82116E-001	3.57510E+000	9	...........
	35	0.48	9.86494E-001	8.00934E-004	0.00000E+000	7.90116E-004	4.80080E-001	9.86756E-001	3.57510E+000	9	...........
	36	0.493333	9.91014E-001	8.01258E-004	0.00000E+000	7.94058E-004	4.80080E-001	9.91296E-001	3.57510E+000	9	...........
	37	0.506667	9.95337E-001	8.01098E-004	0.00000E+000	7.97363E-004	4.80080E-001	9.95636E-001	3.57510E+000	9	...........
	38	0.516667	9.99082E-001	8.01097E-004	0.00000E+000	8.00362E-004	4.80080E-001	9.99352E-001	3.57510E+000	9	...........
STARTTIMEOFFSET	QUANT	147.8566	Start Time Offset (s)
