EXPLAIN
TAG	PWR800_CHARGE
TITLE	LABEL	PWR Cyclic Charge Discharge (Cell) - Charge Step	Test &Identifier
DATE	LABEL	11-7-2017	Date
TIME	LABEL	13:53:13	Time
NOTES	NOTES	3	&Notes...
	supercap test cell
	0.8mg
	6M KOH
PSTAT	PSTAT	IFC5000-01520	Potentiostat
CAPACITY	QUANT	1.00000E-003	Capacity (A-hr)
CELLTYPE	SELECTOR	1	&Cell Type
WORKINGCONNECTION	SELECTOR	0	&Working Lead
MAXCHARGETIME	VARIABLEANDUNITS	1.00000E+002	s	1.00000E+002	second(s)	Max &Charge Time
CHARGECURRENT	QUANT	8.00000E-004	&Charge Current (A) 
VOLTAGEFINISH	TWOPARAM	F	1.00000E-003	3.60000E+003	&Voltage Finish	 I (A) < 	Max Time(s)
SAMPLETIME	QUANT	1.00000E-002	Sa&mple Period (s)
CHARGESTOPAT1	MULTIPARAM	4	1.00000E+000	Charge Stop At &1	Voltage > Limit	V
CHARGESTOPAT2	MULTIPARAM	0	0.00000E+000	Charge Stop At &2	None	N/A
AESBHCSELECTOR	TOGGLE	F	Save Both Half Cells
IRCOMP	TOGGLE	F	IR &Measure
EOC	QUANT	0	Open Circuit (V)
SEQUENCER	TOGGLE	TRUE	Run as Sequence
PSTATMODEL	IQUANT	53	Pstat Model
PSTATSECTION	LABEL	IFC5000-01520	Pstat Section
PSTATSERIALNO	LABEL	01520	Pstat Serial Number
CTRLMODE	IQUANT	0	Control Mode
ELECTROMETER	IQUANT	1	RE=0 or CS=1
IESTAB	IQUANT	0	I/E Stability
CASPEED	IQUANT	4	Control Amp Speed
CONVENTION	IQUANT	1	Current Convention
ICHRANGE	IQUANT	2	Ich Range
ICHRANGEMODE	TOGGLE	T	Ich Auto Range
ICHOFFSETENABLE	TOGGLE	F	Ich Offset Enable
ICHOFFSET	QUANT	0	Ich Offset (V)
ICHFILTER	IQUANT	1	Ich Filter
VCHRANGE	IQUANT	2	Vch Range
VCHRANGEMODE	TOGGLE	T	Vch Auto Range
VCHOFFSETENABLE	TOGGLE	F	Vch Offset Enable
VCHOFFSET	QUANT	0	Vch Offset (V)
VCHFILTER	IQUANT	1	Vch Filter
IERANGELOWERLIMIT	IQUANT	9	I/E Range Lower Limit
IERANGEMODE	TOGGLE	F	I/E AutoRange
IERANGE	IQUANT	9	I/E Range
ACHSELECT	IQUANT	1	Ach Select
ACHRANGE	IQUANT	2	Ach Range
ACHOFFSETENABLE	TOGGLE	F	Ach Offset Enable
ACHOFFSET	QUANT	0	Ach Offset (V)
ACHFILTER	IQUANT	1	Ach Filter
CABLEID	IQUANT	14	Cable ID
DCCALDATE	LABEL	5-7-2017	DC Calibration Date
ACCALDATE	LABEL	12/3/2015	AC Calibration Date
FRAMEWORKVERSION	QUANT	7.01	Framework Version
INSTRUMENTVERSION	LABEL	4.00	Instrument Version
CURVE	TABLE	40
	Pt	T	Vf	Im	Vu	Pwr	Sig	Ach	Temp	IERange	Over
	#	s	V	A	V	W	V	V	deg C	#	bits
	0	0.013333	5.53994E-001	8.00617E-004	0.00000E+000	4.43537E-004	4.80080E-001	5.54167E-001	3.57550E+000	9	...........
	1	0.026667	5.96363E-001	8.00562E-004	0.00000E+000	4.77425E-004	4.80080E-001	5.96585E-001	3.57550E+000	9	...........
	2	0.04	6.31073E-001	8.00884E-004	0.00000E+000	5.05416E-004	4.80080E-001	6.31266E-001	3.57550E+000	9	...........
	3	0.053333	6.60458E-001	8.01063E-004	0.00000E+000	5.29068E-004	4.80080E-001	6.60639E-001	3.57550E+000	9	...........
	4	0.066667	6.85966E-001	8.00558E-004	0.00000E+000	5.49155E-004	4.80080E-001	6.86167E-001	3.57550E+000	9	...........
	5	0.08	7.08528E-001	8.00778E-004	0.00000E+000	5.67374E-004	4.80080E-001	7.08714E-001	3.57550E+000	9	...........
	6	0.093333	7.28741E-001	8.00940E-004	0.00000E+000	5.83678E-004	4.80080E-001	7.28945E-001	3.57550E+000	9	...........
	7	0.106667	7.47046E-001	8.00874E-004	0.00000E+000	5.98290E-004	4.80080E-001	7.47249E-001	3.57550E+000	9	...........
	8	0.12	7.63771E-001	8.00699E-004	0.00000E+000	6.11551E-004	4.80080E-001	7.63965E-001	3.57550E+000	9	...........
	9	0.133333	7.79153E-001	8.00784E-004	0.00000E+000	6.23933E-004	4.80080E-001	7.79334E-001	3.57550E+000	9	...........
	10	0.146667	7.93350E-001	8.00882E-004	0.00000E+000	6.35379E-004	4.80080E-001	7.93554E-001	3.57550E+000	9	...........
	11	0.16	8.06565E-001	8.00868E-004	0.00000E+000	6.45952E-004	4.80080E-001	8.06772E-001	3.57550E+000	9	...........
	12	0.173333	8.18895E-001	8.01108E-004	0.00000E+000	6.56023E-004	4.80080E-001	8.19148E-001	3.57550E+000	9	...........
	13	0.186667	8.30450E-001	8.00908E-004	0.00000E+000	6.65113E-004	4.80080E-001	8.30690E-001	3.57550E+000	9	...........
	14	0.2	8.41345E-001	8.00816E-004	0.00000E+000	6.73762E-004	4.80080E-001	8.41597E-001	3.57550E+000	9	...........
	15	0.213333	8.51651E-001	8.00988E-004	0.00000E+000	6.82162E-004	4.80080E-001	8.51903E-001	3.57550E+000	9	...........
	16	0.226667	8.61396E-001	8.00857E-004	0.00000E+000	6.89855E-004	4.80080E-001	8.61659E-001	3.57550E+000	9	...........
	17	0.24	8.70689E-001	8.00745E-004	0.00000E+000	6.97200E-004	4.80080E-001	8.70943E-001	3.57550E+000	9	...........
	18	0.253333	8.79496E-001	8.00728E-004	0.00000E+000	7.04238E-004	4.80080E-001	8.79742E-001	3.57550E+000	9	...........
	19	0.266667	8.87897E-001	8.01088E-004	0.00000E+000	7.11284E-004	4.80080E-001	8.88126E-001	3.57550E+000	9	...........
	20	0.28	8.95851E-001	8.00683E-004	0.00000E+000	7.17292E-004	4.80080E-001	8.96107E-001	3.57550E+000	9	...........
	21	0.293333	9.03517E-001	8.00461E-004	0.00000E+000	7.23229E-004	4.80080E-001	9.03800E-001	3.57550E+000	9	...........
	22	0.306667	9.10862E-001	8.01236E-004	0.00000E+000	7.29815E-004	4.80080E-001	9.11134E-001	3.57550E+000	9	...........
	23	0.32	9.17914E-001	8.01167E-004	0.00000E+000	7.35403E-004	4.80080E-001	9.18185E-001	3.57550E+000	9	...........
	24	0.333333	9.24717E-001	8.01168E-004	0.00000E+000	7.40854E-004	4.80080E-001	9.24953E-001	3.57550E+000	9	...........
	25	0.346667	9.31251E-001	8.01052E-004	0.00000E+000	7.45981E-004	4.80080E-001	9.31465E-001	3.57550E+000	9	...........
	26	0.36	9.37497E-001	8.00995E-004	0.00000E+000	7.50930E-004	4.80080E-001	9.37733E-001	3.57550E+000	9	...........
	27	0.373333	9.43540E-001	8.01246E-004	0.00000E+000	7.56008E-004	4.80080E-001	9.43793E-001	3.57550E+000	9	...........
	28	0.386667	9.49422E-001	8.00916E-004	0.00000E+000	7.60408E-004	4.80080E-001	9.49640E-001	3.57550E+000	9	...........
	29	0.4	9.55033E-001	8.00810E-004	0.00000E+000	7.64800E-004	4.80080E-001	9.55261E-001	3.57550E+000	9	...........
	30	0.413333	9.60463E-001	8.01260E-004	0.00000E+000	7.69580E-004	4.80080E-001	9.60698E-001	3.57550E+000	9	...........
	31	0.426667	9.65698E-001	8.00966E-004	0.00000E+000	7.73492E-004	4.80080E-001	9.65944E-001	3.57550E+000	9	...........
	32	0.44	9.70809E-001	8.00590E-004	0.00000E+000	7.77220E-004	4.80080E-001	9.71074E-001	3.57550E+000	9	...........
	33	0.453333	9.75780E-001	8.00953E-004	0.00000E+000	7.81554E-004	4.80080E-001	9.76015E-001	3.57550E+000	9	...........
	34	0.466667	9.80521E-001	8.01066E-004	0.00000E+000	7.85462E-004	4.80080E-001	9.80779E-001	3.57550E+000	9	...........
	35	0.48	9.85116E-001	8.00882E-004	0.00000E+000	7.88961E-004	4.80080E-001	9.85394E-001	3.57550E+000	9	...........
	36	0.493333	9.89593E-001	8.01099E-004	0.00000E+000	7.92763E-004	4.80080E-001	9.89860E-001	3.57550E+000	9	...........
	37	0.506667	9.93899E-001	8.01157E-004	0.00000E+000	7.96269E-004	4.80080E-001	9.94156E-001	3.57550E+000	9	...........
	38	0.52	9.98090E-001	8.00652E-004	0.00000E+000	7.99123E-004	4.80080E-001	9.98361E-001	3.57550E+000	9	...........
	39	0.521667	1.00038E+000	8.01844E-004	0.00000E+000	8.02146E-004	4.80080E-001	1.00068E+000	3.57550E+000	9	...........
STARTTIMEOFFSET	QUANT	138.0033	Start Time Offset (s)
