EXPLAIN
TAG	PWR800_CHARGE
TITLE	LABEL	PWR Cyclic Charge Discharge (Cell) - Charge Step	Test &Identifier
DATE	LABEL	11-7-2017	Date
TIME	LABEL	13:53:52	Time
NOTES	NOTES	3	&Notes...
	supercap test cell
	0.8mg
	6M KOH
PSTAT	PSTAT	IFC5000-01520	Potentiostat
CAPACITY	QUANT	1.00000E-003	Capacity (A-hr)
CELLTYPE	SELECTOR	1	&Cell Type
WORKINGCONNECTION	SELECTOR	0	&Working Lead
MAXCHARGETIME	VARIABLEANDUNITS	1.00000E+002	s	1.00000E+002	second(s)	Max &Charge Time
CHARGECURRENT	QUANT	8.00000E-004	&Charge Current (A) 
VOLTAGEFINISH	TWOPARAM	F	1.00000E-003	3.60000E+003	&Voltage Finish	 I (A) < 	Max Time(s)
SAMPLETIME	QUANT	1.00000E-002	Sa&mple Period (s)
CHARGESTOPAT1	MULTIPARAM	4	1.00000E+000	Charge Stop At &1	Voltage > Limit	V
CHARGESTOPAT2	MULTIPARAM	0	0.00000E+000	Charge Stop At &2	None	N/A
AESBHCSELECTOR	TOGGLE	F	Save Both Half Cells
IRCOMP	TOGGLE	F	IR &Measure
EOC	QUANT	0	Open Circuit (V)
SEQUENCER	TOGGLE	TRUE	Run as Sequence
PSTATMODEL	IQUANT	53	Pstat Model
PSTATSECTION	LABEL	IFC5000-01520	Pstat Section
PSTATSERIALNO	LABEL	01520	Pstat Serial Number
CTRLMODE	IQUANT	0	Control Mode
ELECTROMETER	IQUANT	1	RE=0 or CS=1
IESTAB	IQUANT	0	I/E Stability
CASPEED	IQUANT	4	Control Amp Speed
CONVENTION	IQUANT	1	Current Convention
ICHRANGE	IQUANT	2	Ich Range
ICHRANGEMODE	TOGGLE	T	Ich Auto Range
ICHOFFSETENABLE	TOGGLE	F	Ich Offset Enable
ICHOFFSET	QUANT	0	Ich Offset (V)
ICHFILTER	IQUANT	1	Ich Filter
VCHRANGE	IQUANT	2	Vch Range
VCHRANGEMODE	TOGGLE	T	Vch Auto Range
VCHOFFSETENABLE	TOGGLE	F	Vch Offset Enable
VCHOFFSET	QUANT	0	Vch Offset (V)
VCHFILTER	IQUANT	1	Vch Filter
IERANGELOWERLIMIT	IQUANT	9	I/E Range Lower Limit
IERANGEMODE	TOGGLE	F	I/E AutoRange
IERANGE	IQUANT	9	I/E Range
ACHSELECT	IQUANT	1	Ach Select
ACHRANGE	IQUANT	2	Ach Range
ACHOFFSETENABLE	TOGGLE	F	Ach Offset Enable
ACHOFFSET	QUANT	0	Ach Offset (V)
ACHFILTER	IQUANT	1	Ach Filter
CABLEID	IQUANT	14	Cable ID
DCCALDATE	LABEL	5-7-2017	DC Calibration Date
ACCALDATE	LABEL	12/3/2015	AC Calibration Date
FRAMEWORKVERSION	QUANT	7.01	Framework Version
INSTRUMENTVERSION	LABEL	4.00	Instrument Version
CURVE	TABLE	39
	Pt	T	Vf	Im	Vu	Pwr	Sig	Ach	Temp	IERange	Over
	#	s	V	A	V	W	V	V	deg C	#	bits
	0	0.013333	5.53038E-001	8.00907E-004	0.00000E+000	4.42932E-004	4.80080E-001	5.53174E-001	3.57420E+000	9	...........
	1	0.026667	5.95789E-001	8.00969E-004	0.00000E+000	4.77209E-004	4.80080E-001	5.95945E-001	3.57420E+000	9	...........
	2	0.04	6.30856E-001	8.00624E-004	0.00000E+000	5.05078E-004	4.80080E-001	6.31006E-001	3.57420E+000	9	...........
	3	0.053333	6.60596E-001	8.00915E-004	0.00000E+000	5.29081E-004	4.80080E-001	6.60728E-001	3.57420E+000	9	...........
	4	0.066667	6.86425E-001	8.00911E-004	0.00000E+000	5.49765E-004	4.80080E-001	6.86570E-001	3.57420E+000	9	...........
	5	0.08	7.09282E-001	8.00779E-004	0.00000E+000	5.67979E-004	4.80080E-001	7.09449E-001	3.57420E+000	9	...........
	6	0.093333	7.29794E-001	8.00839E-004	0.00000E+000	5.84447E-004	4.80080E-001	7.29945E-001	3.57420E+000	9	...........
	7	0.106667	7.48316E-001	8.01096E-004	0.00000E+000	5.99473E-004	4.80080E-001	7.48499E-001	3.57420E+000	9	...........
	8	0.12	7.65239E-001	8.01111E-004	0.00000E+000	6.13041E-004	4.80080E-001	7.65426E-001	3.57420E+000	9	...........
	9	0.133333	7.80796E-001	8.00618E-004	0.00000E+000	6.25119E-004	4.80080E-001	7.81009E-001	3.57420E+000	9	...........
	10	0.146667	7.95197E-001	8.00957E-004	0.00000E+000	6.36918E-004	4.80080E-001	7.95382E-001	3.57420E+000	9	...........
	11	0.16	8.08580E-001	8.00559E-004	0.00000E+000	6.47316E-004	4.80080E-001	8.08813E-001	3.57420E+000	9	...........
	12	0.173333	8.21095E-001	8.01073E-004	0.00000E+000	6.57757E-004	4.80080E-001	8.21352E-001	3.57420E+000	9	...........
	13	0.186667	8.32823E-001	8.01186E-004	0.00000E+000	6.67246E-004	4.80080E-001	8.33066E-001	3.57420E+000	9	...........
	14	0.2	8.43828E-001	8.00804E-004	0.00000E+000	6.75741E-004	4.80080E-001	8.44097E-001	3.57420E+000	9	...........
	15	0.213333	8.54266E-001	8.01001E-004	0.00000E+000	6.84268E-004	4.80080E-001	8.54517E-001	3.57420E+000	9	...........
	16	0.226667	8.64075E-001	8.00927E-004	0.00000E+000	6.92061E-004	4.80080E-001	8.64329E-001	3.57420E+000	9	...........
	17	0.24	8.73443E-001	8.00843E-004	0.00000E+000	6.99491E-004	4.80080E-001	8.73697E-001	3.57420E+000	9	...........
	18	0.253333	8.82338E-001	8.00869E-004	0.00000E+000	7.06637E-004	4.80080E-001	8.82564E-001	3.57420E+000	9	...........
	19	0.266667	8.90752E-001	8.01176E-004	0.00000E+000	7.13649E-004	4.80080E-001	8.90970E-001	3.57420E+000	9	...........
	20	0.28	8.98829E-001	8.00997E-004	0.00000E+000	7.19959E-004	4.80080E-001	8.99054E-001	3.57420E+000	9	...........
	21	0.293333	9.06548E-001	8.00871E-004	0.00000E+000	7.26028E-004	4.80080E-001	9.06782E-001	3.57420E+000	9	...........
	22	0.306667	9.13952E-001	8.00859E-004	0.00000E+000	7.31946E-004	4.80080E-001	9.14188E-001	3.57420E+000	9	...........
	23	0.32	9.21089E-001	8.00853E-004	0.00000E+000	7.37658E-004	4.80080E-001	9.21319E-001	3.57420E+000	9	...........
	24	0.333333	9.27921E-001	8.01035E-004	0.00000E+000	7.43297E-004	4.80080E-001	9.28143E-001	3.57420E+000	9	...........
	25	0.346667	9.34479E-001	8.00908E-004	0.00000E+000	7.48432E-004	4.80080E-001	9.34694E-001	3.57440E+000	9	...........
	26	0.36	9.40747E-001	8.01026E-004	0.00000E+000	7.53563E-004	4.80080E-001	9.40984E-001	3.57460E+000	9	...........
	27	0.373333	9.46818E-001	8.01324E-004	0.00000E+000	7.58708E-004	4.80080E-001	9.47024E-001	3.57460E+000	9	...........
	28	0.386667	9.52639E-001	8.00643E-004	0.00000E+000	7.62723E-004	4.80080E-001	9.52845E-001	3.57460E+000	9	...........
	29	0.4	9.58266E-001	8.00847E-004	0.00000E+000	7.67424E-004	4.80080E-001	9.58483E-001	3.57460E+000	9	...........
	30	0.413333	9.63733E-001	8.00895E-004	0.00000E+000	7.71849E-004	4.80080E-001	9.63946E-001	3.57460E+000	9	...........
	31	0.426667	9.68935E-001	8.00913E-004	0.00000E+000	7.76032E-004	4.80080E-001	9.69190E-001	3.57460E+000	9	...........
	32	0.44	9.74039E-001	8.00783E-004	0.00000E+000	7.79993E-004	4.80080E-001	9.74311E-001	3.57460E+000	9	...........
	33	0.453333	9.78939E-001	8.00933E-004	0.00000E+000	7.84065E-004	4.80080E-001	9.79229E-001	3.57460E+000	9	...........
	34	0.466667	9.83720E-001	8.00912E-004	0.00000E+000	7.87873E-004	4.80080E-001	9.83966E-001	3.57460E+000	9	...........
	35	0.48	9.88335E-001	8.00719E-004	0.00000E+000	7.91379E-004	4.80080E-001	9.88602E-001	3.57460E+000	9	...........
	36	0.493333	9.92786E-001	8.01207E-004	0.00000E+000	7.95427E-004	4.80080E-001	9.93072E-001	3.57460E+000	9	...........
	37	0.506667	9.97125E-001	8.01072E-004	0.00000E+000	7.98769E-004	4.80080E-001	9.97404E-001	3.57460E+000	9	...........
	38	0.51	9.99756E-001	8.01411E-004	0.00000E+000	8.01215E-004	4.80080E-001	1.00006E+000	3.57460E+000	9	...........
STARTTIMEOFFSET	QUANT	158.5249	Start Time Offset (s)
