EXPLAIN
TAG	PWR800_CHARGE
TITLE	LABEL	PWR Cyclic Charge Discharge (Cell) - Charge Step	Test &Identifier
DATE	LABEL	11-7-2017	Date
TIME	LABEL	13:49:58	Time
NOTES	NOTES	3	&Notes...
	supercap test cell
	0.8mg
	6M KOH
PSTAT	PSTAT	IFC5000-01520	Potentiostat
CAPACITY	QUANT	1.00000E-003	Capacity (A-hr)
CELLTYPE	SELECTOR	1	&Cell Type
WORKINGCONNECTION	SELECTOR	0	&Working Lead
MAXCHARGETIME	VARIABLEANDUNITS	1.00000E+002	s	1.00000E+002	second(s)	Max &Charge Time
CHARGECURRENT	QUANT	8.00000E-004	&Charge Current (A) 
VOLTAGEFINISH	TWOPARAM	F	1.00000E-003	3.60000E+003	&Voltage Finish	 I (A) < 	Max Time(s)
SAMPLETIME	QUANT	1.00000E-002	Sa&mple Period (s)
CHARGESTOPAT1	MULTIPARAM	4	1.00000E+000	Charge Stop At &1	Voltage > Limit	V
CHARGESTOPAT2	MULTIPARAM	0	0.00000E+000	Charge Stop At &2	None	N/A
AESBHCSELECTOR	TOGGLE	F	Save Both Half Cells
IRCOMP	TOGGLE	F	IR &Measure
EOC	QUANT	0	Open Circuit (V)
SEQUENCER	TOGGLE	TRUE	Run as Sequence
PSTATMODEL	IQUANT	53	Pstat Model
PSTATSECTION	LABEL	IFC5000-01520	Pstat Section
PSTATSERIALNO	LABEL	01520	Pstat Serial Number
CTRLMODE	IQUANT	0	Control Mode
ELECTROMETER	IQUANT	1	RE=0 or CS=1
IESTAB	IQUANT	0	I/E Stability
CASPEED	IQUANT	4	Control Amp Speed
CONVENTION	IQUANT	1	Current Convention
ICHRANGE	IQUANT	2	Ich Range
ICHRANGEMODE	TOGGLE	T	Ich Auto Range
ICHOFFSETENABLE	TOGGLE	F	Ich Offset Enable
ICHOFFSET	QUANT	0	Ich Offset (V)
ICHFILTER	IQUANT	1	Ich Filter
VCHRANGE	IQUANT	2	Vch Range
VCHRANGEMODE	TOGGLE	T	Vch Auto Range
VCHOFFSETENABLE	TOGGLE	F	Vch Offset Enable
VCHOFFSET	QUANT	0	Vch Offset (V)
VCHFILTER	IQUANT	1	Vch Filter
IERANGELOWERLIMIT	IQUANT	9	I/E Range Lower Limit
IERANGEMODE	TOGGLE	F	I/E AutoRange
IERANGE	IQUANT	9	I/E Range
ACHSELECT	IQUANT	1	Ach Select
ACHRANGE	IQUANT	2	Ach Range
ACHOFFSETENABLE	TOGGLE	F	Ach Offset Enable
ACHOFFSET	QUANT	0	Ach Offset (V)
ACHFILTER	IQUANT	1	Ach Filter
CABLEID	IQUANT	14	Cable ID
DCCALDATE	LABEL	5-7-2017	DC Calibration Date
ACCALDATE	LABEL	12/3/2015	AC Calibration Date
FRAMEWORKVERSION	QUANT	7.01	Framework Version
INSTRUMENTVERSION	LABEL	4.00	Instrument Version
CURVE	TABLE	47
	Pt	T	Vf	Im	Vu	Pwr	Sig	Ach	Temp	IERange	Over
	#	s	V	A	V	W	V	V	deg C	#	bits
	0	0.013333	5.61224E-001	8.00933E-004	0.00000E+000	4.49502E-004	4.80080E-001	5.61390E-001	3.57510E+000	9	...........
	1	0.026667	6.00909E-001	8.01029E-004	0.00000E+000	4.81345E-004	4.80080E-001	6.01080E-001	3.57510E+000	9	...........
	2	0.04	6.33087E-001	8.00895E-004	0.00000E+000	5.07036E-004	4.80080E-001	6.33244E-001	3.57510E+000	9	...........
	3	0.053333	6.60169E-001	8.00873E-004	0.00000E+000	5.28712E-004	4.80080E-001	6.60327E-001	3.57510E+000	9	...........
	4	0.066667	6.83540E-001	8.00973E-004	0.00000E+000	5.47497E-004	4.80080E-001	6.83705E-001	3.57510E+000	9	...........
	5	0.08	7.04139E-001	8.01302E-004	0.00000E+000	5.64228E-004	4.80080E-001	7.04319E-001	3.57510E+000	9	...........
	6	0.093333	7.22538E-001	8.00907E-004	0.00000E+000	5.78686E-004	4.80080E-001	7.22720E-001	3.57510E+000	9	...........
	7	0.106667	7.39171E-001	8.01251E-004	0.00000E+000	5.92262E-004	4.80080E-001	7.39373E-001	3.57510E+000	9	...........
	8	0.12	7.54383E-001	8.00870E-004	0.00000E+000	6.04163E-004	4.80080E-001	7.54557E-001	3.57510E+000	9	...........
	9	0.133333	7.68354E-001	8.00922E-004	0.00000E+000	6.15392E-004	4.80080E-001	7.68564E-001	3.57510E+000	9	...........
	10	0.146667	7.81329E-001	8.00784E-004	0.00000E+000	6.25675E-004	4.80080E-001	7.81500E-001	3.57510E+000	9	...........
	11	0.16	7.93392E-001	8.01075E-004	0.00000E+000	6.35567E-004	4.80080E-001	7.93554E-001	3.57510E+000	9	...........
	12	0.173333	8.04646E-001	8.01272E-004	0.00000E+000	6.44741E-004	4.80080E-001	8.04833E-001	3.57510E+000	9	...........
	13	0.186667	8.15193E-001	8.01009E-004	0.00000E+000	6.52976E-004	4.80080E-001	8.15391E-001	3.57510E+000	9	...........
	14	0.2	8.25154E-001	8.00911E-004	0.00000E+000	6.60875E-004	4.80080E-001	8.25331E-001	3.57510E+000	9	...........
	15	0.213333	8.34519E-001	8.00788E-004	0.00000E+000	6.68272E-004	4.80080E-001	8.34757E-001	3.57510E+000	9	...........
	16	0.226667	8.43438E-001	8.00865E-004	0.00000E+000	6.75480E-004	4.80080E-001	8.43661E-001	3.57510E+000	9	...........
	17	0.24	8.51976E-001	8.01130E-004	0.00000E+000	6.82543E-004	4.80080E-001	8.52186E-001	3.57510E+000	9	...........
	18	0.253333	8.60029E-001	8.00771E-004	0.00000E+000	6.88687E-004	4.80080E-001	8.60269E-001	3.57510E+000	9	...........
	19	0.266667	8.67778E-001	8.00959E-004	0.00000E+000	6.95055E-004	4.80080E-001	8.68026E-001	3.57510E+000	9	...........
	20	0.28	8.75222E-001	8.00872E-004	0.00000E+000	7.00941E-004	4.80080E-001	8.75443E-001	3.57510E+000	9	...........
	21	0.293333	8.82294E-001	8.00900E-004	0.00000E+000	7.06629E-004	4.80080E-001	8.82554E-001	3.57510E+000	9	...........
	22	0.306667	8.89164E-001	8.01025E-004	0.00000E+000	7.12243E-004	4.80080E-001	8.89377E-001	3.57510E+000	9	...........
	23	0.32	8.95765E-001	8.00942E-004	0.00000E+000	7.17456E-004	4.80080E-001	8.95992E-001	3.57510E+000	9	...........
	24	0.333333	9.02085E-001	8.00864E-004	0.00000E+000	7.22447E-004	4.80080E-001	9.02297E-001	3.57510E+000	9	...........
	25	0.346667	9.08171E-001	8.01179E-004	0.00000E+000	7.27607E-004	4.80080E-001	9.08408E-001	3.57510E+000	9	...........
	26	0.36	9.14054E-001	8.00800E-004	0.00000E+000	7.31975E-004	4.80080E-001	9.14280E-001	3.57510E+000	9	...........
	27	0.373333	9.19741E-001	8.01034E-004	0.00000E+000	7.36744E-004	4.80080E-001	9.19968E-001	3.57510E+000	9	...........
	28	0.386667	9.25266E-001	8.00983E-004	0.00000E+000	7.41122E-004	4.80080E-001	9.25494E-001	3.57510E+000	9	...........
	29	0.4	9.30620E-001	8.00907E-004	0.00000E+000	7.45340E-004	4.80080E-001	9.30815E-001	3.57510E+000	9	...........
	30	0.413333	9.35764E-001	8.00732E-004	0.00000E+000	7.49295E-004	4.80080E-001	9.35977E-001	3.57510E+000	9	...........
	31	0.426667	9.40713E-001	8.01189E-004	0.00000E+000	7.53689E-004	4.80080E-001	9.40929E-001	3.57510E+000	9	...........
	32	0.44	9.45548E-001	8.00762E-004	0.00000E+000	7.57159E-004	4.80080E-001	9.45765E-001	3.57510E+000	9	...........
	33	0.453333	9.50280E-001	8.00810E-004	0.00000E+000	7.60994E-004	4.80080E-001	9.50505E-001	3.57510E+000	9	...........
	34	0.466667	9.54839E-001	8.00983E-004	0.00000E+000	7.64810E-004	4.80080E-001	9.55048E-001	3.57510E+000	9	...........
	35	0.48	9.59218E-001	8.00996E-004	0.00000E+000	7.68330E-004	4.80080E-001	9.59450E-001	3.57510E+000	9	...........
	36	0.493333	9.63475E-001	8.01038E-004	0.00000E+000	7.71780E-004	4.80080E-001	9.63735E-001	3.57510E+000	9	...........
	37	0.506667	9.67643E-001	8.00949E-004	0.00000E+000	7.75033E-004	4.80080E-001	9.67879E-001	3.57510E+000	9	...........
	38	0.52	9.71704E-001	8.00822E-004	0.00000E+000	7.78162E-004	4.80080E-001	9.71965E-001	3.57510E+000	9	...........
	39	0.533333	9.75668E-001	8.01313E-004	0.00000E+000	7.81816E-004	4.80080E-001	9.75924E-001	3.57510E+000	9	...........
	40	0.546667	9.79477E-001	8.01055E-004	0.00000E+000	7.84615E-004	4.80080E-001	9.79729E-001	3.57510E+000	9	...........
	41	0.56	9.83184E-001	8.00913E-004	0.00000E+000	7.87444E-004	4.80080E-001	9.83426E-001	3.57510E+000	9	...........
	42	0.573333	9.86804E-001	8.01322E-004	0.00000E+000	7.90748E-004	4.80080E-001	9.87037E-001	3.57510E+000	9	...........
	43	0.586667	9.90301E-001	8.01070E-004	0.00000E+000	7.93301E-004	4.80080E-001	9.90546E-001	3.57510E+000	9	...........
	44	0.6	9.93711E-001	8.00897E-004	0.00000E+000	7.95861E-004	4.80080E-001	9.93942E-001	3.57510E+000	9	...........
	45	0.613333	9.97000E-001	8.01161E-004	0.00000E+000	7.98757E-004	4.80080E-001	9.97261E-001	3.57510E+000	9	...........
	46	0.62	9.99426E-001	8.00936E-004	0.00000E+000	8.00476E-004	4.80080E-001	9.99697E-001	3.57510E+000	9	...........
STARTTIMEOFFSET	QUANT	32	Start Time Offset (s)
