EXPLAIN
TAG	PWR800_CHARGE
TITLE	LABEL	PWR Cyclic Charge Discharge (Cell) - Charge Step	Test &Identifier
DATE	LABEL	11-7-2017	Date
TIME	LABEL	13:52:02	Time
NOTES	NOTES	3	&Notes...
	supercap test cell
	0.8mg
	6M KOH
PSTAT	PSTAT	IFC5000-01520	Potentiostat
CAPACITY	QUANT	1.00000E-003	Capacity (A-hr)
CELLTYPE	SELECTOR	1	&Cell Type
WORKINGCONNECTION	SELECTOR	0	&Working Lead
MAXCHARGETIME	VARIABLEANDUNITS	1.00000E+002	s	1.00000E+002	second(s)	Max &Charge Time
CHARGECURRENT	QUANT	8.00000E-004	&Charge Current (A) 
VOLTAGEFINISH	TWOPARAM	F	1.00000E-003	3.60000E+003	&Voltage Finish	 I (A) < 	Max Time(s)
SAMPLETIME	QUANT	1.00000E-002	Sa&mple Period (s)
CHARGESTOPAT1	MULTIPARAM	4	1.00000E+000	Charge Stop At &1	Voltage > Limit	V
CHARGESTOPAT2	MULTIPARAM	0	0.00000E+000	Charge Stop At &2	None	N/A
AESBHCSELECTOR	TOGGLE	F	Save Both Half Cells
IRCOMP	TOGGLE	F	IR &Measure
EOC	QUANT	0	Open Circuit (V)
SEQUENCER	TOGGLE	TRUE	Run as Sequence
PSTATMODEL	IQUANT	53	Pstat Model
PSTATSECTION	LABEL	IFC5000-01520	Pstat Section
PSTATSERIALNO	LABEL	01520	Pstat Serial Number
CTRLMODE	IQUANT	0	Control Mode
ELECTROMETER	IQUANT	1	RE=0 or CS=1
IESTAB	IQUANT	0	I/E Stability
CASPEED	IQUANT	4	Control Amp Speed
CONVENTION	IQUANT	1	Current Convention
ICHRANGE	IQUANT	2	Ich Range
ICHRANGEMODE	TOGGLE	T	Ich Auto Range
ICHOFFSETENABLE	TOGGLE	F	Ich Offset Enable
ICHOFFSET	QUANT	0	Ich Offset (V)
ICHFILTER	IQUANT	1	Ich Filter
VCHRANGE	IQUANT	2	Vch Range
VCHRANGEMODE	TOGGLE	T	Vch Auto Range
VCHOFFSETENABLE	TOGGLE	F	Vch Offset Enable
VCHOFFSET	QUANT	0	Vch Offset (V)
VCHFILTER	IQUANT	1	Vch Filter
IERANGELOWERLIMIT	IQUANT	9	I/E Range Lower Limit
IERANGEMODE	TOGGLE	F	I/E AutoRange
IERANGE	IQUANT	9	I/E Range
ACHSELECT	IQUANT	1	Ach Select
ACHRANGE	IQUANT	2	Ach Range
ACHOFFSETENABLE	TOGGLE	F	Ach Offset Enable
ACHOFFSET	QUANT	0	Ach Offset (V)
ACHFILTER	IQUANT	1	Ach Filter
CABLEID	IQUANT	14	Cable ID
DCCALDATE	LABEL	5-7-2017	DC Calibration Date
ACCALDATE	LABEL	12/3/2015	AC Calibration Date
FRAMEWORKVERSION	QUANT	7.01	Framework Version
INSTRUMENTVERSION	LABEL	4.00	Instrument Version
CURVE	TABLE	42
	Pt	T	Vf	Im	Vu	Pwr	Sig	Ach	Temp	IERange	Over
	#	s	V	A	V	W	V	V	deg C	#	bits
	0	0.013333	5.50701E-001	8.00536E-004	0.00000E+000	4.40856E-004	4.80080E-001	5.50880E-001	3.57450E+000	9	...........
	1	0.026667	5.92613E-001	8.00838E-004	0.00000E+000	4.74587E-004	4.80080E-001	5.92812E-001	3.57450E+000	9	...........
	2	0.04	6.26891E-001	8.00782E-004	0.00000E+000	5.02002E-004	4.80080E-001	6.27063E-001	3.57540E+000	9	...........
	3	0.053333	6.55853E-001	8.00747E-004	0.00000E+000	5.25172E-004	4.80080E-001	6.56059E-001	3.57540E+000	9	...........
	4	0.066667	6.80974E-001	8.00937E-004	0.00000E+000	5.45417E-004	4.80080E-001	6.81165E-001	3.57540E+000	9	...........
	5	0.08	7.03163E-001	8.01257E-004	0.00000E+000	5.63414E-004	4.80080E-001	7.03357E-001	3.57540E+000	9	...........
	6	0.093333	7.23071E-001	8.00716E-004	0.00000E+000	5.78975E-004	4.80080E-001	7.23258E-001	3.57540E+000	9	...........
	7	0.106667	7.41044E-001	8.01197E-004	0.00000E+000	5.93722E-004	4.80080E-001	7.41226E-001	3.57540E+000	9	...........
	8	0.12	7.57448E-001	8.00893E-004	0.00000E+000	6.06635E-004	4.80080E-001	7.57617E-001	3.57540E+000	9	...........
	9	0.133333	7.72552E-001	8.00642E-004	0.00000E+000	6.18537E-004	4.80080E-001	7.72741E-001	3.57540E+000	9	...........
	10	0.146667	7.86565E-001	8.01000E-004	0.00000E+000	6.30039E-004	4.80080E-001	7.86757E-001	3.57540E+000	9	...........
	11	0.16	7.99591E-001	8.01190E-004	0.00000E+000	6.40624E-004	4.80080E-001	7.99767E-001	3.57540E+000	9	...........
	12	0.173333	8.11746E-001	8.01146E-004	0.00000E+000	6.50328E-004	4.80080E-001	8.11922E-001	3.57540E+000	9	...........
	13	0.186667	8.23152E-001	8.00788E-004	0.00000E+000	6.59170E-004	4.80080E-001	8.23351E-001	3.57540E+000	9	...........
	14	0.2	8.33842E-001	8.01035E-004	0.00000E+000	6.67936E-004	4.80080E-001	8.34058E-001	3.57540E+000	9	...........
	15	0.213333	8.43990E-001	8.00963E-004	0.00000E+000	6.76004E-004	4.80080E-001	8.44203E-001	3.57540E+000	9	...........
	16	0.226667	8.53608E-001	8.00939E-004	0.00000E+000	6.83688E-004	4.80080E-001	8.53822E-001	3.57540E+000	9	...........
	17	0.24	8.62738E-001	8.01032E-004	0.00000E+000	6.91080E-004	4.80080E-001	8.62987E-001	3.57540E+000	9	...........
	18	0.253333	8.71465E-001	8.00804E-004	0.00000E+000	6.97873E-004	4.80080E-001	8.71699E-001	3.57540E+000	9	...........
	19	0.266667	8.79749E-001	8.00953E-004	0.00000E+000	7.04638E-004	4.80080E-001	8.80011E-001	3.57540E+000	9	...........
	20	0.28	8.87692E-001	8.01148E-004	0.00000E+000	7.11173E-004	4.80080E-001	8.87929E-001	3.57540E+000	9	...........
	21	0.293333	8.95270E-001	8.00924E-004	0.00000E+000	7.17043E-004	4.80080E-001	8.95510E-001	3.57540E+000	9	...........
	22	0.306667	9.02543E-001	8.00812E-004	0.00000E+000	7.22767E-004	4.80080E-001	9.02779E-001	3.57540E+000	9	...........
	23	0.32	9.09553E-001	8.01089E-004	0.00000E+000	7.28632E-004	4.80080E-001	9.09778E-001	3.57540E+000	9	...........
	24	0.333333	9.16299E-001	8.01100E-004	0.00000E+000	7.34047E-004	4.80080E-001	9.16533E-001	3.57540E+000	9	...........
	25	0.346667	9.22841E-001	8.01152E-004	0.00000E+000	7.39337E-004	4.80080E-001	9.23068E-001	3.57540E+000	9	...........
	26	0.36	9.29091E-001	8.01094E-004	0.00000E+000	7.44289E-004	4.80080E-001	9.29320E-001	3.57540E+000	9	...........
	27	0.373333	9.35115E-001	8.00920E-004	0.00000E+000	7.48952E-004	4.80080E-001	9.35340E-001	3.57540E+000	9	...........
	28	0.386667	9.40904E-001	8.01007E-004	0.00000E+000	7.53670E-004	4.80080E-001	9.41169E-001	3.57540E+000	9	...........
	29	0.4	9.46545E-001	8.01454E-004	0.00000E+000	7.58612E-004	4.80080E-001	9.46766E-001	3.57540E+000	9	...........
	30	0.413333	9.52001E-001	8.01173E-004	0.00000E+000	7.62718E-004	4.80080E-001	9.52216E-001	3.57540E+000	9	...........
	31	0.426667	9.57239E-001	8.01219E-004	0.00000E+000	7.66958E-004	4.80080E-001	9.57475E-001	3.57540E+000	9	...........
	32	0.44	9.62296E-001	8.00988E-004	0.00000E+000	7.70787E-004	4.80080E-001	9.62551E-001	3.57540E+000	9	...........
	33	0.453333	9.67169E-001	8.01257E-004	0.00000E+000	7.74950E-004	4.80080E-001	9.67433E-001	3.57540E+000	9	...........
	34	0.466667	9.71938E-001	8.01368E-004	0.00000E+000	7.78880E-004	4.80080E-001	9.72246E-001	3.57540E+000	9	...........
	35	0.48	9.76587E-001	8.00959E-004	0.00000E+000	7.82206E-004	4.80080E-001	9.76871E-001	3.57540E+000	9	...........
	36	0.493333	9.81059E-001	8.01144E-004	0.00000E+000	7.85970E-004	4.80080E-001	9.81297E-001	3.57540E+000	9	...........
	37	0.506667	9.85391E-001	8.01038E-004	0.00000E+000	7.89335E-004	4.80080E-001	9.85636E-001	3.57540E+000	9	...........
	38	0.52	9.89608E-001	8.00942E-004	0.00000E+000	7.92619E-004	4.80080E-001	9.89859E-001	3.57540E+000	9	...........
	39	0.533333	9.93695E-001	8.00886E-004	0.00000E+000	7.95836E-004	4.80080E-001	9.93939E-001	3.57540E+000	9	...........
	40	0.546667	9.97659E-001	8.01063E-004	0.00000E+000	7.99188E-004	4.80080E-001	9.97935E-001	3.57540E+000	9	...........
	41	0.55	1.00011E+000	8.00644E-004	0.00000E+000	8.00733E-004	4.80080E-001	1.00038E+000	3.57540E+000	9	...........
STARTTIMEOFFSET	QUANT	99.5667	Start Time Offset (s)
