EXPLAIN
TAG	PWR800_CHARGE
TITLE	LABEL	PWR Cyclic Charge Discharge (Cell) - Charge Step	Test &Identifier
DATE	LABEL	11-7-2017	Date
TIME	LABEL	13:51:20	Time
NOTES	NOTES	3	&Notes...
	supercap test cell
	0.8mg
	6M KOH
PSTAT	PSTAT	IFC5000-01520	Potentiostat
CAPACITY	QUANT	1.00000E-003	Capacity (A-hr)
CELLTYPE	SELECTOR	1	&Cell Type
WORKINGCONNECTION	SELECTOR	0	&Working Lead
MAXCHARGETIME	VARIABLEANDUNITS	1.00000E+002	s	1.00000E+002	second(s)	Max &Charge Time
CHARGECURRENT	QUANT	8.00000E-004	&Charge Current (A) 
VOLTAGEFINISH	TWOPARAM	F	1.00000E-003	3.60000E+003	&Voltage Finish	 I (A) < 	Max Time(s)
SAMPLETIME	QUANT	1.00000E-002	Sa&mple Period (s)
CHARGESTOPAT1	MULTIPARAM	4	1.00000E+000	Charge Stop At &1	Voltage > Limit	V
CHARGESTOPAT2	MULTIPARAM	0	0.00000E+000	Charge Stop At &2	None	N/A
AESBHCSELECTOR	TOGGLE	F	Save Both Half Cells
IRCOMP	TOGGLE	F	IR &Measure
EOC	QUANT	0	Open Circuit (V)
SEQUENCER	TOGGLE	TRUE	Run as Sequence
PSTATMODEL	IQUANT	53	Pstat Model
PSTATSECTION	LABEL	IFC5000-01520	Pstat Section
PSTATSERIALNO	LABEL	01520	Pstat Serial Number
CTRLMODE	IQUANT	0	Control Mode
ELECTROMETER	IQUANT	1	RE=0 or CS=1
IESTAB	IQUANT	0	I/E Stability
CASPEED	IQUANT	4	Control Amp Speed
CONVENTION	IQUANT	1	Current Convention
ICHRANGE	IQUANT	2	Ich Range
ICHRANGEMODE	TOGGLE	T	Ich Auto Range
ICHOFFSETENABLE	TOGGLE	F	Ich Offset Enable
ICHOFFSET	QUANT	0	Ich Offset (V)
ICHFILTER	IQUANT	1	Ich Filter
VCHRANGE	IQUANT	2	Vch Range
VCHRANGEMODE	TOGGLE	T	Vch Auto Range
VCHOFFSETENABLE	TOGGLE	F	Vch Offset Enable
VCHOFFSET	QUANT	0	Vch Offset (V)
VCHFILTER	IQUANT	1	Vch Filter
IERANGELOWERLIMIT	IQUANT	9	I/E Range Lower Limit
IERANGEMODE	TOGGLE	F	I/E AutoRange
IERANGE	IQUANT	9	I/E Range
ACHSELECT	IQUANT	1	Ach Select
ACHRANGE	IQUANT	2	Ach Range
ACHOFFSETENABLE	TOGGLE	F	Ach Offset Enable
ACHOFFSET	QUANT	0	Ach Offset (V)
ACHFILTER	IQUANT	1	Ach Filter
CABLEID	IQUANT	14	Cable ID
DCCALDATE	LABEL	5-7-2017	DC Calibration Date
ACCALDATE	LABEL	12/3/2015	AC Calibration Date
FRAMEWORKVERSION	QUANT	7.01	Framework Version
INSTRUMENTVERSION	LABEL	4.00	Instrument Version
CURVE	TABLE	43
	Pt	T	Vf	Im	Vu	Pwr	Sig	Ach	Temp	IERange	Over
	#	s	V	A	V	W	V	V	deg C	#	bits
	0	0.013333	5.51977E-001	8.00584E-004	0.00000E+000	4.41903E-004	4.80080E-001	5.52175E-001	3.57400E+000	9	...........
	1	0.026667	5.93472E-001	8.01106E-004	0.00000E+000	4.75434E-004	4.80080E-001	5.93691E-001	3.57400E+000	9	...........
	2	0.04	6.27332E-001	8.01251E-004	0.00000E+000	5.02651E-004	4.80080E-001	6.27506E-001	3.57400E+000	9	...........
	3	0.053333	6.55900E-001	8.00907E-004	0.00000E+000	5.25315E-004	4.80080E-001	6.56087E-001	3.57400E+000	9	...........
	4	0.066667	6.80663E-001	8.00729E-004	0.00000E+000	5.45027E-004	4.80080E-001	6.80848E-001	3.57400E+000	9	...........
	5	0.08	7.02496E-001	8.01003E-004	0.00000E+000	5.62702E-004	4.80080E-001	7.02677E-001	3.57400E+000	9	...........
	6	0.093333	7.22067E-001	8.00803E-004	0.00000E+000	5.78234E-004	4.80080E-001	7.22244E-001	3.57400E+000	9	...........
	7	0.106667	7.39766E-001	8.00850E-004	0.00000E+000	5.92442E-004	4.80080E-001	7.39950E-001	3.57400E+000	9	...........
	8	0.12	7.55933E-001	8.01249E-004	0.00000E+000	6.05691E-004	4.80080E-001	7.56122E-001	3.57400E+000	9	...........
	9	0.133333	7.70813E-001	8.00767E-004	0.00000E+000	6.17241E-004	4.80080E-001	7.71009E-001	3.57400E+000	9	...........
	10	0.146667	7.84583E-001	8.01091E-004	0.00000E+000	6.28522E-004	4.80080E-001	7.84750E-001	3.57400E+000	9	...........
	11	0.16	7.97390E-001	8.01025E-004	0.00000E+000	6.38729E-004	4.80080E-001	7.97540E-001	3.57400E+000	9	...........
	12	0.173333	8.09308E-001	8.00761E-004	0.00000E+000	6.48062E-004	4.80080E-001	8.09490E-001	3.57400E+000	9	...........
	13	0.186667	8.20543E-001	8.00951E-004	0.00000E+000	6.57215E-004	4.80080E-001	8.20775E-001	3.57400E+000	9	...........
	14	0.2	8.31127E-001	8.01094E-004	0.00000E+000	6.65811E-004	4.80080E-001	8.31338E-001	3.57400E+000	9	...........
	15	0.213333	8.41087E-001	8.00940E-004	0.00000E+000	6.73660E-004	4.80080E-001	8.41326E-001	3.57400E+000	9	...........
	16	0.226667	8.50550E-001	8.00708E-004	0.00000E+000	6.81041E-004	4.80080E-001	8.50822E-001	3.57400E+000	9	...........
	17	0.24	8.59548E-001	8.00860E-004	0.00000E+000	6.88377E-004	4.80080E-001	8.59791E-001	3.57400E+000	9	...........
	18	0.253333	8.68081E-001	8.01186E-004	0.00000E+000	6.95494E-004	4.80080E-001	8.68359E-001	3.57400E+000	9	...........
	19	0.266667	8.76317E-001	8.00891E-004	0.00000E+000	7.01834E-004	4.80080E-001	8.76546E-001	3.57400E+000	9	...........
	20	0.28	8.84144E-001	8.01114E-004	0.00000E+000	7.08300E-004	4.80080E-001	8.84387E-001	3.57400E+000	9	...........
	21	0.293333	8.91636E-001	8.01065E-004	0.00000E+000	7.14258E-004	4.80080E-001	8.91893E-001	3.57400E+000	9	...........
	22	0.306667	8.98861E-001	8.00719E-004	0.00000E+000	7.19735E-004	4.80080E-001	8.99098E-001	3.57419E+000	9	...........
	23	0.32	9.05771E-001	8.00791E-004	0.00000E+000	7.25333E-004	4.80080E-001	9.06010E-001	3.57430E+000	9	...........
	24	0.333333	9.12392E-001	8.00937E-004	0.00000E+000	7.30769E-004	4.80080E-001	9.12668E-001	3.57430E+000	9	...........
	25	0.346667	9.18855E-001	8.00909E-004	0.00000E+000	7.35919E-004	4.80080E-001	9.19083E-001	3.57430E+000	9	...........
	26	0.36	9.25036E-001	8.01000E-004	0.00000E+000	7.40954E-004	4.80080E-001	9.25267E-001	3.57430E+000	9	...........
	27	0.373333	9.30954E-001	8.00965E-004	0.00000E+000	7.45662E-004	4.80080E-001	9.31180E-001	3.57430E+000	9	...........
	28	0.386667	9.36723E-001	8.00988E-004	0.00000E+000	7.50303E-004	4.80080E-001	9.36936E-001	3.57430E+000	9	...........
	29	0.4	9.42252E-001	8.00943E-004	0.00000E+000	7.54690E-004	4.80080E-001	9.42475E-001	3.57430E+000	9	...........
	30	0.413333	9.47655E-001	8.00959E-004	0.00000E+000	7.59033E-004	4.80080E-001	9.47865E-001	3.57430E+000	9	...........
	31	0.426667	9.52874E-001	8.00927E-004	0.00000E+000	7.63183E-004	4.80080E-001	9.53078E-001	3.57430E+000	9	...........
	32	0.44	9.57909E-001	8.00802E-004	0.00000E+000	7.67096E-004	4.80080E-001	9.58144E-001	3.57430E+000	9	...........
	33	0.453333	9.62786E-001	8.01203E-004	0.00000E+000	7.71388E-004	4.80080E-001	9.63045E-001	3.57430E+000	9	...........
	34	0.466667	9.67527E-001	8.01237E-004	0.00000E+000	7.75218E-004	4.80080E-001	9.67775E-001	3.57430E+000	9	...........
	35	0.48	9.72117E-001	8.01266E-004	0.00000E+000	7.78924E-004	4.80080E-001	9.72405E-001	3.57430E+000	9	...........
	36	0.493333	9.76545E-001	8.00996E-004	0.00000E+000	7.82209E-004	4.80080E-001	9.76808E-001	3.57430E+000	9	...........
	37	0.506667	9.80831E-001	8.00992E-004	0.00000E+000	7.85638E-004	4.80080E-001	9.81066E-001	3.57430E+000	9	...........
	38	0.52	9.85002E-001	8.01002E-004	0.00000E+000	7.88989E-004	4.80080E-001	9.85265E-001	3.57430E+000	9	...........
	39	0.533333	9.89077E-001	8.01009E-004	0.00000E+000	7.92259E-004	4.80080E-001	9.89327E-001	3.57430E+000	9	...........
	40	0.546667	9.93028E-001	8.00916E-004	0.00000E+000	7.95332E-004	4.80080E-001	9.93287E-001	3.57430E+000	9	...........
	41	0.56	9.96912E-001	8.00987E-004	0.00000E+000	7.98514E-004	4.80080E-001	9.97147E-001	3.57430E+000	9	...........
	42	0.566667	9.99731E-001	8.01446E-004	0.00000E+000	8.01231E-004	4.80080E-001	9.99952E-001	3.57430E+000	9	...........
STARTTIMEOFFSET	QUANT	77.02332	Start Time Offset (s)
