EXPLAIN
TAG	PWR800_CHARGE
TITLE	LABEL	PWR Cyclic Charge Discharge (Cell) - Charge Step	Test &Identifier
DATE	LABEL	11-7-2017	Date
TIME	LABEL	13:50:10	Time
NOTES	NOTES	3	&Notes...
	supercap test cell
	0.8mg
	6M KOH
PSTAT	PSTAT	IFC5000-01520	Potentiostat
CAPACITY	QUANT	1.00000E-003	Capacity (A-hr)
CELLTYPE	SELECTOR	1	&Cell Type
WORKINGCONNECTION	SELECTOR	0	&Working Lead
MAXCHARGETIME	VARIABLEANDUNITS	1.00000E+002	s	1.00000E+002	second(s)	Max &Charge Time
CHARGECURRENT	QUANT	8.00000E-004	&Charge Current (A) 
VOLTAGEFINISH	TWOPARAM	F	1.00000E-003	3.60000E+003	&Voltage Finish	 I (A) < 	Max Time(s)
SAMPLETIME	QUANT	1.00000E-002	Sa&mple Period (s)
CHARGESTOPAT1	MULTIPARAM	4	1.00000E+000	Charge Stop At &1	Voltage > Limit	V
CHARGESTOPAT2	MULTIPARAM	0	0.00000E+000	Charge Stop At &2	None	N/A
AESBHCSELECTOR	TOGGLE	F	Save Both Half Cells
IRCOMP	TOGGLE	F	IR &Measure
EOC	QUANT	0	Open Circuit (V)
SEQUENCER	TOGGLE	TRUE	Run as Sequence
PSTATMODEL	IQUANT	53	Pstat Model
PSTATSECTION	LABEL	IFC5000-01520	Pstat Section
PSTATSERIALNO	LABEL	01520	Pstat Serial Number
CTRLMODE	IQUANT	0	Control Mode
ELECTROMETER	IQUANT	1	RE=0 or CS=1
IESTAB	IQUANT	0	I/E Stability
CASPEED	IQUANT	4	Control Amp Speed
CONVENTION	IQUANT	1	Current Convention
ICHRANGE	IQUANT	2	Ich Range
ICHRANGEMODE	TOGGLE	T	Ich Auto Range
ICHOFFSETENABLE	TOGGLE	F	Ich Offset Enable
ICHOFFSET	QUANT	0	Ich Offset (V)
ICHFILTER	IQUANT	1	Ich Filter
VCHRANGE	IQUANT	2	Vch Range
VCHRANGEMODE	TOGGLE	T	Vch Auto Range
VCHOFFSETENABLE	TOGGLE	F	Vch Offset Enable
VCHOFFSET	QUANT	0	Vch Offset (V)
VCHFILTER	IQUANT	1	Vch Filter
IERANGELOWERLIMIT	IQUANT	9	I/E Range Lower Limit
IERANGEMODE	TOGGLE	F	I/E AutoRange
IERANGE	IQUANT	9	I/E Range
ACHSELECT	IQUANT	1	Ach Select
ACHRANGE	IQUANT	2	Ach Range
ACHOFFSETENABLE	TOGGLE	F	Ach Offset Enable
ACHOFFSET	QUANT	0	Ach Offset (V)
ACHFILTER	IQUANT	1	Ach Filter
CABLEID	IQUANT	14	Cable ID
DCCALDATE	LABEL	5-7-2017	DC Calibration Date
ACCALDATE	LABEL	12/3/2015	AC Calibration Date
FRAMEWORKVERSION	QUANT	7.01	Framework Version
INSTRUMENTVERSION	LABEL	4.00	Instrument Version
CURVE	TABLE	46
	Pt	T	Vf	Im	Vu	Pwr	Sig	Ach	Temp	IERange	Over
	#	s	V	A	V	W	V	V	deg C	#	bits
	0	0.013333	5.58039E-001	8.00904E-004	0.00000E+000	4.46936E-004	4.80080E-001	5.58182E-001	3.57380E+000	9	...........
	1	0.026667	5.98260E-001	8.00777E-004	0.00000E+000	4.79073E-004	4.80080E-001	5.98446E-001	3.57380E+000	9	...........
	2	0.04	6.30950E-001	8.01064E-004	0.00000E+000	5.05431E-004	4.80080E-001	6.31086E-001	3.57380E+000	9	...........
	3	0.053333	6.58399E-001	8.00797E-004	0.00000E+000	5.27244E-004	4.80080E-001	6.58561E-001	3.57380E+000	9	...........
	4	0.066667	6.82130E-001	8.01045E-004	0.00000E+000	5.46417E-004	4.80080E-001	6.82294E-001	3.57380E+000	9	...........
	5	0.08	7.02979E-001	8.01017E-004	0.00000E+000	5.63098E-004	4.80080E-001	7.03144E-001	3.57380E+000	9	...........
	6	0.093333	7.21658E-001	8.01013E-004	0.00000E+000	5.78057E-004	4.80080E-001	7.21808E-001	3.57380E+000	9	...........
	7	0.106667	7.38539E-001	8.00837E-004	0.00000E+000	5.91449E-004	4.80080E-001	7.38706E-001	3.57380E+000	9	...........
	8	0.12	7.53964E-001	8.00941E-004	0.00000E+000	6.03881E-004	4.80080E-001	7.54122E-001	3.57380E+000	9	...........
	9	0.133333	7.68119E-001	8.00865E-004	0.00000E+000	6.15160E-004	4.80080E-001	7.68301E-001	3.57380E+000	9	...........
	10	0.146667	7.81241E-001	8.00896E-004	0.00000E+000	6.25693E-004	4.80080E-001	7.81431E-001	3.57380E+000	9	...........
	11	0.16	7.93403E-001	8.00882E-004	0.00000E+000	6.35422E-004	4.80080E-001	7.93602E-001	3.57380E+000	9	...........
	12	0.173333	8.04814E-001	8.00560E-004	0.00000E+000	6.44301E-004	4.80080E-001	8.04980E-001	3.57380E+000	9	...........
	13	0.186667	8.15488E-001	8.00729E-004	0.00000E+000	6.52985E-004	4.80080E-001	8.15678E-001	3.57380E+000	9	...........
	14	0.2	8.25570E-001	8.00875E-004	0.00000E+000	6.61179E-004	4.80080E-001	8.25742E-001	3.57380E+000	9	...........
	15	0.213333	8.35090E-001	8.01181E-004	0.00000E+000	6.69058E-004	4.80080E-001	8.35295E-001	3.57380E+000	9	...........
	16	0.226667	8.44152E-001	8.01267E-004	0.00000E+000	6.76391E-004	4.80080E-001	8.44374E-001	3.57380E+000	9	...........
	17	0.24	8.52762E-001	8.00735E-004	0.00000E+000	6.82836E-004	4.80080E-001	8.52982E-001	3.57380E+000	9	...........
	18	0.253333	8.60953E-001	8.01112E-004	0.00000E+000	6.89720E-004	4.80080E-001	8.61194E-001	3.57380E+000	9	...........
	19	0.266667	8.68833E-001	8.01129E-004	0.00000E+000	6.96047E-004	4.80080E-001	8.69086E-001	3.57380E+000	9	...........
	20	0.28	8.76348E-001	8.00880E-004	0.00000E+000	7.01850E-004	4.80080E-001	8.76608E-001	3.57380E+000	9	...........
	21	0.293333	8.83563E-001	8.00869E-004	0.00000E+000	7.07618E-004	4.80080E-001	8.83841E-001	3.57380E+000	9	...........
	22	0.306667	8.90467E-001	8.00973E-004	0.00000E+000	7.13240E-004	4.80080E-001	8.90713E-001	3.57380E+000	9	...........
	23	0.32	8.97117E-001	8.01015E-004	0.00000E+000	7.18604E-004	4.80080E-001	8.97375E-001	3.57380E+000	9	...........
	24	0.333333	9.03522E-001	8.01198E-004	0.00000E+000	7.23900E-004	4.80080E-001	9.03759E-001	3.57380E+000	9	...........
	25	0.346667	9.09698E-001	8.01196E-004	0.00000E+000	7.28846E-004	4.80080E-001	9.09958E-001	3.57380E+000	9	...........
	26	0.36	9.15659E-001	8.00807E-004	0.00000E+000	7.33265E-004	4.80080E-001	9.15922E-001	3.57380E+000	9	...........
	27	0.373333	9.21446E-001	8.00919E-004	0.00000E+000	7.38003E-004	4.80080E-001	9.21642E-001	3.57380E+000	9	...........
	28	0.386667	9.27020E-001	8.01046E-004	0.00000E+000	7.42586E-004	4.80080E-001	9.27227E-001	3.57380E+000	9	...........
	29	0.4	9.32417E-001	8.01091E-004	0.00000E+000	7.46951E-004	4.80080E-001	9.32636E-001	3.57380E+000	9	...........
	30	0.413333	9.37639E-001	8.00658E-004	0.00000E+000	7.50728E-004	4.80080E-001	9.37873E-001	3.57380E+000	9	...........
	31	0.426667	9.42664E-001	8.01094E-004	0.00000E+000	7.55162E-004	4.80080E-001	9.42894E-001	3.57380E+000	9	...........
	32	0.44	9.47578E-001	8.00941E-004	0.00000E+000	7.58954E-004	4.80080E-001	9.47785E-001	3.57380E+000	9	...........
	33	0.453333	9.52337E-001	8.00913E-004	0.00000E+000	7.62739E-004	4.80080E-001	9.52553E-001	3.57380E+000	9	...........
	34	0.466667	9.56930E-001	8.01233E-004	0.00000E+000	7.66724E-004	4.80080E-001	9.57149E-001	3.57380E+000	9	...........
	35	0.48	9.61384E-001	8.01023E-004	0.00000E+000	7.70091E-004	4.80080E-001	9.61574E-001	3.57380E+000	9	...........
	36	0.493333	9.65702E-001	8.01158E-004	0.00000E+000	7.73680E-004	4.80080E-001	9.65928E-001	3.57380E+000	9	...........
	37	0.506667	9.69894E-001	8.01041E-004	0.00000E+000	7.76925E-004	4.80080E-001	9.70116E-001	3.57380E+000	9	...........
	38	0.52	9.73984E-001	8.00572E-004	0.00000E+000	7.79744E-004	4.80080E-001	9.74189E-001	3.57380E+000	9	...........
	39	0.533333	9.77930E-001	8.00816E-004	0.00000E+000	7.83142E-004	4.80080E-001	9.78139E-001	3.57380E+000	9	...........
	40	0.546667	9.81789E-001	8.01013E-004	0.00000E+000	7.86426E-004	4.80080E-001	9.81989E-001	3.57417E+000	9	...........
	41	0.56	9.85549E-001	8.01249E-004	0.00000E+000	7.89671E-004	4.80080E-001	9.85779E-001	3.57440E+000	9	...........
	42	0.573333	9.89217E-001	8.00989E-004	0.00000E+000	7.92352E-004	4.80080E-001	9.89445E-001	3.57440E+000	9	...........
	43	0.586667	9.92728E-001	8.00938E-004	0.00000E+000	7.95114E-004	4.80080E-001	9.92989E-001	3.57440E+000	9	...........
	44	0.6	9.96202E-001	8.01164E-004	0.00000E+000	7.98121E-004	4.80080E-001	9.96474E-001	3.57440E+000	9	...........
	45	0.61	9.99189E-001	8.01250E-004	0.00000E+000	8.00600E-004	4.80080E-001	9.99449E-001	3.57440E+000	9	...........
STARTTIMEOFFSET	QUANT	38.96001	Start Time Offset (s)
