EXPLAIN
TAG	PWR800_CHARGE
TITLE	LABEL	PWR Cyclic Charge Discharge (Cell) - Charge Step	Test &Identifier
DATE	LABEL	11-7-2017	Date
TIME	LABEL	13:50:16	Time
NOTES	NOTES	3	&Notes...
	supercap test cell
	0.8mg
	6M KOH
PSTAT	PSTAT	IFC5000-01520	Potentiostat
CAPACITY	QUANT	1.00000E-003	Capacity (A-hr)
CELLTYPE	SELECTOR	1	&Cell Type
WORKINGCONNECTION	SELECTOR	0	&Working Lead
MAXCHARGETIME	VARIABLEANDUNITS	1.00000E+002	s	1.00000E+002	second(s)	Max &Charge Time
CHARGECURRENT	QUANT	8.00000E-004	&Charge Current (A) 
VOLTAGEFINISH	TWOPARAM	F	1.00000E-003	3.60000E+003	&Voltage Finish	 I (A) < 	Max Time(s)
SAMPLETIME	QUANT	1.00000E-002	Sa&mple Period (s)
CHARGESTOPAT1	MULTIPARAM	4	1.00000E+000	Charge Stop At &1	Voltage > Limit	V
CHARGESTOPAT2	MULTIPARAM	0	0.00000E+000	Charge Stop At &2	None	N/A
AESBHCSELECTOR	TOGGLE	F	Save Both Half Cells
IRCOMP	TOGGLE	F	IR &Measure
EOC	QUANT	0	Open Circuit (V)
SEQUENCER	TOGGLE	TRUE	Run as Sequence
PSTATMODEL	IQUANT	53	Pstat Model
PSTATSECTION	LABEL	IFC5000-01520	Pstat Section
PSTATSERIALNO	LABEL	01520	Pstat Serial Number
CTRLMODE	IQUANT	0	Control Mode
ELECTROMETER	IQUANT	1	RE=0 or CS=1
IESTAB	IQUANT	0	I/E Stability
CASPEED	IQUANT	4	Control Amp Speed
CONVENTION	IQUANT	1	Current Convention
ICHRANGE	IQUANT	2	Ich Range
ICHRANGEMODE	TOGGLE	T	Ich Auto Range
ICHOFFSETENABLE	TOGGLE	F	Ich Offset Enable
ICHOFFSET	QUANT	0	Ich Offset (V)
ICHFILTER	IQUANT	1	Ich Filter
VCHRANGE	IQUANT	2	Vch Range
VCHRANGEMODE	TOGGLE	T	Vch Auto Range
VCHOFFSETENABLE	TOGGLE	F	Vch Offset Enable
VCHOFFSET	QUANT	0	Vch Offset (V)
VCHFILTER	IQUANT	1	Vch Filter
IERANGELOWERLIMIT	IQUANT	9	I/E Range Lower Limit
IERANGEMODE	TOGGLE	F	I/E AutoRange
IERANGE	IQUANT	9	I/E Range
ACHSELECT	IQUANT	1	Ach Select
ACHRANGE	IQUANT	2	Ach Range
ACHOFFSETENABLE	TOGGLE	F	Ach Offset Enable
ACHOFFSET	QUANT	0	Ach Offset (V)
ACHFILTER	IQUANT	1	Ach Filter
CABLEID	IQUANT	14	Cable ID
DCCALDATE	LABEL	5-7-2017	DC Calibration Date
ACCALDATE	LABEL	12/3/2015	AC Calibration Date
FRAMEWORKVERSION	QUANT	7.01	Framework Version
INSTRUMENTVERSION	LABEL	4.00	Instrument Version
CURVE	TABLE	46
	Pt	T	Vf	Im	Vu	Pwr	Sig	Ach	Temp	IERange	Over
	#	s	V	A	V	W	V	V	deg C	#	bits
	0	0.013333	5.53955E-001	8.00928E-004	0.00000E+000	4.43678E-004	4.80080E-001	5.54087E-001	3.57520E+000	9	...........
	1	0.026667	5.94479E-001	8.01189E-004	0.00000E+000	4.76290E-004	4.80080E-001	5.94661E-001	3.57520E+000	9	...........
	2	0.04	6.27375E-001	8.00516E-004	0.00000E+000	5.02223E-004	4.80080E-001	6.27522E-001	3.57520E+000	9	...........
	3	0.053333	6.55021E-001	8.00788E-004	0.00000E+000	5.24533E-004	4.80080E-001	6.55186E-001	3.57520E+000	9	...........
	4	0.066667	6.78924E-001	8.00824E-004	0.00000E+000	5.43698E-004	4.80080E-001	6.79100E-001	3.57520E+000	9	...........
	5	0.08	6.99995E-001	8.00854E-004	0.00000E+000	5.60594E-004	4.80080E-001	7.00152E-001	3.57520E+000	9	...........
	6	0.093333	7.18850E-001	8.00960E-004	0.00000E+000	5.75770E-004	4.80080E-001	7.19011E-001	3.57520E+000	9	...........
	7	0.106667	7.35900E-001	8.01037E-004	0.00000E+000	5.89483E-004	4.80080E-001	7.36091E-001	3.57520E+000	9	...........
	8	0.12	7.51458E-001	8.00806E-004	0.00000E+000	6.01772E-004	4.80080E-001	7.51606E-001	3.57520E+000	9	...........
	9	0.133333	7.65732E-001	8.00717E-004	0.00000E+000	6.13135E-004	4.80080E-001	7.65895E-001	3.57520E+000	9	...........
	10	0.146667	7.78934E-001	8.01172E-004	0.00000E+000	6.24061E-004	4.80080E-001	7.79110E-001	3.57520E+000	9	...........
	11	0.16	7.91261E-001	8.00981E-004	0.00000E+000	6.33785E-004	4.80080E-001	7.91417E-001	3.57520E+000	9	...........
	12	0.173333	8.02811E-001	8.01160E-004	0.00000E+000	6.43180E-004	4.80080E-001	8.02958E-001	3.57520E+000	9	...........
	13	0.186667	8.13641E-001	8.00820E-004	0.00000E+000	6.51580E-004	4.80080E-001	8.13827E-001	3.57520E+000	9	...........
	14	0.2	8.23827E-001	8.01159E-004	0.00000E+000	6.60016E-004	4.80080E-001	8.24017E-001	3.57520E+000	9	...........
	15	0.213333	8.33507E-001	8.01033E-004	0.00000E+000	6.67666E-004	4.80080E-001	8.33708E-001	3.57520E+000	9	...........
	16	0.226667	8.42657E-001	8.00810E-004	0.00000E+000	6.74808E-004	4.80080E-001	8.42888E-001	3.57520E+000	9	...........
	17	0.24	8.51400E-001	8.01006E-004	0.00000E+000	6.81976E-004	4.80080E-001	8.51646E-001	3.57520E+000	9	...........
	18	0.253333	8.59712E-001	8.01139E-004	0.00000E+000	6.88748E-004	4.80080E-001	8.59958E-001	3.57520E+000	9	...........
	19	0.266667	8.67675E-001	8.00938E-004	0.00000E+000	6.94953E-004	4.80080E-001	8.67924E-001	3.57520E+000	9	...........
	20	0.28	8.75305E-001	8.00735E-004	0.00000E+000	7.00887E-004	4.80080E-001	8.75566E-001	3.57520E+000	9	...........
	21	0.293333	8.82634E-001	8.00887E-004	0.00000E+000	7.06890E-004	4.80080E-001	8.82877E-001	3.57520E+000	9	...........
	22	0.306667	8.89654E-001	8.01299E-004	0.00000E+000	7.12879E-004	4.80080E-001	8.89887E-001	3.57520E+000	9	...........
	23	0.32	8.96374E-001	8.01173E-004	0.00000E+000	7.18151E-004	4.80080E-001	8.96625E-001	3.57520E+000	9	...........
	24	0.333333	9.02846E-001	8.00547E-004	0.00000E+000	7.22771E-004	4.80080E-001	9.03088E-001	3.57520E+000	9	...........
	25	0.346667	9.09087E-001	8.00828E-004	0.00000E+000	7.28023E-004	4.80080E-001	9.09319E-001	3.57520E+000	9	...........
	26	0.36	9.15102E-001	8.00856E-004	0.00000E+000	7.32865E-004	4.80080E-001	9.15354E-001	3.57520E+000	9	...........
	27	0.373333	9.20949E-001	8.01020E-004	0.00000E+000	7.37699E-004	4.80080E-001	9.21179E-001	3.57520E+000	9	...........
	28	0.386667	9.26616E-001	8.01116E-004	0.00000E+000	7.42327E-004	4.80080E-001	9.26809E-001	3.57520E+000	9	...........
	29	0.4	9.32020E-001	8.00945E-004	0.00000E+000	7.46497E-004	4.80080E-001	9.32258E-001	3.57520E+000	9	...........
	30	0.413333	9.37278E-001	8.01383E-004	0.00000E+000	7.51118E-004	4.80080E-001	9.37508E-001	3.57520E+000	9	...........
	31	0.426667	9.42367E-001	8.01082E-004	0.00000E+000	7.54913E-004	4.80080E-001	9.42591E-001	3.57520E+000	9	...........
	32	0.44	9.47372E-001	8.01116E-004	0.00000E+000	7.58955E-004	4.80080E-001	9.47596E-001	3.57520E+000	9	...........
	33	0.453333	9.52166E-001	8.01003E-004	0.00000E+000	7.62688E-004	4.80080E-001	9.52384E-001	3.57520E+000	9	...........
	34	0.466667	9.56795E-001	8.00857E-004	0.00000E+000	7.66256E-004	4.80080E-001	9.56993E-001	3.57520E+000	9	...........
	35	0.48	9.61268E-001	8.00826E-004	0.00000E+000	7.69809E-004	4.80080E-001	9.61476E-001	3.57520E+000	9	...........
	36	0.493333	9.65645E-001	8.01102E-004	0.00000E+000	7.73580E-004	4.80080E-001	9.65840E-001	3.57520E+000	9	...........
	37	0.506667	9.69869E-001	8.01113E-004	0.00000E+000	7.76974E-004	4.80080E-001	9.70088E-001	3.57520E+000	9	...........
	38	0.52	9.74045E-001	8.01343E-004	0.00000E+000	7.80544E-004	4.80080E-001	9.74234E-001	3.57520E+000	9	...........
	39	0.533333	9.78035E-001	8.01047E-004	0.00000E+000	7.83453E-004	4.80080E-001	9.78250E-001	3.57520E+000	9	...........
	40	0.546667	9.81933E-001	8.01186E-004	0.00000E+000	7.86711E-004	4.80080E-001	9.82149E-001	3.57520E+000	9	...........
	41	0.56	9.85743E-001	8.00800E-004	0.00000E+000	7.89383E-004	4.80080E-001	9.85974E-001	3.57520E+000	9	...........
	42	0.573333	9.89450E-001	8.01079E-004	0.00000E+000	7.92628E-004	4.80080E-001	9.89684E-001	3.57520E+000	9	...........
	43	0.586667	9.93073E-001	8.00792E-004	0.00000E+000	7.95245E-004	4.80080E-001	9.93311E-001	3.57520E+000	9	...........
	44	0.6	9.96576E-001	8.00621E-004	0.00000E+000	7.97880E-004	4.80080E-001	9.96824E-001	3.57520E+000	9	...........
	45	0.608333	9.99370E-001	8.00967E-004	0.00000E+000	8.00463E-004	4.80080E-001	9.99623E-001	3.57520E+000	9	...........
STARTTIMEOFFSET	QUANT	41.91501	Start Time Offset (s)
