EXPLAIN
TAG	PWR800_CHARGE
TITLE	LABEL	PWR Cyclic Charge Discharge (Cell) - Charge Step	Test &Identifier
DATE	LABEL	11-7-2017	Date
TIME	LABEL	13:54:13	Time
NOTES	NOTES	3	&Notes...
	supercap test cell
	0.8mg
	6M KOH
PSTAT	PSTAT	IFC5000-01520	Potentiostat
CAPACITY	QUANT	1.00000E-003	Capacity (A-hr)
CELLTYPE	SELECTOR	1	&Cell Type
WORKINGCONNECTION	SELECTOR	0	&Working Lead
MAXCHARGETIME	VARIABLEANDUNITS	1.00000E+002	s	1.00000E+002	second(s)	Max &Charge Time
CHARGECURRENT	QUANT	8.00000E-004	&Charge Current (A) 
VOLTAGEFINISH	TWOPARAM	F	1.00000E-003	3.60000E+003	&Voltage Finish	 I (A) < 	Max Time(s)
SAMPLETIME	QUANT	1.00000E-002	Sa&mple Period (s)
CHARGESTOPAT1	MULTIPARAM	4	1.00000E+000	Charge Stop At &1	Voltage > Limit	V
CHARGESTOPAT2	MULTIPARAM	0	0.00000E+000	Charge Stop At &2	None	N/A
AESBHCSELECTOR	TOGGLE	F	Save Both Half Cells
IRCOMP	TOGGLE	F	IR &Measure
EOC	QUANT	0	Open Circuit (V)
SEQUENCER	TOGGLE	TRUE	Run as Sequence
PSTATMODEL	IQUANT	53	Pstat Model
PSTATSECTION	LABEL	IFC5000-01520	Pstat Section
PSTATSERIALNO	LABEL	01520	Pstat Serial Number
CTRLMODE	IQUANT	0	Control Mode
ELECTROMETER	IQUANT	1	RE=0 or CS=1
IESTAB	IQUANT	0	I/E Stability
CASPEED	IQUANT	4	Control Amp Speed
CONVENTION	IQUANT	1	Current Convention
ICHRANGE	IQUANT	2	Ich Range
ICHRANGEMODE	TOGGLE	T	Ich Auto Range
ICHOFFSETENABLE	TOGGLE	F	Ich Offset Enable
ICHOFFSET	QUANT	0	Ich Offset (V)
ICHFILTER	IQUANT	1	Ich Filter
VCHRANGE	IQUANT	2	Vch Range
VCHRANGEMODE	TOGGLE	T	Vch Auto Range
VCHOFFSETENABLE	TOGGLE	F	Vch Offset Enable
VCHOFFSET	QUANT	0	Vch Offset (V)
VCHFILTER	IQUANT	1	Vch Filter
IERANGELOWERLIMIT	IQUANT	9	I/E Range Lower Limit
IERANGEMODE	TOGGLE	F	I/E AutoRange
IERANGE	IQUANT	9	I/E Range
ACHSELECT	IQUANT	1	Ach Select
ACHRANGE	IQUANT	2	Ach Range
ACHOFFSETENABLE	TOGGLE	F	Ach Offset Enable
ACHOFFSET	QUANT	0	Ach Offset (V)
ACHFILTER	IQUANT	1	Ach Filter
CABLEID	IQUANT	14	Cable ID
DCCALDATE	LABEL	5-7-2017	DC Calibration Date
ACCALDATE	LABEL	12/3/2015	AC Calibration Date
FRAMEWORKVERSION	QUANT	7.01	Framework Version
INSTRUMENTVERSION	LABEL	4.00	Instrument Version
CURVE	TABLE	38
	Pt	T	Vf	Im	Vu	Pwr	Sig	Ach	Temp	IERange	Over
	#	s	V	A	V	W	V	V	deg C	#	bits
	0	0.013333	5.53151E-001	8.00763E-004	0.00000E+000	4.42943E-004	4.80080E-001	5.53300E-001	3.57420E+000	9	...........
	1	0.026667	5.96078E-001	8.00936E-004	0.00000E+000	4.77420E-004	4.80080E-001	5.96220E-001	3.57420E+000	9	...........
	2	0.04	6.31329E-001	8.00864E-004	0.00000E+000	5.05608E-004	4.80080E-001	6.31456E-001	3.57420E+000	9	...........
	3	0.053333	6.61217E-001	8.00759E-004	0.00000E+000	5.29475E-004	4.80080E-001	6.61362E-001	3.57420E+000	9	...........
	4	0.066667	6.87150E-001	8.00864E-004	0.00000E+000	5.50314E-004	4.80080E-001	6.87319E-001	3.57420E+000	9	...........
	5	0.08	7.10129E-001	8.00804E-004	0.00000E+000	5.68674E-004	4.80080E-001	7.10276E-001	3.57420E+000	9	...........
	6	0.093333	7.30734E-001	8.00932E-004	0.00000E+000	5.85268E-004	4.80080E-001	7.30899E-001	3.57420E+000	9	...........
	7	0.106667	7.49383E-001	8.00878E-004	0.00000E+000	6.00165E-004	4.80080E-001	7.49582E-001	3.57420E+000	9	...........
	8	0.12	7.66451E-001	8.00859E-004	0.00000E+000	6.13819E-004	4.80080E-001	7.66655E-001	3.57420E+000	9	...........
	9	0.133333	7.82142E-001	8.00895E-004	0.00000E+000	6.26414E-004	4.80080E-001	7.82334E-001	3.57420E+000	9	...........
	10	0.146667	7.96623E-001	8.00968E-004	0.00000E+000	6.38070E-004	4.80080E-001	7.96836E-001	3.57420E+000	9	...........
	11	0.16	8.10090E-001	8.00885E-004	0.00000E+000	6.48788E-004	4.80080E-001	8.10296E-001	3.57420E+000	9	...........
	12	0.173333	8.22672E-001	8.01096E-004	0.00000E+000	6.59039E-004	4.80080E-001	8.22885E-001	3.57420E+000	9	...........
	13	0.186667	8.34465E-001	8.01048E-004	0.00000E+000	6.68447E-004	4.80080E-001	8.34698E-001	3.57420E+000	9	...........
	14	0.2	8.45544E-001	8.00698E-004	0.00000E+000	6.77025E-004	4.80080E-001	8.45803E-001	3.57420E+000	9	...........
	15	0.213333	8.55957E-001	8.01050E-004	0.00000E+000	6.85664E-004	4.80080E-001	8.56218E-001	3.57420E+000	9	...........
	16	0.226667	8.65831E-001	8.00806E-004	0.00000E+000	6.93363E-004	4.80080E-001	8.66104E-001	3.57420E+000	9	...........
	17	0.24	8.75224E-001	8.00720E-004	0.00000E+000	7.00809E-004	4.80080E-001	8.75472E-001	3.57420E+000	9	...........
	18	0.253333	8.84124E-001	8.01210E-004	0.00000E+000	7.08369E-004	4.80080E-001	8.84373E-001	3.57420E+000	9	...........
	19	0.266667	8.92568E-001	8.01011E-004	0.00000E+000	7.14956E-004	4.80080E-001	8.92842E-001	3.57420E+000	9	...........
	20	0.28	9.00684E-001	8.01027E-004	0.00000E+000	7.21473E-004	4.80080E-001	9.00932E-001	3.57420E+000	9	...........
	21	0.293333	9.08377E-001	8.00938E-004	0.00000E+000	7.27554E-004	4.80080E-001	9.08617E-001	3.57420E+000	9	...........
	22	0.306667	9.15789E-001	8.00973E-004	0.00000E+000	7.33522E-004	4.80080E-001	9.16045E-001	3.57420E+000	9	...........
	23	0.32	9.22949E-001	8.00769E-004	0.00000E+000	7.39069E-004	4.80080E-001	9.23148E-001	3.57420E+000	9	...........
	24	0.333333	9.29764E-001	8.00938E-004	0.00000E+000	7.44683E-004	4.80080E-001	9.29992E-001	3.57420E+000	9	...........
	25	0.346667	9.36314E-001	8.00906E-004	0.00000E+000	7.49899E-004	4.80080E-001	9.36524E-001	3.57420E+000	9	...........
	26	0.36	9.42599E-001	8.01050E-004	0.00000E+000	7.55069E-004	4.80080E-001	9.42834E-001	3.57420E+000	9	...........
	27	0.373333	9.48708E-001	8.00777E-004	0.00000E+000	7.59704E-004	4.80080E-001	9.48943E-001	3.57420E+000	9	...........
	28	0.386667	9.54584E-001	8.01101E-004	0.00000E+000	7.64719E-004	4.80080E-001	9.54848E-001	3.57420E+000	9	...........
	29	0.4	9.60228E-001	8.00887E-004	0.00000E+000	7.69034E-004	4.80080E-001	9.60510E-001	3.57420E+000	9	...........
	30	0.413333	9.65666E-001	8.01186E-004	0.00000E+000	7.73678E-004	4.80080E-001	9.65944E-001	3.57420E+000	9	...........
	31	0.426667	9.70929E-001	8.01081E-004	0.00000E+000	7.77792E-004	4.80080E-001	9.71221E-001	3.57420E+000	9	...........
	32	0.44	9.76043E-001	8.00783E-004	0.00000E+000	7.81599E-004	4.80080E-001	9.76339E-001	3.57420E+000	9	...........
	33	0.453333	9.80959E-001	8.01149E-004	0.00000E+000	7.85895E-004	4.80080E-001	9.81223E-001	3.57420E+000	9	...........
	34	0.466667	9.85712E-001	8.00834E-004	0.00000E+000	7.89391E-004	4.80080E-001	9.86005E-001	3.57420E+000	9	...........
	35	0.48	9.90305E-001	8.00562E-004	0.00000E+000	7.92800E-004	4.80080E-001	9.90609E-001	3.57420E+000	9	...........
	36	0.493333	9.94788E-001	8.00859E-004	0.00000E+000	7.96684E-004	4.80080E-001	9.95069E-001	3.57420E+000	9	...........
	37	0.505	9.98831E-001	8.00807E-004	0.00000E+000	7.99871E-004	4.80080E-001	9.99133E-001	3.57420E+000	9	...........
STARTTIMEOFFSET	QUANT	169.9849	Start Time Offset (s)
