EXPLAIN
TAG	PWR800_CHARGE
TITLE	LABEL	PWR Cyclic Charge Discharge (Cell) - Charge Step	Test &Identifier
DATE	LABEL	11-7-2017	Date
TIME	LABEL	13:54:54	Time
NOTES	NOTES	3	&Notes...
	supercap test cell
	0.8mg
	6M KOH
PSTAT	PSTAT	IFC5000-01520	Potentiostat
CAPACITY	QUANT	1.00000E-003	Capacity (A-hr)
CELLTYPE	SELECTOR	1	&Cell Type
WORKINGCONNECTION	SELECTOR	0	&Working Lead
MAXCHARGETIME	VARIABLEANDUNITS	1.00000E+002	s	1.00000E+002	second(s)	Max &Charge Time
CHARGECURRENT	QUANT	8.00000E-004	&Charge Current (A) 
VOLTAGEFINISH	TWOPARAM	F	1.00000E-003	3.60000E+003	&Voltage Finish	 I (A) < 	Max Time(s)
SAMPLETIME	QUANT	1.00000E-002	Sa&mple Period (s)
CHARGESTOPAT1	MULTIPARAM	4	1.00000E+000	Charge Stop At &1	Voltage > Limit	V
CHARGESTOPAT2	MULTIPARAM	0	0.00000E+000	Charge Stop At &2	None	N/A
AESBHCSELECTOR	TOGGLE	F	Save Both Half Cells
IRCOMP	TOGGLE	F	IR &Measure
EOC	QUANT	0	Open Circuit (V)
SEQUENCER	TOGGLE	TRUE	Run as Sequence
PSTATMODEL	IQUANT	53	Pstat Model
PSTATSECTION	LABEL	IFC5000-01520	Pstat Section
PSTATSERIALNO	LABEL	01520	Pstat Serial Number
CTRLMODE	IQUANT	0	Control Mode
ELECTROMETER	IQUANT	1	RE=0 or CS=1
IESTAB	IQUANT	0	I/E Stability
CASPEED	IQUANT	4	Control Amp Speed
CONVENTION	IQUANT	1	Current Convention
ICHRANGE	IQUANT	2	Ich Range
ICHRANGEMODE	TOGGLE	T	Ich Auto Range
ICHOFFSETENABLE	TOGGLE	F	Ich Offset Enable
ICHOFFSET	QUANT	0	Ich Offset (V)
ICHFILTER	IQUANT	1	Ich Filter
VCHRANGE	IQUANT	2	Vch Range
VCHRANGEMODE	TOGGLE	T	Vch Auto Range
VCHOFFSETENABLE	TOGGLE	F	Vch Offset Enable
VCHOFFSET	QUANT	0	Vch Offset (V)
VCHFILTER	IQUANT	1	Vch Filter
IERANGELOWERLIMIT	IQUANT	9	I/E Range Lower Limit
IERANGEMODE	TOGGLE	F	I/E AutoRange
IERANGE	IQUANT	9	I/E Range
ACHSELECT	IQUANT	1	Ach Select
ACHRANGE	IQUANT	2	Ach Range
ACHOFFSETENABLE	TOGGLE	F	Ach Offset Enable
ACHOFFSET	QUANT	0	Ach Offset (V)
ACHFILTER	IQUANT	1	Ach Filter
CABLEID	IQUANT	14	Cable ID
DCCALDATE	LABEL	5-7-2017	DC Calibration Date
ACCALDATE	LABEL	12/3/2015	AC Calibration Date
FRAMEWORKVERSION	QUANT	7.01	Framework Version
INSTRUMENTVERSION	LABEL	4.00	Instrument Version
CURVE	TABLE	38
	Pt	T	Vf	Im	Vu	Pwr	Sig	Ach	Temp	IERange	Over
	#	s	V	A	V	W	V	V	deg C	#	bits
	0	0.013333	5.55240E-001	8.00932E-004	0.00000E+000	4.44710E-004	4.80080E-001	5.55399E-001	3.57430E+000	9	...........
	1	0.026667	5.98182E-001	8.00899E-004	0.00000E+000	4.79084E-004	4.80080E-001	5.98391E-001	3.57430E+000	9	...........
	2	0.04	6.33487E-001	8.00998E-004	0.00000E+000	5.07422E-004	4.80080E-001	6.33646E-001	3.57430E+000	9	...........
	3	0.053333	6.63412E-001	8.00995E-004	0.00000E+000	5.31389E-004	4.80080E-001	6.63595E-001	3.57430E+000	9	...........
	4	0.066667	6.89455E-001	8.00835E-004	0.00000E+000	5.52139E-004	4.80080E-001	6.89635E-001	3.57430E+000	9	...........
	5	0.08	7.12487E-001	8.01103E-004	0.00000E+000	5.70776E-004	4.80080E-001	7.12685E-001	3.57430E+000	9	...........
	6	0.093333	7.33165E-001	8.00904E-004	0.00000E+000	5.87195E-004	4.80080E-001	7.33344E-001	3.57430E+000	9	...........
	7	0.106667	7.51906E-001	8.00701E-004	0.00000E+000	6.02052E-004	4.80080E-001	7.52108E-001	3.57430E+000	9	...........
	8	0.12	7.68996E-001	8.00691E-004	0.00000E+000	6.15728E-004	4.80080E-001	7.69214E-001	3.57430E+000	9	...........
	9	0.133333	7.84755E-001	8.00708E-004	0.00000E+000	6.28359E-004	4.80080E-001	7.84965E-001	3.57430E+000	9	...........
	10	0.146667	7.99321E-001	8.00862E-004	0.00000E+000	6.40145E-004	4.80080E-001	7.99531E-001	3.57430E+000	9	...........
	11	0.16	8.12817E-001	8.00820E-004	0.00000E+000	6.50920E-004	4.80080E-001	8.13026E-001	3.57430E+000	9	...........
	12	0.173333	8.25396E-001	8.00856E-004	0.00000E+000	6.61023E-004	4.80080E-001	8.25626E-001	3.57430E+000	9	...........
	13	0.186667	8.37186E-001	8.01122E-004	0.00000E+000	6.70688E-004	4.80080E-001	8.37441E-001	3.57430E+000	9	...........
	14	0.2	8.48302E-001	8.00870E-004	0.00000E+000	6.79380E-004	4.80080E-001	8.48554E-001	3.57430E+000	9	...........
	15	0.213333	8.58779E-001	8.00997E-004	0.00000E+000	6.87879E-004	4.80080E-001	8.59034E-001	3.57430E+000	9	...........
	16	0.226667	8.68699E-001	8.00793E-004	0.00000E+000	6.95648E-004	4.80080E-001	8.68956E-001	3.57430E+000	9	...........
	17	0.24	8.78077E-001	8.01212E-004	0.00000E+000	7.03526E-004	4.80080E-001	8.78329E-001	3.57430E+000	9	...........
	18	0.253333	8.87048E-001	8.00760E-004	0.00000E+000	7.10312E-004	4.80080E-001	8.87268E-001	3.57430E+000	9	...........
	19	0.266667	8.95541E-001	8.00881E-004	0.00000E+000	7.17222E-004	4.80080E-001	8.95799E-001	3.57430E+000	9	...........
	20	0.28	9.03652E-001	8.00717E-004	0.00000E+000	7.23569E-004	4.80080E-001	9.03905E-001	3.57430E+000	9	...........
	21	0.293333	9.11421E-001	8.00852E-004	0.00000E+000	7.29913E-004	4.80080E-001	9.11672E-001	3.57430E+000	9	...........
	22	0.306667	9.18831E-001	8.00767E-004	0.00000E+000	7.35770E-004	4.80080E-001	9.19093E-001	3.57430E+000	9	...........
	23	0.32	9.25935E-001	8.01122E-004	0.00000E+000	7.41787E-004	4.80080E-001	9.26168E-001	3.57430E+000	9	...........
	24	0.333333	9.32751E-001	8.01056E-004	0.00000E+000	7.47186E-004	4.80080E-001	9.32975E-001	3.57430E+000	9	...........
	25	0.346667	9.39277E-001	8.01022E-004	0.00000E+000	7.52382E-004	4.80080E-001	9.39538E-001	3.57430E+000	9	...........
	26	0.36	9.45553E-001	8.00984E-004	0.00000E+000	7.57373E-004	4.80080E-001	9.45830E-001	3.57430E+000	9	...........
	27	0.373333	9.51619E-001	8.01362E-004	0.00000E+000	7.62591E-004	4.80080E-001	9.51881E-001	3.57430E+000	9	...........
	28	0.386667	9.57433E-001	8.00580E-004	0.00000E+000	7.66502E-004	4.80080E-001	9.57700E-001	3.57430E+000	9	...........
	29	0.4	9.63062E-001	8.00618E-004	0.00000E+000	7.71045E-004	4.80080E-001	9.63345E-001	3.57445E+000	9	...........
	30	0.413333	9.68516E-001	8.01245E-004	0.00000E+000	7.76018E-004	4.80080E-001	9.68781E-001	3.57460E+000	9	...........
	31	0.426667	9.73793E-001	8.00772E-004	0.00000E+000	7.79786E-004	4.80080E-001	9.74063E-001	3.57460E+000	9	...........
	32	0.44	9.78862E-001	8.01002E-004	0.00000E+000	7.84071E-004	4.80080E-001	9.79143E-001	3.57460E+000	9	...........
	33	0.453333	9.83741E-001	8.01204E-004	0.00000E+000	7.88177E-004	4.80080E-001	9.84020E-001	3.57460E+000	9	...........
	34	0.466667	9.88513E-001	8.00971E-004	0.00000E+000	7.91770E-004	4.80080E-001	9.88795E-001	3.57460E+000	9	...........
	35	0.48	9.93093E-001	8.00829E-004	0.00000E+000	7.95299E-004	4.80080E-001	9.93376E-001	3.57460E+000	9	...........
	36	0.493333	9.97595E-001	8.01009E-004	0.00000E+000	7.99082E-004	4.80080E-001	9.97890E-001	3.57460E+000	9	...........
	37	0.495	1.00009E+000	8.00569E-004	0.00000E+000	8.00638E-004	4.80080E-001	1.00037E+000	3.57460E+000	9	...........
STARTTIMEOFFSET	QUANT	191.8116	Start Time Offset (s)
