EXPLAIN
TAG	PWR800_CHARGE
TITLE	LABEL	PWR Cyclic Charge Discharge (Cell) - Charge Step	Test &Identifier
DATE	LABEL	11-7-2017	Date
TIME	LABEL	13:54:11	Time
NOTES	NOTES	3	&Notes...
	supercap test cell
	0.8mg
	6M KOH
PSTAT	PSTAT	IFC5000-01520	Potentiostat
CAPACITY	QUANT	1.00000E-003	Capacity (A-hr)
CELLTYPE	SELECTOR	1	&Cell Type
WORKINGCONNECTION	SELECTOR	0	&Working Lead
MAXCHARGETIME	VARIABLEANDUNITS	1.00000E+002	s	1.00000E+002	second(s)	Max &Charge Time
CHARGECURRENT	QUANT	8.00000E-004	&Charge Current (A) 
VOLTAGEFINISH	TWOPARAM	F	1.00000E-003	3.60000E+003	&Voltage Finish	 I (A) < 	Max Time(s)
SAMPLETIME	QUANT	1.00000E-002	Sa&mple Period (s)
CHARGESTOPAT1	MULTIPARAM	4	1.00000E+000	Charge Stop At &1	Voltage > Limit	V
CHARGESTOPAT2	MULTIPARAM	0	0.00000E+000	Charge Stop At &2	None	N/A
AESBHCSELECTOR	TOGGLE	F	Save Both Half Cells
IRCOMP	TOGGLE	F	IR &Measure
EOC	QUANT	0	Open Circuit (V)
SEQUENCER	TOGGLE	TRUE	Run as Sequence
PSTATMODEL	IQUANT	53	Pstat Model
PSTATSECTION	LABEL	IFC5000-01520	Pstat Section
PSTATSERIALNO	LABEL	01520	Pstat Serial Number
CTRLMODE	IQUANT	0	Control Mode
ELECTROMETER	IQUANT	1	RE=0 or CS=1
IESTAB	IQUANT	0	I/E Stability
CASPEED	IQUANT	4	Control Amp Speed
CONVENTION	IQUANT	1	Current Convention
ICHRANGE	IQUANT	2	Ich Range
ICHRANGEMODE	TOGGLE	T	Ich Auto Range
ICHOFFSETENABLE	TOGGLE	F	Ich Offset Enable
ICHOFFSET	QUANT	0	Ich Offset (V)
ICHFILTER	IQUANT	1	Ich Filter
VCHRANGE	IQUANT	2	Vch Range
VCHRANGEMODE	TOGGLE	T	Vch Auto Range
VCHOFFSETENABLE	TOGGLE	F	Vch Offset Enable
VCHOFFSET	QUANT	0	Vch Offset (V)
VCHFILTER	IQUANT	1	Vch Filter
IERANGELOWERLIMIT	IQUANT	9	I/E Range Lower Limit
IERANGEMODE	TOGGLE	F	I/E AutoRange
IERANGE	IQUANT	9	I/E Range
ACHSELECT	IQUANT	1	Ach Select
ACHRANGE	IQUANT	2	Ach Range
ACHOFFSETENABLE	TOGGLE	F	Ach Offset Enable
ACHOFFSET	QUANT	0	Ach Offset (V)
ACHFILTER	IQUANT	1	Ach Filter
CABLEID	IQUANT	14	Cable ID
DCCALDATE	LABEL	5-7-2017	DC Calibration Date
ACCALDATE	LABEL	12/3/2015	AC Calibration Date
FRAMEWORKVERSION	QUANT	7.01	Framework Version
INSTRUMENTVERSION	LABEL	4.00	Instrument Version
CURVE	TABLE	38
	Pt	T	Vf	Im	Vu	Pwr	Sig	Ach	Temp	IERange	Over
	#	s	V	A	V	W	V	V	deg C	#	bits
	0	0.013333	5.55472E-001	8.00796E-004	0.00000E+000	4.44820E-004	4.80080E-001	5.55601E-001	3.57520E+000	9	...........
	1	0.026667	5.98239E-001	8.00614E-004	0.00000E+000	4.78958E-004	4.80080E-001	5.98381E-001	3.57520E+000	9	...........
	2	0.04	6.33290E-001	8.00675E-004	0.00000E+000	5.07060E-004	4.80080E-001	6.33413E-001	3.57520E+000	9	...........
	3	0.053333	6.63004E-001	8.01022E-004	0.00000E+000	5.31081E-004	4.80080E-001	6.63145E-001	3.57520E+000	9	...........
	4	0.066667	6.88841E-001	8.00721E-004	0.00000E+000	5.51570E-004	4.80080E-001	6.88977E-001	3.57520E+000	9	...........
	5	0.08	7.11688E-001	8.00977E-004	0.00000E+000	5.70046E-004	4.80080E-001	7.11854E-001	3.57520E+000	9	...........
	6	0.093333	7.32163E-001	8.00659E-004	0.00000E+000	5.86213E-004	4.80080E-001	7.32333E-001	3.57520E+000	9	...........
	7	0.106667	7.50694E-001	8.00954E-004	0.00000E+000	6.01272E-004	4.80080E-001	7.50877E-001	3.57520E+000	9	...........
	8	0.12	7.67640E-001	8.01061E-004	0.00000E+000	6.14926E-004	4.80080E-001	7.67855E-001	3.57520E+000	9	...........
	9	0.133333	7.83228E-001	8.00657E-004	0.00000E+000	6.27097E-004	4.80080E-001	7.83432E-001	3.57520E+000	9	...........
	10	0.146667	7.97634E-001	8.00518E-004	0.00000E+000	6.38520E-004	4.80080E-001	7.97852E-001	3.57520E+000	9	...........
	11	0.16	8.10964E-001	8.00716E-004	0.00000E+000	6.49351E-004	4.80080E-001	8.11212E-001	3.57520E+000	9	...........
	12	0.173333	8.23482E-001	8.01110E-004	0.00000E+000	6.59699E-004	4.80080E-001	8.23696E-001	3.57520E+000	9	...........
	13	0.186667	8.35138E-001	8.00896E-004	0.00000E+000	6.68858E-004	4.80080E-001	8.35396E-001	3.57520E+000	9	...........
	14	0.2	8.46152E-001	8.01086E-004	0.00000E+000	6.77840E-004	4.80080E-001	8.46437E-001	3.57520E+000	9	...........
	15	0.213333	8.56504E-001	8.01009E-004	0.00000E+000	6.86067E-004	4.80080E-001	8.56782E-001	3.57520E+000	9	...........
	16	0.226667	8.66309E-001	8.00873E-004	0.00000E+000	6.93804E-004	4.80080E-001	8.66571E-001	3.57520E+000	9	...........
	17	0.24	8.75664E-001	8.00662E-004	0.00000E+000	7.01111E-004	4.80080E-001	8.75917E-001	3.57520E+000	9	...........
	18	0.253333	8.84537E-001	8.00677E-004	0.00000E+000	7.08229E-004	4.80080E-001	8.84797E-001	3.57520E+000	9	...........
	19	0.266667	8.92963E-001	8.00876E-004	0.00000E+000	7.15153E-004	4.80080E-001	8.93185E-001	3.57520E+000	9	...........
	20	0.28	9.00998E-001	8.00730E-004	0.00000E+000	7.21457E-004	4.80080E-001	9.01225E-001	3.57520E+000	9	...........
	21	0.293333	9.08725E-001	8.01174E-004	0.00000E+000	7.28047E-004	4.80080E-001	9.08937E-001	3.57520E+000	9	...........
	22	0.306667	9.16067E-001	8.00923E-004	0.00000E+000	7.33700E-004	4.80080E-001	9.16324E-001	3.57520E+000	9	...........
	23	0.32	9.23206E-001	8.01329E-004	0.00000E+000	7.39792E-004	4.80080E-001	9.23402E-001	3.57520E+000	9	...........
	24	0.333333	9.29993E-001	8.00873E-004	0.00000E+000	7.44806E-004	4.80080E-001	9.30193E-001	3.57520E+000	9	...........
	25	0.346667	9.36479E-001	8.00924E-004	0.00000E+000	7.50049E-004	4.80080E-001	9.36714E-001	3.57520E+000	9	...........
	26	0.36	9.42761E-001	8.00859E-004	0.00000E+000	7.55018E-004	4.80080E-001	9.42994E-001	3.57520E+000	9	...........
	27	0.373333	9.48831E-001	8.00762E-004	0.00000E+000	7.59787E-004	4.80080E-001	9.49049E-001	3.57505E+000	9	...........
	28	0.386667	9.54677E-001	8.00908E-004	0.00000E+000	7.64608E-004	4.80080E-001	9.54905E-001	3.57500E+000	9	...........
	29	0.4	9.60321E-001	8.00963E-004	0.00000E+000	7.69182E-004	4.80080E-001	9.60589E-001	3.57500E+000	9	...........
	30	0.413333	9.65703E-001	8.01044E-004	0.00000E+000	7.73571E-004	4.80080E-001	9.66010E-001	3.57500E+000	9	...........
	31	0.426667	9.71000E-001	8.01021E-004	0.00000E+000	7.77792E-004	4.80080E-001	9.71298E-001	3.57500E+000	9	...........
	32	0.44	9.76072E-001	8.01192E-004	0.00000E+000	7.82021E-004	4.80080E-001	9.76334E-001	3.57500E+000	9	...........
	33	0.453333	9.80975E-001	8.01036E-004	0.00000E+000	7.85796E-004	4.80080E-001	9.81244E-001	3.57500E+000	9	...........
	34	0.466667	9.85694E-001	8.00741E-004	0.00000E+000	7.89286E-004	4.80080E-001	9.85985E-001	3.57500E+000	9	...........
	35	0.48	9.90300E-001	8.01271E-004	0.00000E+000	7.93499E-004	4.80080E-001	9.90582E-001	3.57500E+000	9	...........
	36	0.493333	9.94744E-001	8.00778E-004	0.00000E+000	7.96570E-004	4.80080E-001	9.95001E-001	3.57500E+000	9	...........
	37	0.505	9.98828E-001	8.01372E-004	0.00000E+000	8.00433E-004	4.80080E-001	9.99126E-001	3.57500E+000	9	...........
STARTTIMEOFFSET	QUANT	169.1066	Start Time Offset (s)
