EXPLAIN
TAG	PWR800_CHARGE
TITLE	LABEL	PWR Cyclic Charge Discharge (Cell) - Charge Step	Test &Identifier
DATE	LABEL	11-7-2017	Date
TIME	LABEL	13:52:12	Time
NOTES	NOTES	3	&Notes...
	supercap test cell
	0.8mg
	6M KOH
PSTAT	PSTAT	IFC5000-01520	Potentiostat
CAPACITY	QUANT	1.00000E-003	Capacity (A-hr)
CELLTYPE	SELECTOR	1	&Cell Type
WORKINGCONNECTION	SELECTOR	0	&Working Lead
MAXCHARGETIME	VARIABLEANDUNITS	1.00000E+002	s	1.00000E+002	second(s)	Max &Charge Time
CHARGECURRENT	QUANT	8.00000E-004	&Charge Current (A) 
VOLTAGEFINISH	TWOPARAM	F	1.00000E-003	3.60000E+003	&Voltage Finish	 I (A) < 	Max Time(s)
SAMPLETIME	QUANT	1.00000E-002	Sa&mple Period (s)
CHARGESTOPAT1	MULTIPARAM	4	1.00000E+000	Charge Stop At &1	Voltage > Limit	V
CHARGESTOPAT2	MULTIPARAM	0	0.00000E+000	Charge Stop At &2	None	N/A
AESBHCSELECTOR	TOGGLE	F	Save Both Half Cells
IRCOMP	TOGGLE	F	IR &Measure
EOC	QUANT	0	Open Circuit (V)
SEQUENCER	TOGGLE	TRUE	Run as Sequence
PSTATMODEL	IQUANT	53	Pstat Model
PSTATSECTION	LABEL	IFC5000-01520	Pstat Section
PSTATSERIALNO	LABEL	01520	Pstat Serial Number
CTRLMODE	IQUANT	0	Control Mode
ELECTROMETER	IQUANT	1	RE=0 or CS=1
IESTAB	IQUANT	0	I/E Stability
CASPEED	IQUANT	4	Control Amp Speed
CONVENTION	IQUANT	1	Current Convention
ICHRANGE	IQUANT	2	Ich Range
ICHRANGEMODE	TOGGLE	T	Ich Auto Range
ICHOFFSETENABLE	TOGGLE	F	Ich Offset Enable
ICHOFFSET	QUANT	0	Ich Offset (V)
ICHFILTER	IQUANT	1	Ich Filter
VCHRANGE	IQUANT	2	Vch Range
VCHRANGEMODE	TOGGLE	T	Vch Auto Range
VCHOFFSETENABLE	TOGGLE	F	Vch Offset Enable
VCHOFFSET	QUANT	0	Vch Offset (V)
VCHFILTER	IQUANT	1	Vch Filter
IERANGELOWERLIMIT	IQUANT	9	I/E Range Lower Limit
IERANGEMODE	TOGGLE	F	I/E AutoRange
IERANGE	IQUANT	9	I/E Range
ACHSELECT	IQUANT	1	Ach Select
ACHRANGE	IQUANT	2	Ach Range
ACHOFFSETENABLE	TOGGLE	F	Ach Offset Enable
ACHOFFSET	QUANT	0	Ach Offset (V)
ACHFILTER	IQUANT	1	Ach Filter
CABLEID	IQUANT	14	Cable ID
DCCALDATE	LABEL	5-7-2017	DC Calibration Date
ACCALDATE	LABEL	12/3/2015	AC Calibration Date
FRAMEWORKVERSION	QUANT	7.01	Framework Version
INSTRUMENTVERSION	LABEL	4.00	Instrument Version
CURVE	TABLE	41
	Pt	T	Vf	Im	Vu	Pwr	Sig	Ach	Temp	IERange	Over
	#	s	V	A	V	W	V	V	deg C	#	bits
	0	0.013333	5.50033E-001	8.00730E-004	0.00000E+000	4.40429E-004	4.80080E-001	5.50159E-001	3.57400E+000	9	...........
	1	0.026667	5.92143E-001	8.00872E-004	0.00000E+000	4.74231E-004	4.80080E-001	5.92305E-001	3.57400E+000	9	...........
	2	0.04	6.26629E-001	8.00738E-004	0.00000E+000	5.01766E-004	4.80080E-001	6.26786E-001	3.57400E+000	9	...........
	3	0.053333	6.55751E-001	8.01037E-004	0.00000E+000	5.25281E-004	4.80080E-001	6.55921E-001	3.57400E+000	9	...........
	4	0.066667	6.81046E-001	8.01138E-004	0.00000E+000	5.45611E-004	4.80080E-001	6.81218E-001	3.57400E+000	9	...........
	5	0.08	7.03366E-001	8.00896E-004	0.00000E+000	5.63323E-004	4.80080E-001	7.03570E-001	3.57400E+000	9	...........
	6	0.093333	7.23379E-001	8.01061E-004	0.00000E+000	5.79470E-004	4.80080E-001	7.23566E-001	3.57400E+000	9	...........
	7	0.106667	7.41512E-001	8.00927E-004	0.00000E+000	5.93897E-004	4.80080E-001	7.41681E-001	3.57400E+000	9	...........
	8	0.12	7.58072E-001	8.00728E-004	0.00000E+000	6.07009E-004	4.80080E-001	7.58254E-001	3.57400E+000	9	...........
	9	0.133333	7.73336E-001	8.00602E-004	0.00000E+000	6.19135E-004	4.80080E-001	7.73540E-001	3.57400E+000	9	...........
	10	0.146667	7.87422E-001	8.00816E-004	0.00000E+000	6.30580E-004	4.80080E-001	7.87606E-001	3.57400E+000	9	...........
	11	0.16	8.00605E-001	8.00726E-004	0.00000E+000	6.41065E-004	4.80080E-001	8.00781E-001	3.57400E+000	9	...........
	12	0.173333	8.12811E-001	8.00829E-004	0.00000E+000	6.50923E-004	4.80080E-001	8.13038E-001	3.57400E+000	9	...........
	13	0.186667	8.24305E-001	8.01184E-004	0.00000E+000	6.60420E-004	4.80080E-001	8.24530E-001	3.57400E+000	9	...........
	14	0.2	8.35121E-001	8.00890E-004	0.00000E+000	6.68840E-004	4.80080E-001	8.35367E-001	3.57400E+000	9	...........
	15	0.213333	8.45361E-001	8.00736E-004	0.00000E+000	6.76911E-004	4.80080E-001	8.45598E-001	3.57400E+000	9	...........
	16	0.226667	8.55034E-001	8.01014E-004	0.00000E+000	6.84894E-004	4.80080E-001	8.55277E-001	3.57400E+000	9	...........
	17	0.24	8.64211E-001	8.01088E-004	0.00000E+000	6.92309E-004	4.80080E-001	8.64466E-001	3.57400E+000	9	...........
	18	0.253333	8.72962E-001	8.01063E-004	0.00000E+000	6.99297E-004	4.80080E-001	8.73183E-001	3.57400E+000	9	...........
	19	0.266667	8.81286E-001	8.00920E-004	0.00000E+000	7.05840E-004	4.80080E-001	8.81536E-001	3.57400E+000	9	...........
	20	0.28	8.89278E-001	8.00794E-004	0.00000E+000	7.12128E-004	4.80080E-001	8.89522E-001	3.57400E+000	9	...........
	21	0.293333	8.96892E-001	8.00848E-004	0.00000E+000	7.18274E-004	4.80080E-001	8.97152E-001	3.57400E+000	9	...........
	22	0.306667	9.04166E-001	8.00898E-004	0.00000E+000	7.24145E-004	4.80080E-001	9.04412E-001	3.57400E+000	9	...........
	23	0.32	9.11186E-001	8.00673E-004	0.00000E+000	7.29562E-004	4.80080E-001	9.11413E-001	3.57400E+000	9	...........
	24	0.333333	9.17931E-001	8.00866E-004	0.00000E+000	7.35139E-004	4.80080E-001	9.18170E-001	3.57400E+000	9	...........
	25	0.346667	9.24478E-001	8.01229E-004	0.00000E+000	7.40718E-004	4.80080E-001	9.24663E-001	3.57400E+000	9	...........
	26	0.36	9.30708E-001	8.00581E-004	0.00000E+000	7.45108E-004	4.80080E-001	9.30928E-001	3.57400E+000	9	...........
	27	0.373333	9.36753E-001	8.00745E-004	0.00000E+000	7.50100E-004	4.80080E-001	9.37000E-001	3.57400E+000	9	...........
	28	0.386667	9.42571E-001	8.01293E-004	0.00000E+000	7.55276E-004	4.80080E-001	9.42815E-001	3.57400E+000	9	...........
	29	0.4	9.48224E-001	8.01095E-004	0.00000E+000	7.59618E-004	4.80080E-001	9.48458E-001	3.57400E+000	9	...........
	30	0.413333	9.53665E-001	8.00816E-004	0.00000E+000	7.63710E-004	4.80080E-001	9.53904E-001	3.57400E+000	9	...........
	31	0.426667	9.58906E-001	8.00990E-004	0.00000E+000	7.68074E-004	4.80080E-001	9.59140E-001	3.57400E+000	9	...........
	32	0.44	9.63961E-001	8.01179E-004	0.00000E+000	7.72305E-004	4.80080E-001	9.64245E-001	3.57400E+000	9	...........
	33	0.453333	9.68901E-001	8.01086E-004	0.00000E+000	7.76173E-004	4.80080E-001	9.69160E-001	3.57400E+000	9	...........
	34	0.466667	9.73735E-001	8.00918E-004	0.00000E+000	7.79882E-004	4.80080E-001	9.73979E-001	3.57400E+000	9	...........
	35	0.48	9.78377E-001	8.01141E-004	0.00000E+000	7.83818E-004	4.80080E-001	9.78631E-001	3.57400E+000	9	...........
	36	0.493333	9.82883E-001	8.01007E-004	0.00000E+000	7.87296E-004	4.80080E-001	9.83149E-001	3.57400E+000	9	...........
	37	0.506667	9.87220E-001	8.00848E-004	0.00000E+000	7.90613E-004	4.80080E-001	9.87492E-001	3.57400E+000	9	...........
	38	0.52	9.91438E-001	8.00840E-004	0.00000E+000	7.93983E-004	4.80080E-001	9.91704E-001	3.57400E+000	9	...........
	39	0.533333	9.95554E-001	8.01264E-004	0.00000E+000	7.97702E-004	4.80080E-001	9.95812E-001	3.57400E+000	9	...........
	40	0.543333	9.99052E-001	8.00763E-004	0.00000E+000	8.00005E-004	4.80080E-001	9.99327E-001	3.57400E+000	9	...........
STARTTIMEOFFSET	QUANT	105.1367	Start Time Offset (s)
