EXPLAIN
TAG	PWR800_CHARGE
TITLE	LABEL	PWR Cyclic Charge Discharge (Cell) - Charge Step	Test &Identifier
DATE	LABEL	11-7-2017	Date
TIME	LABEL	13:50:46	Time
NOTES	NOTES	3	&Notes...
	supercap test cell
	0.8mg
	6M KOH
PSTAT	PSTAT	IFC5000-01520	Potentiostat
CAPACITY	QUANT	1.00000E-003	Capacity (A-hr)
CELLTYPE	SELECTOR	1	&Cell Type
WORKINGCONNECTION	SELECTOR	0	&Working Lead
MAXCHARGETIME	VARIABLEANDUNITS	1.00000E+002	s	1.00000E+002	second(s)	Max &Charge Time
CHARGECURRENT	QUANT	8.00000E-004	&Charge Current (A) 
VOLTAGEFINISH	TWOPARAM	F	1.00000E-003	3.60000E+003	&Voltage Finish	 I (A) < 	Max Time(s)
SAMPLETIME	QUANT	1.00000E-002	Sa&mple Period (s)
CHARGESTOPAT1	MULTIPARAM	4	1.00000E+000	Charge Stop At &1	Voltage > Limit	V
CHARGESTOPAT2	MULTIPARAM	0	0.00000E+000	Charge Stop At &2	None	N/A
AESBHCSELECTOR	TOGGLE	F	Save Both Half Cells
IRCOMP	TOGGLE	F	IR &Measure
EOC	QUANT	0	Open Circuit (V)
SEQUENCER	TOGGLE	TRUE	Run as Sequence
PSTATMODEL	IQUANT	53	Pstat Model
PSTATSECTION	LABEL	IFC5000-01520	Pstat Section
PSTATSERIALNO	LABEL	01520	Pstat Serial Number
CTRLMODE	IQUANT	0	Control Mode
ELECTROMETER	IQUANT	1	RE=0 or CS=1
IESTAB	IQUANT	0	I/E Stability
CASPEED	IQUANT	4	Control Amp Speed
CONVENTION	IQUANT	1	Current Convention
ICHRANGE	IQUANT	2	Ich Range
ICHRANGEMODE	TOGGLE	T	Ich Auto Range
ICHOFFSETENABLE	TOGGLE	F	Ich Offset Enable
ICHOFFSET	QUANT	0	Ich Offset (V)
ICHFILTER	IQUANT	1	Ich Filter
VCHRANGE	IQUANT	2	Vch Range
VCHRANGEMODE	TOGGLE	T	Vch Auto Range
VCHOFFSETENABLE	TOGGLE	F	Vch Offset Enable
VCHOFFSET	QUANT	0	Vch Offset (V)
VCHFILTER	IQUANT	1	Vch Filter
IERANGELOWERLIMIT	IQUANT	9	I/E Range Lower Limit
IERANGEMODE	TOGGLE	F	I/E AutoRange
IERANGE	IQUANT	9	I/E Range
ACHSELECT	IQUANT	1	Ach Select
ACHRANGE	IQUANT	2	Ach Range
ACHOFFSETENABLE	TOGGLE	F	Ach Offset Enable
ACHOFFSET	QUANT	0	Ach Offset (V)
ACHFILTER	IQUANT	1	Ach Filter
CABLEID	IQUANT	14	Cable ID
DCCALDATE	LABEL	5-7-2017	DC Calibration Date
ACCALDATE	LABEL	12/3/2015	AC Calibration Date
FRAMEWORKVERSION	QUANT	7.01	Framework Version
INSTRUMENTVERSION	LABEL	4.00	Instrument Version
CURVE	TABLE	44
	Pt	T	Vf	Im	Vu	Pwr	Sig	Ach	Temp	IERange	Over
	#	s	V	A	V	W	V	V	deg C	#	bits
	0	0.013333	5.57302E-001	8.00884E-004	0.00000E+000	4.46334E-004	4.80080E-001	5.57442E-001	3.57380E+000	9	...........
	1	0.026667	5.97921E-001	8.00889E-004	0.00000E+000	4.78868E-004	4.80080E-001	5.98097E-001	3.57380E+000	9	...........
	2	0.04	6.31003E-001	8.00998E-004	0.00000E+000	5.05433E-004	4.80080E-001	6.31132E-001	3.57380E+000	9	...........
	3	0.053333	6.58835E-001	8.01390E-004	0.00000E+000	5.27984E-004	4.80080E-001	6.58963E-001	3.57380E+000	9	...........
	4	0.066667	6.82885E-001	8.01127E-004	0.00000E+000	5.47078E-004	4.80080E-001	6.83064E-001	3.57380E+000	9	...........
	5	0.08	7.04117E-001	8.00832E-004	0.00000E+000	5.63879E-004	4.80080E-001	7.04270E-001	3.57380E+000	9	...........
	6	0.093333	7.23117E-001	8.00740E-004	0.00000E+000	5.79029E-004	4.80080E-001	7.23273E-001	3.57380E+000	9	...........
	7	0.106667	7.40320E-001	8.00874E-004	0.00000E+000	5.92903E-004	4.80080E-001	7.40499E-001	3.57380E+000	9	...........
	8	0.12	7.56021E-001	8.01100E-004	0.00000E+000	6.05649E-004	4.80080E-001	7.56179E-001	3.57380E+000	9	...........
	9	0.133333	7.70464E-001	8.00836E-004	0.00000E+000	6.17015E-004	4.80080E-001	7.70655E-001	3.57380E+000	9	...........
	10	0.146667	7.83852E-001	8.01102E-004	0.00000E+000	6.27946E-004	4.80080E-001	7.84067E-001	3.57380E+000	9	...........
	11	0.16	7.96308E-001	8.01086E-004	0.00000E+000	6.37911E-004	4.80080E-001	7.96516E-001	3.57380E+000	9	...........
	12	0.173333	8.07934E-001	8.00898E-004	0.00000E+000	6.47073E-004	4.80080E-001	8.08138E-001	3.57380E+000	9	...........
	13	0.186667	8.18873E-001	8.01232E-004	0.00000E+000	6.56107E-004	4.80080E-001	8.19073E-001	3.57380E+000	9	...........
	14	0.2	8.29138E-001	8.01072E-004	0.00000E+000	6.64199E-004	4.80080E-001	8.29362E-001	3.57380E+000	9	...........
	15	0.213333	8.38884E-001	8.01102E-004	0.00000E+000	6.72032E-004	4.80080E-001	8.39112E-001	3.57380E+000	9	...........
	16	0.226667	8.48146E-001	8.00706E-004	0.00000E+000	6.79115E-004	4.80080E-001	8.48356E-001	3.57380E+000	9	...........
	17	0.24	8.56942E-001	8.01038E-004	0.00000E+000	6.86443E-004	4.80080E-001	8.57153E-001	3.57380E+000	9	...........
	18	0.253333	8.65305E-001	8.01067E-004	0.00000E+000	6.93167E-004	4.80080E-001	8.65527E-001	3.57380E+000	9	...........
	19	0.266667	8.73354E-001	8.00673E-004	0.00000E+000	6.99271E-004	4.80080E-001	8.73553E-001	3.57380E+000	9	...........
	20	0.28	8.80992E-001	8.01079E-004	0.00000E+000	7.05745E-004	4.80080E-001	8.81219E-001	3.57380E+000	9	...........
	21	0.293333	8.88316E-001	8.00759E-004	0.00000E+000	7.11327E-004	4.80080E-001	8.88548E-001	3.57380E+000	9	...........
	22	0.306667	8.95337E-001	8.01255E-004	0.00000E+000	7.17393E-004	4.80080E-001	8.95575E-001	3.57380E+000	9	...........
	23	0.32	9.02119E-001	8.00903E-004	0.00000E+000	7.22510E-004	4.80080E-001	9.02369E-001	3.57380E+000	9	...........
	24	0.333333	9.08641E-001	8.01137E-004	0.00000E+000	7.27946E-004	4.80080E-001	9.08880E-001	3.57380E+000	9	...........
	25	0.346667	9.14905E-001	8.00979E-004	0.00000E+000	7.32820E-004	4.80080E-001	9.15145E-001	3.57380E+000	9	...........
	26	0.36	9.20971E-001	8.00936E-004	0.00000E+000	7.37638E-004	4.80080E-001	9.21187E-001	3.57380E+000	9	...........
	27	0.373333	9.26823E-001	8.00800E-004	0.00000E+000	7.42200E-004	4.80080E-001	9.27034E-001	3.57380E+000	9	...........
	28	0.386667	9.32501E-001	8.01167E-004	0.00000E+000	7.47089E-004	4.80080E-001	9.32710E-001	3.57380E+000	9	...........
	29	0.4	9.37952E-001	8.00807E-004	0.00000E+000	7.51118E-004	4.80080E-001	9.38175E-001	3.57380E+000	9	...........
	30	0.413333	9.43224E-001	8.00868E-004	0.00000E+000	7.55398E-004	4.80080E-001	9.43454E-001	3.57380E+000	9	...........
	31	0.426667	9.48359E-001	8.01138E-004	0.00000E+000	7.59767E-004	4.80080E-001	9.48596E-001	3.57380E+000	9	...........
	32	0.44	9.53331E-001	8.01072E-004	0.00000E+000	7.63687E-004	4.80080E-001	9.53554E-001	3.57380E+000	9	...........
	33	0.453333	9.58111E-001	8.00889E-004	0.00000E+000	7.67340E-004	4.80080E-001	9.58336E-001	3.57380E+000	9	...........
	34	0.466667	9.62746E-001	8.00857E-004	0.00000E+000	7.71021E-004	4.80080E-001	9.63008E-001	3.57380E+000	9	...........
	35	0.48	9.67289E-001	8.01153E-004	0.00000E+000	7.74947E-004	4.80080E-001	9.67513E-001	3.57380E+000	9	...........
	36	0.493333	9.71657E-001	8.00986E-004	0.00000E+000	7.78283E-004	4.80080E-001	9.71930E-001	3.57380E+000	9	...........
	37	0.506667	9.76000E-001	8.01100E-004	0.00000E+000	7.81874E-004	4.80080E-001	9.76241E-001	3.57380E+000	9	...........
	38	0.52	9.80126E-001	8.00856E-004	0.00000E+000	7.84940E-004	4.80080E-001	9.80368E-001	3.57380E+000	9	...........
	39	0.533333	9.84145E-001	8.00849E-004	0.00000E+000	7.88152E-004	4.80080E-001	9.84391E-001	3.57380E+000	9	...........
	40	0.546667	9.88050E-001	8.00989E-004	0.00000E+000	7.91417E-004	4.80080E-001	9.88309E-001	3.57380E+000	9	...........
	41	0.56	9.91805E-001	8.00869E-004	0.00000E+000	7.94306E-004	4.80080E-001	9.92055E-001	3.57380E+000	9	...........
	42	0.573333	9.95478E-001	8.00823E-004	0.00000E+000	7.97202E-004	4.80080E-001	9.95737E-001	3.57380E+000	9	...........
	43	0.585	9.98888E-001	8.00794E-004	0.00000E+000	7.99904E-004	4.80080E-001	9.99129E-001	3.57380E+000	9	...........
STARTTIMEOFFSET	QUANT	58.70333	Start Time Offset (s)
