EXPLAIN
TAG	PWR800_CHARGE
TITLE	LABEL	PWR Cyclic Charge Discharge (Cell) - Charge Step	Test &Identifier
DATE	LABEL	11-7-2017	Date
TIME	LABEL	13:52:31	Time
NOTES	NOTES	3	&Notes...
	supercap test cell
	0.8mg
	6M KOH
PSTAT	PSTAT	IFC5000-01520	Potentiostat
CAPACITY	QUANT	1.00000E-003	Capacity (A-hr)
CELLTYPE	SELECTOR	1	&Cell Type
WORKINGCONNECTION	SELECTOR	0	&Working Lead
MAXCHARGETIME	VARIABLEANDUNITS	1.00000E+002	s	1.00000E+002	second(s)	Max &Charge Time
CHARGECURRENT	QUANT	8.00000E-004	&Charge Current (A) 
VOLTAGEFINISH	TWOPARAM	F	1.00000E-003	3.60000E+003	&Voltage Finish	 I (A) < 	Max Time(s)
SAMPLETIME	QUANT	1.00000E-002	Sa&mple Period (s)
CHARGESTOPAT1	MULTIPARAM	4	1.00000E+000	Charge Stop At &1	Voltage > Limit	V
CHARGESTOPAT2	MULTIPARAM	0	0.00000E+000	Charge Stop At &2	None	N/A
AESBHCSELECTOR	TOGGLE	F	Save Both Half Cells
IRCOMP	TOGGLE	F	IR &Measure
EOC	QUANT	0	Open Circuit (V)
SEQUENCER	TOGGLE	TRUE	Run as Sequence
PSTATMODEL	IQUANT	53	Pstat Model
PSTATSECTION	LABEL	IFC5000-01520	Pstat Section
PSTATSERIALNO	LABEL	01520	Pstat Serial Number
CTRLMODE	IQUANT	0	Control Mode
ELECTROMETER	IQUANT	1	RE=0 or CS=1
IESTAB	IQUANT	0	I/E Stability
CASPEED	IQUANT	4	Control Amp Speed
CONVENTION	IQUANT	1	Current Convention
ICHRANGE	IQUANT	2	Ich Range
ICHRANGEMODE	TOGGLE	T	Ich Auto Range
ICHOFFSETENABLE	TOGGLE	F	Ich Offset Enable
ICHOFFSET	QUANT	0	Ich Offset (V)
ICHFILTER	IQUANT	1	Ich Filter
VCHRANGE	IQUANT	2	Vch Range
VCHRANGEMODE	TOGGLE	T	Vch Auto Range
VCHOFFSETENABLE	TOGGLE	F	Vch Offset Enable
VCHOFFSET	QUANT	0	Vch Offset (V)
VCHFILTER	IQUANT	1	Vch Filter
IERANGELOWERLIMIT	IQUANT	9	I/E Range Lower Limit
IERANGEMODE	TOGGLE	F	I/E AutoRange
IERANGE	IQUANT	9	I/E Range
ACHSELECT	IQUANT	1	Ach Select
ACHRANGE	IQUANT	2	Ach Range
ACHOFFSETENABLE	TOGGLE	F	Ach Offset Enable
ACHOFFSET	QUANT	0	Ach Offset (V)
ACHFILTER	IQUANT	1	Ach Filter
CABLEID	IQUANT	14	Cable ID
DCCALDATE	LABEL	5-7-2017	DC Calibration Date
ACCALDATE	LABEL	12/3/2015	AC Calibration Date
FRAMEWORKVERSION	QUANT	7.01	Framework Version
INSTRUMENTVERSION	LABEL	4.00	Instrument Version
CURVE	TABLE	41
	Pt	T	Vf	Im	Vu	Pwr	Sig	Ach	Temp	IERange	Over
	#	s	V	A	V	W	V	V	deg C	#	bits
	0	0.013333	5.50484E-001	8.00724E-004	0.00000E+000	4.40786E-004	4.80080E-001	5.50634E-001	3.57550E+000	9	...........
	1	0.026667	5.92854E-001	8.01073E-004	0.00000E+000	4.74920E-004	4.80080E-001	5.93036E-001	3.57544E+000	9	...........
	2	0.04	6.27525E-001	8.00654E-004	0.00000E+000	5.02430E-004	4.80080E-001	6.27687E-001	3.57540E+000	9	...........
	3	0.053333	6.56867E-001	8.01101E-004	0.00000E+000	5.26217E-004	4.80080E-001	6.57019E-001	3.57540E+000	9	...........
	4	0.066667	6.82317E-001	8.01058E-004	0.00000E+000	5.46576E-004	4.80080E-001	6.82484E-001	3.57540E+000	9	...........
	5	0.08	7.04762E-001	8.01243E-004	0.00000E+000	5.64686E-004	4.80080E-001	7.04945E-001	3.57540E+000	9	...........
	6	0.093333	7.24909E-001	8.00796E-004	0.00000E+000	5.80505E-004	4.80080E-001	7.25064E-001	3.57540E+000	9	...........
	7	0.106667	7.43114E-001	8.00741E-004	0.00000E+000	5.95041E-004	4.80080E-001	7.43296E-001	3.57540E+000	9	...........
	8	0.12	7.59752E-001	8.01056E-004	0.00000E+000	6.08604E-004	4.80080E-001	7.59940E-001	3.57540E+000	9	...........
	9	0.133333	7.75067E-001	8.01237E-004	0.00000E+000	6.21012E-004	4.80080E-001	7.75249E-001	3.57540E+000	9	...........
	10	0.146667	7.89202E-001	8.00814E-004	0.00000E+000	6.32004E-004	4.80080E-001	7.89392E-001	3.57540E+000	9	...........
	11	0.16	8.02370E-001	8.00906E-004	0.00000E+000	6.42623E-004	4.80080E-001	8.02537E-001	3.57540E+000	9	...........
	12	0.173333	8.14646E-001	8.00924E-004	0.00000E+000	6.52470E-004	4.80080E-001	8.14833E-001	3.57540E+000	9	...........
	13	0.186667	8.26219E-001	8.01130E-004	0.00000E+000	6.61909E-004	4.80080E-001	8.26407E-001	3.57540E+000	9	...........
	14	0.2	8.37066E-001	8.00943E-004	0.00000E+000	6.70442E-004	4.80080E-001	8.37288E-001	3.57540E+000	9	...........
	15	0.213333	8.47331E-001	8.00916E-004	0.00000E+000	6.78641E-004	4.80080E-001	8.47538E-001	3.57540E+000	9	...........
	16	0.226667	8.57001E-001	8.01177E-004	0.00000E+000	6.86610E-004	4.80080E-001	8.57231E-001	3.57540E+000	9	...........
	17	0.24	8.66182E-001	8.00697E-004	0.00000E+000	6.93549E-004	4.80080E-001	8.66446E-001	3.57540E+000	9	...........
	18	0.253333	8.74979E-001	8.01062E-004	0.00000E+000	7.00912E-004	4.80080E-001	8.75208E-001	3.57540E+000	9	...........
	19	0.266667	8.83335E-001	8.00811E-004	0.00000E+000	7.07384E-004	4.80080E-001	8.83557E-001	3.57540E+000	9	...........
	20	0.28	8.91295E-001	8.00937E-004	0.00000E+000	7.13871E-004	4.80080E-001	8.91500E-001	3.57540E+000	9	...........
	21	0.293333	8.98967E-001	8.01064E-004	0.00000E+000	7.20130E-004	4.80080E-001	8.99194E-001	3.57540E+000	9	...........
	22	0.306667	9.06296E-001	8.00971E-004	0.00000E+000	7.25917E-004	4.80080E-001	9.06530E-001	3.57540E+000	9	...........
	23	0.32	9.13289E-001	8.01172E-004	0.00000E+000	7.31702E-004	4.80080E-001	9.13537E-001	3.57540E+000	9	...........
	24	0.333333	9.20078E-001	8.00770E-004	0.00000E+000	7.36771E-004	4.80080E-001	9.20303E-001	3.57540E+000	9	...........
	25	0.346667	9.26590E-001	8.00621E-004	0.00000E+000	7.41848E-004	4.80080E-001	9.26807E-001	3.57540E+000	9	...........
	26	0.36	9.32835E-001	8.01213E-004	0.00000E+000	7.47399E-004	4.80080E-001	9.33066E-001	3.57540E+000	9	...........
	27	0.373333	9.38861E-001	8.01155E-004	0.00000E+000	7.52173E-004	4.80080E-001	9.39121E-001	3.57540E+000	9	...........
	28	0.386667	9.44667E-001	8.00986E-004	0.00000E+000	7.56665E-004	4.80080E-001	9.44920E-001	3.57540E+000	9	...........
	29	0.4	9.50338E-001	8.00864E-004	0.00000E+000	7.61091E-004	4.80080E-001	9.50593E-001	3.57540E+000	9	...........
	30	0.413333	9.55812E-001	8.00742E-004	0.00000E+000	7.65359E-004	4.80080E-001	9.56036E-001	3.57540E+000	9	...........
	31	0.426667	9.61068E-001	8.00866E-004	0.00000E+000	7.69687E-004	4.80080E-001	9.61350E-001	3.57540E+000	9	...........
	32	0.44	9.66135E-001	8.01093E-004	0.00000E+000	7.73964E-004	4.80080E-001	9.66398E-001	3.57540E+000	9	...........
	33	0.453333	9.71089E-001	8.01097E-004	0.00000E+000	7.77937E-004	4.80080E-001	9.71363E-001	3.57540E+000	9	...........
	34	0.466667	9.75918E-001	8.00897E-004	0.00000E+000	7.81610E-004	4.80080E-001	9.76151E-001	3.57540E+000	9	...........
	35	0.48	9.80535E-001	8.01027E-004	0.00000E+000	7.85435E-004	4.80080E-001	9.80765E-001	3.57540E+000	9	...........
	36	0.493333	9.85033E-001	8.01064E-004	0.00000E+000	7.89074E-004	4.80080E-001	9.85267E-001	3.57540E+000	9	...........
	37	0.506667	9.89393E-001	8.00888E-004	0.00000E+000	7.92393E-004	4.80080E-001	9.89650E-001	3.57540E+000	9	...........
	38	0.52	9.93600E-001	8.00976E-004	0.00000E+000	7.95850E-004	4.80080E-001	9.93859E-001	3.57540E+000	9	...........
	39	0.533333	9.97700E-001	8.00931E-004	0.00000E+000	7.99089E-004	4.80080E-001	9.97966E-001	3.57540E+000	9	...........
	40	0.536667	1.00022E+000	8.01136E-004	0.00000E+000	8.01309E-004	4.80080E-001	1.00049E+000	3.57540E+000	9	...........
STARTTIMEOFFSET	QUANT	115.2883	Start Time Offset (s)
