EXPLAIN
TAG	CV
TITLE	LABEL	Cyclic Voltammetry	Test Identifier
DATE	LABEL	12-7-2017	Date
TIME	LABEL	15:38:57	Time
NOTES	NOTES	1	Notes...
	0.4mg

PSTAT	PSTAT	IFC5000-01520	Potentiostat
VINIT	POTEN	0.00000E+000	F	Initial E (V)
VLIMIT1	POTEN	-8.00000E-001	F	Scan Limit 1 (V)
VLIMIT2	POTEN	8.00000E-001	F	Scan Limit 2 (V)
VFINAL	POTEN	0.00000E+000	F	Final E (V)
SCANRATE	QUANT	3.99999E+002	A Real Number
STEPSIZE	QUANT	1.00000E+001	Step Size (mV)
CYCLES	IQUANT	3	Cycles (#)
IMODE	SELECTOR	0	I/E Range Mode
IRANGE	QUANT	2.50000E+002	Max Current (mA)
AREA	QUANT	3.84800E-001	A Real Number
EQDELAY	QUANT	1.00000E+000	Equil. Time (s)
IRCOMP	SELECTOR	0	IRComp
PFCOR	QUANT	2.50000E+002	PF Corr. (ohm)
SAMPLINGMODE	SELECTOR	0	Sampling Mode
EOC	QUANT	0	Open Circuit (V)
SEQUENCER	TOGGLE	TRUE	Run as Sequence
PSTATMODEL	IQUANT	53	Pstat Model
PSTATSECTION	LABEL	IFC5000-01520	Pstat Section
PSTATSERIALNO	LABEL	01520	Pstat Serial Number
CTRLMODE	IQUANT	1	Control Mode
ELECTROMETER	IQUANT	0	RE=0 or CS=1
IESTAB	IQUANT	2	I/E Stability
CASPEED	IQUANT	4	Control Amp Speed
CONVENTION	IQUANT	1	Current Convention
ICHRANGE	IQUANT	2	Ich Range
ICHRANGEMODE	TOGGLE	F	Ich Auto Range
ICHOFFSETENABLE	TOGGLE	F	Ich Offset Enable
ICHOFFSET	QUANT	0	Ich Offset (V)
ICHFILTER	IQUANT	3	Ich Filter
VCHRANGE	IQUANT	2	Vch Range
VCHRANGEMODE	TOGGLE	F	Vch Auto Range
VCHOFFSETENABLE	TOGGLE	F	Vch Offset Enable
VCHOFFSET	QUANT	0	Vch Offset (V)
VCHFILTER	IQUANT	3	Vch Filter
IERANGELOWERLIMIT	IQUANT	7	I/E Range Lower Limit
IERANGEMODE	TOGGLE	T	I/E AutoRange
IERANGE	IQUANT	11	I/E Range
ACHSELECT	IQUANT	1	Ach Select
ACHRANGE	IQUANT	2	Ach Range
ACHOFFSETENABLE	TOGGLE	F	Ach Offset Enable
ACHOFFSET	QUANT	0	Ach Offset (V)
ACHFILTER	IQUANT	1	Ach Filter
CABLEID	IQUANT	14	Cable ID
DCCALDATE	LABEL	5-7-2017	DC Calibration Date
ACCALDATE	LABEL	12/3/2015	AC Calibration Date
FRAMEWORKVERSION	QUANT	7.01	Framework Version
INSTRUMENTVERSION	LABEL	4.00	Instrument Version
CURVE1	TABLE
	Pt	T	Vf	Im	Vu	Sig	Ach	IERange	Over
	#	s	V vs. Ref.	A	V	V	V	#	bits
	0	0.025	-1.65120E-004	-8.86577E-005	0.00000E+000	0.00000E+000	-5.33797E-004	11	...........
	1	0.05	-1.05651E-002	-9.39927E-005	0.00000E+000	-9.99874E-003	-1.03374E-002	10	...........
	2	0.075	-2.03651E-002	-1.11744E-004	0.00000E+000	-1.99975E-002	-2.03411E-002	9	...........
	3	0.1	-3.03651E-002	-1.30725E-004	0.00000E+000	-2.99962E-002	-3.03448E-002	8	...........
	4	0.125	-4.01651E-002	-1.48237E-004	0.00000E+000	-3.99949E-002	-4.05486E-002	8	...........
	5	0.15	-5.01651E-002	-1.64214E-004	0.00000E+000	-4.99937E-002	-5.03522E-002	8	...........
	6	0.175	-6.01651E-002	-1.79957E-004	0.00000E+000	-5.99924E-002	-6.03559E-002	8	...........
	7	0.2	-7.03651E-002	-1.93981E-004	0.00000E+000	-6.99912E-002	-7.03596E-002	8	...........
	8	0.225	-8.01651E-002	-2.08338E-004	0.00000E+000	-7.99899E-002	-8.03633E-002	8	...........
	9	0.25	-9.01651E-002	-2.21560E-004	0.00000E+000	-8.99886E-002	-9.03670E-002	8	...........
	10	0.275	-1.00165E-001	-2.34399E-004	0.00000E+000	-9.99874E-002	-1.00371E-001	8	...........
	11	0.3	-1.10365E-001	-2.46185E-004	0.00000E+000	-1.09986E-001	-1.10374E-001	8	...........
	12	0.325	-1.20165E-001	-2.57421E-004	0.00000E+000	-1.19985E-001	-1.20378E-001	8	...........
	13	0.35	-1.30165E-001	-2.68790E-004	0.00000E+000	-1.29984E-001	-1.30182E-001	8	...........
	14	0.375	-1.39965E-001	-2.79341E-004	0.00000E+000	-1.39982E-001	-1.40385E-001	8	...........
	15	0.4	-1.50165E-001	-2.89608E-004	0.00000E+000	-1.49981E-001	-1.50389E-001	8	...........
	16	0.425	-1.60165E-001	-2.99625E-004	0.00000E+000	-1.59980E-001	-1.60393E-001	8	...........
	17	0.45	-1.70365E-001	-3.08957E-004	0.00000E+000	-1.69979E-001	-1.70397E-001	8	...........
	18	0.475	-1.80165E-001	-3.17989E-004	0.00000E+000	-1.79977E-001	-1.80400E-001	8	...........
	19	0.5	-1.90165E-001	-3.26536E-004	0.00000E+000	-1.89976E-001	-1.90204E-001	8	...........
	20	0.525	-2.00365E-001	-3.34667E-004	0.00000E+000	-1.99975E-001	-2.00408E-001	8	...........
	21	0.55	-2.10365E-001	-3.43582E-004	0.00000E+000	-2.10023E-001	-2.10211E-001	8	...........
	22	0.575	-2.20165E-001	-3.51812E-004	0.00000E+000	-2.20022E-001	-2.20215E-001	8	...........
	23	0.6	-2.30165E-001	-3.58724E-004	0.00000E+000	-2.30021E-001	-2.30219E-001	8	...........
	24	0.625	-2.40365E-001	-3.66787E-004	0.00000E+000	-2.40020E-001	-2.40222E-001	8	...........
	25	0.65	-2.50165E-001	-3.73699E-004	0.00000E+000	-2.50018E-001	-2.50226E-001	8	...........
	26	0.675	-2.60165E-001	-3.80026E-004	0.00000E+000	-2.60017E-001	-2.60230E-001	8	...........
	27	0.7	-2.70165E-001	-3.87071E-004	0.00000E+000	-2.70016E-001	-2.70033E-001	8	...........
	28	0.725	-2.80165E-001	-3.93632E-004	0.00000E+000	-2.80015E-001	-2.80237E-001	8	...........
	29	0.75	-2.90165E-001	-3.99526E-004	0.00000E+000	-2.90013E-001	-2.90241E-001	8	...........
	30	0.775	-2.99965E-001	-4.05786E-004	0.00000E+000	-3.00012E-001	-3.00245E-001	8	...........
	31	0.8	-3.10165E-001	-4.11395E-004	0.00000E+000	-3.10011E-001	-3.10048E-001	8	...........
	32	0.825	-3.20165E-001	-4.16821E-004	0.00000E+000	-3.20010E-001	-3.20252E-001	8	...........
	33	0.85	-3.29965E-001	-4.22598E-004	0.00000E+000	-3.30008E-001	-3.30256E-001	8	...........
	34	0.875	-3.40165E-001	-4.27823E-004	0.00000E+000	-3.40007E-001	-3.40259E-001	8	...........
	35	0.9	-3.50165E-001	-4.32731E-004	0.00000E+000	-3.50006E-001	-3.50063E-001	8	...........
	36	0.925	-3.60165E-001	-4.37606E-004	0.00000E+000	-3.60005E-001	-3.60067E-001	8	...........
	37	0.95	-3.69965E-001	-4.42347E-004	0.00000E+000	-3.70003E-001	-3.70070E-001	8	...........
	38	0.975	-3.79965E-001	-4.46538E-004	0.00000E+000	-3.80002E-001	-3.80074E-001	8	...........
	39	1	-3.90165E-001	-4.51315E-004	0.00000E+000	-3.90001E-001	-3.90078E-001	9	...........
	40	1.025	-3.99965E-001	-4.55149E-004	0.00000E+000	-3.99999E-001	-4.00081E-001	9	...........
	41	1.05	-4.09965E-001	-4.59650E-004	0.00000E+000	-4.09998E-001	-4.10085E-001	9	...........
	42	1.075	-4.19965E-001	-4.64151E-004	0.00000E+000	-4.19997E-001	-4.19889E-001	9	...........
	43	1.1	-4.29965E-001	-4.67985E-004	0.00000E+000	-4.29996E-001	-4.29893E-001	9	...........
	44	1.125	-4.40165E-001	-4.71819E-004	0.00000E+000	-4.39994E-001	-4.40096E-001	9	...........
	45	1.15	-4.49965E-001	-4.75820E-004	0.00000E+000	-4.49993E-001	-4.50100E-001	9	...........
	46	1.175	-4.59965E-001	-4.79154E-004	0.00000E+000	-4.59992E-001	-4.60304E-001	9	...........
	47	1.2	-4.69765E-001	-4.82988E-004	0.00000E+000	-4.69991E-001	-4.69907E-001	9	...........
	48	1.225	-4.79965E-001	-4.86489E-004	0.00000E+000	-4.79989E-001	-4.80111E-001	9	...........
	49	1.25	-4.90165E-001	-4.89490E-004	0.00000E+000	-4.89988E-001	-4.90115E-001	9	...........
	50	1.275	-5.00165E-001	-4.92657E-004	0.00000E+000	-4.99987E-001	-5.00118E-001	9	...........
	51	1.3	-5.10165E-001	-4.95491E-004	0.00000E+000	-5.09986E-001	-5.09922E-001	9	...........
	52	1.325	-5.19965E-001	-4.99325E-004	0.00000E+000	-5.19984E-001	-5.19926E-001	9	...........
	53	1.35	-5.29765E-001	-5.02659E-004	0.00000E+000	-5.29983E-001	-5.30130E-001	9	...........
	54	1.375	-5.39965E-001	-5.05660E-004	0.00000E+000	-5.39982E-001	-5.39933E-001	9	...........
	55	1.4	-5.49765E-001	-5.08994E-004	0.00000E+000	-5.49981E-001	-5.49937E-001	9	...........
	56	1.425	-5.59965E-001	-5.12161E-004	0.00000E+000	-5.59979E-001	-5.59941E-001	9	...........
	57	1.45	-5.69765E-001	-5.15495E-004	0.00000E+000	-5.69978E-001	-5.69944E-001	9	...........
	58	1.475	-5.80165E-001	-5.17996E-004	0.00000E+000	-5.79977E-001	-5.79748E-001	9	...........
	59	1.5	-5.89765E-001	-5.21496E-004	0.00000E+000	-5.89975E-001	-5.90152E-001	9	...........
	60	1.525	-5.99965E-001	-5.24830E-004	0.00000E+000	-5.99974E-001	-5.99955E-001	9	...........
	61	1.55	-6.09965E-001	-5.27998E-004	0.00000E+000	-6.10023E-001	-6.09759E-001	9	...........
	62	1.575	-6.19965E-001	-5.31165E-004	0.00000E+000	-6.20022E-001	-6.19963E-001	9	...........
	63	1.6	-6.29765E-001	-5.34999E-004	0.00000E+000	-6.30020E-001	-6.29766E-001	9	...........
	64	1.625	-6.39965E-001	-5.38500E-004	0.00000E+000	-6.40019E-001	-6.39970E-001	9	...........
	65	1.65	-6.49765E-001	-5.42334E-004	0.00000E+000	-6.50018E-001	-6.49974E-001	9	...........
	66	1.675	-6.59965E-001	-5.46835E-004	0.00000E+000	-6.60017E-001	-6.59978E-001	9	...........
	67	1.7	-6.69965E-001	-5.50669E-004	0.00000E+000	-6.70015E-001	-6.69981E-001	9	...........
	68	1.725	-6.79765E-001	-5.54170E-004	0.00000E+000	-6.80014E-001	-6.79985E-001	9	...........
	69	1.75	-6.89765E-001	-5.58004E-004	0.00000E+000	-6.90013E-001	-6.89789E-001	9	...........
	70	1.775	-6.99965E-001	-5.63005E-004	0.00000E+000	-7.00012E-001	-6.99992E-001	9	...........
	71	1.8	-7.09765E-001	-5.67673E-004	0.00000E+000	-7.10010E-001	-7.09796E-001	9	...........
	72	1.825	-7.19765E-001	-5.72674E-004	0.00000E+000	-7.20009E-001	-7.19800E-001	9	...........
	73	1.85	-7.29765E-001	-5.78342E-004	0.00000E+000	-7.30008E-001	-7.30003E-001	9	...........
	74	1.875	-7.39765E-001	-5.83509E-004	0.00000E+000	-7.40007E-001	-7.40007E-001	9	...........
	75	1.9	-7.49765E-001	-5.89677E-004	0.00000E+000	-7.50005E-001	-7.49811E-001	9	...........
	76	1.925	-7.59765E-001	-5.95012E-004	0.00000E+000	-7.60004E-001	-7.59814E-001	9	...........
	77	1.95	-7.69965E-001	-6.00680E-004	0.00000E+000	-7.70003E-001	-7.69818E-001	9	...........
	78	1.975	-7.79765E-001	-6.07681E-004	0.00000E+000	-7.80001E-001	-7.79822E-001	9	...........
	79	2	-7.89965E-001	-6.15016E-004	0.00000E+000	-7.90000E-001	-7.89825E-001	9	...........
	80	2.025	-7.99765E-001	-6.22351E-004	0.00000E+000	-7.99999E-001	-8.00029E-001	9	...........
	81	2.05	-7.89765E-001	-5.44334E-004	0.00000E+000	-7.90000E-001	-7.89825E-001	9	...........
	82	2.075	-7.79765E-001	-4.78987E-004	0.00000E+000	-7.80001E-001	-7.79822E-001	9	...........
	83	2.1	-7.69765E-001	-4.21309E-004	0.00000E+000	-7.70003E-001	-7.69618E-001	9	...........
	84	2.125	-7.59765E-001	-3.70298E-004	0.00000E+000	-7.60004E-001	-7.59814E-001	9	...........
	85	2.15	-7.49965E-001	-3.24733E-004	0.00000E+000	-7.50005E-001	-7.49811E-001	8	...........
	86	2.175	-7.39765E-001	-2.83297E-004	0.00000E+000	-7.40007E-001	-7.40007E-001	8	...........
	87	2.2	-7.29765E-001	-2.45217E-004	0.00000E+000	-7.30008E-001	-7.29803E-001	8	...........
	88	2.225	-7.19965E-001	-2.09857E-004	0.00000E+000	-7.20009E-001	-7.19800E-001	8	...........
	89	2.25	-7.09765E-001	-1.77653E-004	0.00000E+000	-7.10010E-001	-7.09796E-001	8	...........
	90	2.275	-6.99965E-001	-1.48020E-004	0.00000E+000	-7.00012E-001	-6.99792E-001	8	...........
	91	2.3	-6.89765E-001	-1.20107E-004	0.00000E+000	-6.90013E-001	-6.89789E-001	8	...........
	92	2.325	-6.79965E-001	-9.37126E-005	0.00000E+000	-6.80014E-001	-6.79985E-001	8	...........
	93	2.35	-6.69965E-001	-6.95053E-005	0.00000E+000	-6.70015E-001	-6.69781E-001	8	...........
	94	2.375	-6.59765E-001	-4.68506E-005	0.00000E+000	-6.60017E-001	-6.59978E-001	8	...........
	95	2.4	-6.49965E-001	-2.53813E-005	0.00000E+000	-6.50018E-001	-6.49974E-001	8	...........
	96	2.425	-6.39965E-001	-5.59064E-006	0.00000E+000	-6.40019E-001	-6.39770E-001	7	...........
	97	2.45	-6.29765E-001	1.34361E-005	0.00000E+000	-6.30020E-001	-6.29966E-001	7	...........
	98	2.475	-6.19965E-001	3.12419E-005	0.00000E+000	-6.20022E-001	-6.19963E-001	7	...........
	99	2.5	-6.09965E-001	4.81442E-005	0.00000E+000	-6.10023E-001	-6.09959E-001	7	.....h.....
	100	2.525	-5.99965E-001	6.42525E-005	0.00000E+000	-5.99974E-001	-5.99955E-001	8	...........
	101	2.55	-5.89965E-001	7.90105E-005	0.00000E+000	-5.89975E-001	-5.89952E-001	8	...........
	102	2.575	-5.79965E-001	9.34347E-005	0.00000E+000	-5.79977E-001	-5.79948E-001	8	...........
	103	2.6	-5.69965E-001	1.07058E-004	0.00000E+000	-5.69978E-001	-5.69944E-001	8	...........
	104	2.625	-5.59765E-001	1.19879E-004	0.00000E+000	-5.59979E-001	-5.59941E-001	8	...........
	105	2.65	-5.49965E-001	1.31999E-004	0.00000E+000	-5.49981E-001	-5.49937E-001	8	...........
	106	2.675	-5.39965E-001	1.43569E-004	0.00000E+000	-5.39982E-001	-5.39933E-001	8	...........
	107	2.7	-5.29965E-001	1.54354E-004	0.00000E+000	-5.29983E-001	-5.29930E-001	8	...........
	108	2.725	-5.19965E-001	1.65122E-004	0.00000E+000	-5.19984E-001	-5.20126E-001	8	...........
	109	2.75	-5.09965E-001	1.75489E-004	0.00000E+000	-5.09986E-001	-5.09922E-001	8	...........
	110	2.775	-4.99965E-001	1.84621E-004	0.00000E+000	-4.99987E-001	-4.99918E-001	8	...........
	111	2.8	-4.89965E-001	1.93503E-004	0.00000E+000	-4.89988E-001	-4.90115E-001	8	...........
	112	2.825	-4.80165E-001	2.02067E-004	0.00000E+000	-4.79989E-001	-4.80111E-001	8	...........
	113	2.85	-4.69765E-001	2.10698E-004	0.00000E+000	-4.69991E-001	-4.70107E-001	8	...........
	114	2.875	-4.59965E-001	2.18528E-004	0.00000E+000	-4.59992E-001	-4.60104E-001	8	...........
	115	2.9	-4.49965E-001	2.25590E-004	0.00000E+000	-4.49993E-001	-4.50300E-001	8	...........
	116	2.925	-4.39965E-001	2.32902E-004	0.00000E+000	-4.39994E-001	-4.40096E-001	8	...........
	117	2.95	-4.30165E-001	2.39880E-004	0.00000E+000	-4.29996E-001	-4.30093E-001	8	...........
	118	2.975	-4.19965E-001	2.46775E-004	0.00000E+000	-4.19997E-001	-4.20089E-001	8	...........
	119	3	-4.09965E-001	2.53453E-004	0.00000E+000	-4.09998E-001	-4.10085E-001	8	...........
	120	3.025	-3.99965E-001	2.59413E-004	0.00000E+000	-3.99999E-001	-3.99881E-001	8	...........
	121	3.05	-3.90165E-001	2.65941E-004	0.00000E+000	-3.90001E-001	-3.90078E-001	8	...........
	122	3.075	-3.79965E-001	2.71400E-004	0.00000E+000	-3.80002E-001	-3.80074E-001	8	...........
	123	3.1	-3.70165E-001	2.77193E-004	0.00000E+000	-3.70003E-001	-3.70070E-001	8	...........
	124	3.125	-3.59965E-001	2.82569E-004	0.00000E+000	-3.60005E-001	-3.60267E-001	8	...........
	125	3.15	-3.50165E-001	2.87894E-004	0.00000E+000	-3.50006E-001	-3.50063E-001	8	...........
	126	3.175	-3.40165E-001	2.93187E-004	0.00000E+000	-3.40007E-001	-3.40259E-001	8	...........
	127	3.2	-3.30165E-001	2.97844E-004	0.00000E+000	-3.30008E-001	-3.30256E-001	8	...........
	128	3.225	-3.20165E-001	3.02552E-004	0.00000E+000	-3.20010E-001	-3.20252E-001	8	...........
	129	3.25	-3.10165E-001	3.07494E-004	0.00000E+000	-3.10011E-001	-3.10448E-001	8	...........
	130	3.275	-2.99965E-001	3.12269E-004	0.00000E+000	-3.00012E-001	-3.00045E-001	8	...........
	131	3.3	-2.90165E-001	3.16643E-004	0.00000E+000	-2.90013E-001	-2.90241E-001	8	...........
	132	3.325	-2.80165E-001	3.20933E-004	0.00000E+000	-2.80015E-001	-2.80237E-001	8	...........
	133	3.35	-2.69965E-001	3.25307E-004	0.00000E+000	-2.70016E-001	-2.70233E-001	8	...........
	134	3.375	-2.60165E-001	3.30299E-004	0.00000E+000	-2.60017E-001	-2.60430E-001	8	...........
	135	3.4	-2.50165E-001	3.33905E-004	0.00000E+000	-2.50018E-001	-2.50226E-001	8	...........
	136	3.425	-2.40165E-001	3.38112E-004	0.00000E+000	-2.40020E-001	-2.40422E-001	8	...........
	137	3.45	-2.30165E-001	3.42002E-004	0.00000E+000	-2.30021E-001	-2.30219E-001	8	...........
	138	3.475	-2.20165E-001	3.46459E-004	0.00000E+000	-2.20022E-001	-2.20215E-001	8	...........
	139	3.5	-2.10165E-001	3.50650E-004	0.00000E+000	-2.10023E-001	-2.10611E-001	8	...........
	140	3.525	-2.00165E-001	3.54690E-004	0.00000E+000	-1.99975E-001	-2.00208E-001	8	...........
	141	3.55	-1.90165E-001	3.58429E-004	0.00000E+000	-1.89976E-001	-1.90404E-001	8	...........
	142	3.575	-1.80165E-001	3.61935E-004	0.00000E+000	-1.79977E-001	-1.80200E-001	8	...........
	143	3.6	-1.70165E-001	3.66075E-004	0.00000E+000	-1.69979E-001	-1.70397E-001	8	...........
	144	3.625	-1.60165E-001	3.70116E-004	0.00000E+000	-1.59980E-001	-1.60193E-001	8	...........
	145	3.65	-1.50365E-001	3.73922E-004	0.00000E+000	-1.49981E-001	-1.50189E-001	8	...........
	146	3.675	-1.40165E-001	3.77211E-004	0.00000E+000	-1.39982E-001	-1.40385E-001	8	...........
	147	3.7	-1.30165E-001	3.81451E-004	0.00000E+000	-1.29984E-001	-1.29982E-001	8	...........
	148	3.725	-1.20165E-001	3.85224E-004	0.00000E+000	-1.19985E-001	-1.20178E-001	8	...........
	149	3.75	-1.10165E-001	3.88496E-004	0.00000E+000	-1.09986E-001	-1.10374E-001	8	...........
	150	3.775	-1.00165E-001	3.92537E-004	0.00000E+000	-9.99874E-002	-1.00371E-001	8	...........
	151	3.8	-9.01651E-002	3.95258E-004	0.00000E+000	-8.99886E-002	-9.03670E-002	8	...........
	152	3.825	-8.03651E-002	3.98947E-004	0.00000E+000	-7.99899E-002	-8.05634E-002	8	...........
	153	3.85	-7.01651E-002	4.02737E-004	0.00000E+000	-6.99912E-002	-7.03596E-002	8	...........
	154	3.875	-6.03651E-002	4.06293E-004	0.00000E+000	-5.99924E-002	-6.01558E-002	8	...........
	155	3.9	-5.01651E-002	4.09381E-004	0.00000E+000	-4.99937E-002	-5.03522E-002	8	...........
	156	3.925	-4.03651E-002	4.13271E-004	0.00000E+000	-3.99949E-002	-4.03485E-002	8	...........
	157	3.95	-3.03651E-002	4.15826E-004	0.00000E+000	-2.99962E-002	-3.03448E-002	8	...........
	158	3.975	-2.03651E-002	4.20099E-004	0.00000E+000	-1.99975E-002	-2.05412E-002	8	...........
	159	4	-1.03651E-002	4.22687E-004	0.00000E+000	-9.99874E-003	-1.03374E-002	8	...........
	160	4.025	-1.65120E-004	4.26226E-004	0.00000E+000	0.00000E+000	-3.33723E-004	8	...........
	161	4.05	9.63488E-003	4.29766E-004	0.00000E+000	9.99874E-003	9.46990E-003	8	...........
	162	4.075	1.96349E-002	4.33322E-004	0.00000E+000	1.99975E-002	1.96737E-002	8	...........
	163	4.1	2.96349E-002	4.36494E-004	0.00000E+000	2.99962E-002	2.94773E-002	8	...........
	164	4.125	3.98349E-002	4.39666E-004	0.00000E+000	3.99949E-002	3.96811E-002	8	...........
	165	4.15	4.96349E-002	4.42821E-004	0.00000E+000	4.99937E-002	4.96848E-002	8	...........
	166	4.175	5.96349E-002	4.45525E-004	0.00000E+000	5.99924E-002	5.96885E-002	8	...........
	167	4.2	6.96349E-002	4.49374E-004	0.00000E+000	6.99912E-002	6.94921E-002	9	...........
	168	4.225	7.96349E-002	4.51708E-004	0.00000E+000	7.99899E-002	7.94958E-002	9	...........
	169	4.25	8.94349E-002	4.54042E-004	0.00000E+000	8.99886E-002	8.94995E-002	9	...........
	170	4.275	9.94349E-002	4.56876E-004	0.00000E+000	9.99874E-002	9.93031E-002	9	...........
	171	4.3	1.09635E-001	4.60043E-004	0.00000E+000	1.09986E-001	1.09507E-001	9	...........
	172	4.325	1.19435E-001	4.63211E-004	0.00000E+000	1.19985E-001	1.19511E-001	9	...........
	173	4.35	1.29635E-001	4.65711E-004	0.00000E+000	1.29984E-001	1.29714E-001	9	...........
	174	4.375	1.39635E-001	4.68545E-004	0.00000E+000	1.39982E-001	1.39518E-001	9	...........
	175	4.4	1.49435E-001	4.71046E-004	0.00000E+000	1.49981E-001	1.49322E-001	9	...........
	176	4.425	1.59635E-001	4.73546E-004	0.00000E+000	1.59980E-001	1.59325E-001	9	...........
	177	4.45	1.69435E-001	4.76547E-004	0.00000E+000	1.69979E-001	1.69529E-001	9	...........
	178	4.475	1.79435E-001	4.79547E-004	0.00000E+000	1.79977E-001	1.79333E-001	9	...........
	179	4.5	1.89635E-001	4.82215E-004	0.00000E+000	1.89976E-001	1.89336E-001	9	...........
	180	4.525	1.99435E-001	4.83215E-004	0.00000E+000	1.99975E-001	1.99340E-001	9	...........
	181	4.55	2.09435E-001	4.86215E-004	0.00000E+000	2.10023E-001	2.09344E-001	9	...........
	182	4.575	2.19635E-001	4.88716E-004	0.00000E+000	2.20022E-001	2.19347E-001	9	...........
	183	4.6	2.29635E-001	4.90716E-004	0.00000E+000	2.30021E-001	2.29351E-001	9	...........
	184	4.625	2.39635E-001	4.92550E-004	0.00000E+000	2.40020E-001	2.39555E-001	9	...........
	185	4.65	2.49435E-001	4.94384E-004	0.00000E+000	2.50018E-001	2.49359E-001	9	...........
	186	4.675	2.59635E-001	4.96551E-004	0.00000E+000	2.60017E-001	2.59362E-001	9	...........
	187	4.7	2.69635E-001	4.98385E-004	0.00000E+000	2.70016E-001	2.69366E-001	9	...........
	188	4.725	2.79435E-001	5.00385E-004	0.00000E+000	2.80015E-001	2.79170E-001	9	...........
	189	4.75	2.89435E-001	5.02052E-004	0.00000E+000	2.90013E-001	2.89373E-001	9	...........
	190	4.775	2.99435E-001	5.03052E-004	0.00000E+000	3.00012E-001	2.99377E-001	9	...........
	191	4.8	3.09635E-001	5.04719E-004	0.00000E+000	3.10011E-001	3.09181E-001	9	...........
	192	4.825	3.19635E-001	5.06386E-004	0.00000E+000	3.20010E-001	3.19384E-001	9	...........
	193	4.85	3.29635E-001	5.07387E-004	0.00000E+000	3.30008E-001	3.29188E-001	9	...........
	194	4.875	3.39435E-001	5.08220E-004	0.00000E+000	3.40007E-001	3.39192E-001	9	...........
	195	4.9	3.49635E-001	5.09887E-004	0.00000E+000	3.50006E-001	3.49396E-001	9	...........
	196	4.925	3.59635E-001	5.11054E-004	0.00000E+000	3.60005E-001	3.59399E-001	9	...........
	197	4.95	3.69635E-001	5.12221E-004	0.00000E+000	3.70003E-001	3.69203E-001	9	...........
	198	4.975	3.79435E-001	5.12054E-004	0.00000E+000	3.80002E-001	3.79207E-001	9	...........
	199	5	3.89435E-001	5.13721E-004	0.00000E+000	3.90001E-001	3.89010E-001	9	...........
	200	5.025	3.99435E-001	5.14888E-004	0.00000E+000	3.99999E-001	3.99214E-001	9	...........
	201	5.05	4.09635E-001	5.15222E-004	0.00000E+000	4.09998E-001	4.09218E-001	9	...........
	202	5.075	4.19235E-001	5.15888E-004	0.00000E+000	4.19997E-001	4.19221E-001	9	...........
	203	5.1	4.29235E-001	5.16055E-004	0.00000E+000	4.29996E-001	4.29225E-001	9	...........
	204	5.125	4.39635E-001	5.16889E-004	0.00000E+000	4.39994E-001	4.39229E-001	9	...........
	205	5.15	4.49435E-001	5.17389E-004	0.00000E+000	4.49993E-001	4.49232E-001	9	...........
	206	5.175	4.59435E-001	5.17222E-004	0.00000E+000	4.59992E-001	4.59036E-001	9	...........
	207	5.2	4.69435E-001	5.17555E-004	0.00000E+000	4.69991E-001	4.69040E-001	9	...........
	208	5.225	4.79235E-001	5.17222E-004	0.00000E+000	4.79989E-001	4.79043E-001	9	...........
	209	5.25	4.89435E-001	5.17722E-004	0.00000E+000	4.89988E-001	4.89047E-001	9	...........
	210	5.275	4.99435E-001	5.17555E-004	0.00000E+000	4.99987E-001	4.99251E-001	9	...........
	211	5.3	5.09435E-001	5.17722E-004	0.00000E+000	5.09986E-001	5.09055E-001	9	...........
	212	5.325	5.19235E-001	5.18889E-004	0.00000E+000	5.19984E-001	5.19058E-001	9	...........
	213	5.35	5.29435E-001	5.18722E-004	0.00000E+000	5.29983E-001	5.29062E-001	9	...........
	214	5.375	5.39435E-001	5.18055E-004	0.00000E+000	5.39982E-001	5.39066E-001	9	...........
	215	5.4	5.49235E-001	5.18556E-004	0.00000E+000	5.49981E-001	5.49069E-001	9	...........
	216	5.425	5.59435E-001	5.18556E-004	0.00000E+000	5.59979E-001	5.59073E-001	9	...........
	217	5.45	5.69435E-001	5.18389E-004	0.00000E+000	5.69978E-001	5.69077E-001	9	...........
	218	5.475	5.79235E-001	5.17222E-004	0.00000E+000	5.79977E-001	5.79280E-001	9	...........
	219	5.5	5.89435E-001	5.17889E-004	0.00000E+000	5.89975E-001	5.89084E-001	9	...........
	220	5.525	5.99435E-001	5.17722E-004	0.00000E+000	5.99974E-001	5.99088E-001	9	...........
	221	5.55	6.09235E-001	5.18055E-004	0.00000E+000	6.10023E-001	6.09092E-001	9	...........
	222	5.575	6.19435E-001	5.18556E-004	0.00000E+000	6.20022E-001	6.19095E-001	9	...........
	223	5.6	6.29435E-001	5.18389E-004	0.00000E+000	6.30020E-001	6.29099E-001	9	...........
	224	5.625	6.39435E-001	5.18722E-004	0.00000E+000	6.40019E-001	6.39303E-001	9	...........
	225	5.65	6.49435E-001	5.18389E-004	0.00000E+000	6.50018E-001	6.49106E-001	9	...........
	226	5.675	6.59235E-001	5.18055E-004	0.00000E+000	6.60017E-001	6.59110E-001	9	...........
	227	5.7	6.69235E-001	5.18389E-004	0.00000E+000	6.70015E-001	6.69114E-001	9	...........
	228	5.725	6.79435E-001	5.19056E-004	0.00000E+000	6.80014E-001	6.79117E-001	9	...........
	229	5.75	6.89235E-001	5.19056E-004	0.00000E+000	6.90013E-001	6.88921E-001	9	...........
	230	5.775	6.99035E-001	5.19056E-004	0.00000E+000	7.00012E-001	6.99125E-001	9	...........
	231	5.8	7.09235E-001	5.19722E-004	0.00000E+000	7.10010E-001	7.09129E-001	9	...........
	232	5.825	7.19235E-001	5.19889E-004	0.00000E+000	7.20009E-001	7.18932E-001	9	...........
	233	5.85	7.29235E-001	5.20389E-004	0.00000E+000	7.30008E-001	7.29136E-001	9	...........
	234	5.875	7.39235E-001	5.20389E-004	0.00000E+000	7.40007E-001	7.39140E-001	9	...........
	235	5.9	7.49035E-001	5.21723E-004	0.00000E+000	7.50005E-001	7.48943E-001	9	...........
	236	5.925	7.59235E-001	5.21890E-004	0.00000E+000	7.60004E-001	7.58947E-001	9	...........
	237	5.95	7.69235E-001	5.22890E-004	0.00000E+000	7.70003E-001	7.68951E-001	9	...........
	238	5.975	7.79235E-001	5.24057E-004	0.00000E+000	7.80001E-001	7.78954E-001	9	...........
	239	6	7.89235E-001	5.25390E-004	0.00000E+000	7.90000E-001	7.88958E-001	9	...........
	240	6.025	7.99235E-001	5.26724E-004	0.00000E+000	7.99999E-001	7.98962E-001	9	...........
CURVE2	TABLE
	Pt	T	Vf	Im	Vu	Sig	Ach	IERange	Over
	#	s	V vs. Ref.	A	V	V	V	#	bits
	241	6.05	7.89235E-001	4.60543E-004	0.00000E+000	7.90000E-001	7.88758E-001	9	...........
	242	6.075	7.79235E-001	4.03865E-004	0.00000E+000	7.80001E-001	7.79154E-001	9	...........
	243	6.1	7.69235E-001	3.55855E-004	0.00000E+000	7.70003E-001	7.69151E-001	9	...........
	244	6.125	7.59235E-001	3.11567E-004	0.00000E+000	7.60004E-001	7.59147E-001	8	...........
	245	6.15	7.49235E-001	2.73220E-004	0.00000E+000	7.50005E-001	7.48943E-001	8	...........
	246	6.175	7.39235E-001	2.36925E-004	0.00000E+000	7.40007E-001	7.38940E-001	8	...........
	247	6.2	7.29235E-001	2.04221E-004	0.00000E+000	7.30008E-001	7.28936E-001	8	...........
	248	6.225	7.19235E-001	1.75088E-004	0.00000E+000	7.20009E-001	7.19132E-001	8	...........
	249	6.25	7.09435E-001	1.47158E-004	0.00000E+000	7.10010E-001	7.09129E-001	8	...........
	250	6.275	6.99435E-001	1.21565E-004	0.00000E+000	7.00012E-001	6.99125E-001	8	...........
	251	6.3	6.89435E-001	9.75917E-005	0.00000E+000	6.90013E-001	6.89121E-001	8	...........
	252	6.325	6.79435E-001	7.53544E-005	0.00000E+000	6.80014E-001	6.79318E-001	8	...........
	253	6.35	6.69435E-001	5.43859E-005	0.00000E+000	6.70015E-001	6.69114E-001	8	...........
	254	6.375	6.59435E-001	3.51202E-005	0.00000E+000	6.60017E-001	6.59110E-001	8	...........
	255	6.4	6.49435E-001	1.67548E-005	0.00000E+000	6.50018E-001	6.48906E-001	7	...........
	256	6.425	6.39435E-001	-8.90744E-007	0.00000E+000	6.40019E-001	6.38903E-001	7	...........
	257	6.45	6.29235E-001	-1.69345E-005	0.00000E+000	6.30020E-001	6.29099E-001	7	...........
	258	6.475	6.19235E-001	-3.23520E-005	0.00000E+000	6.20022E-001	6.19095E-001	7	...........
	259	6.5	6.09035E-001	-4.69762E-005	0.00000E+000	6.10023E-001	6.09092E-001	7	...........
	260	6.525	5.99235E-001	-6.06070E-005	0.00000E+000	6.00024E-001	5.99288E-001	8	...........
	261	6.55	5.89235E-001	-7.40295E-005	0.00000E+000	5.89975E-001	5.89084E-001	8	...........
	262	6.575	5.79235E-001	-8.62166E-005	0.00000E+000	5.79977E-001	5.79080E-001	8	...........
	263	6.6	5.69435E-001	-9.79196E-005	0.00000E+000	5.69978E-001	5.69277E-001	8	...........
	264	6.625	5.59235E-001	-1.09506E-004	0.00000E+000	5.59979E-001	5.59073E-001	8	...........
	265	6.65	5.49435E-001	-1.19940E-004	0.00000E+000	5.49981E-001	5.49269E-001	8	...........
	266	6.675	5.39635E-001	-1.30458E-004	0.00000E+000	5.39982E-001	5.39266E-001	8	...........
	267	6.7	5.29435E-001	-1.40591E-004	0.00000E+000	5.29983E-001	5.29262E-001	8	...........
	268	6.725	5.19435E-001	-1.49556E-004	0.00000E+000	5.19984E-001	5.19258E-001	8	...........
	269	6.75	5.09435E-001	-1.58655E-004	0.00000E+000	5.09986E-001	5.09055E-001	8	...........
	270	6.775	4.99435E-001	-1.67570E-004	0.00000E+000	4.99987E-001	4.99251E-001	8	...........
	271	6.8	4.89435E-001	-1.75416E-004	0.00000E+000	4.89988E-001	4.89247E-001	8	...........
	272	6.825	4.79435E-001	-1.83630E-004	0.00000E+000	4.79989E-001	4.79043E-001	8	...........
	273	6.85	4.69435E-001	-1.91827E-004	0.00000E+000	4.69991E-001	4.69240E-001	8	...........
	274	6.875	4.59435E-001	-1.98655E-004	0.00000E+000	4.59992E-001	4.59236E-001	8	...........
	275	6.9	4.49635E-001	-2.05867E-004	0.00000E+000	4.49993E-001	4.49032E-001	8	...........
	276	6.925	4.39435E-001	-2.12645E-004	0.00000E+000	4.39994E-001	4.39229E-001	8	...........
	277	6.95	4.29435E-001	-2.19691E-004	0.00000E+000	4.29996E-001	4.29225E-001	8	...........
	278	6.975	4.19435E-001	-2.25767E-004	0.00000E+000	4.19997E-001	4.19221E-001	8	...........
	279	7	4.09235E-001	-2.32078E-004	0.00000E+000	4.09998E-001	4.09418E-001	8	...........
	280	7.025	3.99435E-001	-2.38288E-004	0.00000E+000	3.99999E-001	3.99014E-001	8	...........
	281	7.05	3.89635E-001	-2.43881E-004	0.00000E+000	3.90001E-001	3.89210E-001	8	...........
	282	7.075	3.79635E-001	-2.49724E-004	0.00000E+000	3.80002E-001	3.79207E-001	8	...........
	283	7.1	3.69435E-001	-2.55050E-004	0.00000E+000	3.70003E-001	3.69403E-001	8	...........
	284	7.125	3.59435E-001	-2.60643E-004	0.00000E+000	3.60005E-001	3.59399E-001	8	...........
	285	7.15	3.49435E-001	-2.65701E-004	0.00000E+000	3.50006E-001	3.49396E-001	8	...........
	286	7.175	3.39635E-001	-2.71327E-004	0.00000E+000	3.40007E-001	3.39192E-001	8	...........
	287	7.2	3.29435E-001	-2.76252E-004	0.00000E+000	3.30008E-001	3.29188E-001	8	...........
	288	7.225	3.19435E-001	-2.80392E-004	0.00000E+000	3.20010E-001	3.19184E-001	8	...........
	289	7.25	3.09435E-001	-2.85601E-004	0.00000E+000	3.10011E-001	3.09181E-001	8	...........
	290	7.275	2.99435E-001	-2.90543E-004	0.00000E+000	3.00012E-001	2.99177E-001	8	...........
	291	7.3	2.89635E-001	-2.95534E-004	0.00000E+000	2.90013E-001	2.89573E-001	8	...........
	292	7.325	2.79435E-001	-2.99942E-004	0.00000E+000	2.80015E-001	2.79170E-001	8	...........
	293	7.35	2.69635E-001	-3.04433E-004	0.00000E+000	2.70016E-001	2.69366E-001	8	...........
	294	7.375	2.59435E-001	-3.08723E-004	0.00000E+000	2.60017E-001	2.59362E-001	8	...........
	295	7.4	2.49435E-001	-3.13097E-004	0.00000E+000	2.50018E-001	2.49359E-001	8	...........
	296	7.425	2.39635E-001	-3.17354E-004	0.00000E+000	2.40020E-001	2.39355E-001	8	...........
	297	7.45	2.29635E-001	-3.22229E-004	0.00000E+000	2.30021E-001	2.29351E-001	8	...........
	298	7.475	2.19635E-001	-3.26336E-004	0.00000E+000	2.20022E-001	2.19347E-001	8	...........
	299	7.5	2.09635E-001	-3.30693E-004	0.00000E+000	2.10023E-001	2.09344E-001	8	...........
	300	7.525	1.99635E-001	-3.34433E-004	0.00000E+000	2.00025E-001	1.99340E-001	8	...........
	301	7.55	1.89435E-001	-3.38757E-004	0.00000E+000	1.90026E-001	1.89336E-001	8	...........
	302	7.575	1.79635E-001	-3.43214E-004	0.00000E+000	1.79977E-001	1.79333E-001	8	...........
	303	7.6	1.69835E-001	-3.47722E-004	0.00000E+000	1.69979E-001	1.69329E-001	8	...........
	304	7.625	1.59635E-001	-3.51345E-004	0.00000E+000	1.59980E-001	1.59325E-001	8	...........
	305	7.65	1.49435E-001	-3.55385E-004	0.00000E+000	1.49981E-001	1.49322E-001	8	...........
	306	7.675	1.39635E-001	-3.59675E-004	0.00000E+000	1.39982E-001	1.39518E-001	8	...........
	307	7.7	1.29835E-001	-3.63298E-004	0.00000E+000	1.29984E-001	1.29514E-001	8	...........
	308	7.725	1.19635E-001	-3.67054E-004	0.00000E+000	1.19985E-001	1.19711E-001	8	...........
	309	7.75	1.09635E-001	-3.71762E-004	0.00000E+000	1.09986E-001	1.09507E-001	8	...........
	310	7.775	9.96349E-002	-3.74684E-004	0.00000E+000	9.99874E-002	9.95032E-002	8	...........
	311	7.8	8.98349E-002	-3.78424E-004	0.00000E+000	8.99886E-002	8.94995E-002	8	...........
	312	7.825	7.96349E-002	-3.82347E-004	0.00000E+000	7.99899E-002	7.94958E-002	8	...........
	313	7.85	6.94349E-002	-3.86270E-004	0.00000E+000	6.99912E-002	6.94921E-002	8	...........
	314	7.875	5.98349E-002	-3.89909E-004	0.00000E+000	5.99924E-002	5.94884E-002	8	...........
	315	7.9	4.96349E-002	-3.93432E-004	0.00000E+000	4.99937E-002	4.92846E-002	8	...........
	316	7.925	3.96349E-002	-3.97372E-004	0.00000E+000	3.99949E-002	3.94810E-002	8	...........
	317	7.95	2.98349E-002	-4.00895E-004	0.00000E+000	2.99962E-002	2.94773E-002	8	...........
	318	7.975	1.96349E-002	-4.04834E-004	0.00000E+000	1.99975E-002	1.94736E-002	8	...........
	319	8	9.83488E-003	-4.07923E-004	0.00000E+000	9.99874E-003	9.66997E-003	8	...........
	320	8.025	-3.65120E-004	-4.11479E-004	0.00000E+000	0.00000E+000	-5.33797E-004	8	...........
	321	8.05	-1.03651E-002	-4.14785E-004	0.00000E+000	-9.99874E-003	-1.05375E-002	8	...........
	322	8.075	-2.03651E-002	-4.18791E-004	0.00000E+000	-1.99975E-002	-2.05412E-002	8	...........
	323	8.1	-3.01651E-002	-4.22063E-004	0.00000E+000	-2.99962E-002	-3.03448E-002	8	...........
	324	8.125	-4.01651E-002	-4.25469E-004	0.00000E+000	-3.99949E-002	-4.03485E-002	8	...........
	325	8.15	-5.01651E-002	-4.28658E-004	0.00000E+000	-4.99937E-002	-5.05523E-002	8	...........
	326	8.175	-6.03651E-002	-4.31529E-004	0.00000E+000	-5.99924E-002	-6.03559E-002	8	...........
	327	8.2	-6.99651E-002	-4.35319E-004	0.00000E+000	-6.99912E-002	-7.03596E-002	8	...........
	328	8.225	-8.01651E-002	-4.38574E-004	0.00000E+000	-7.99899E-002	-8.03633E-002	8	...........
	329	8.25	-9.03651E-002	-4.41763E-004	0.00000E+000	-8.99886E-002	-9.03670E-002	8	...........
	330	8.275	-1.00165E-001	-4.44818E-004	0.00000E+000	-9.99874E-002	-1.00371E-001	8	...........
	331	8.3	-1.10365E-001	-4.48148E-004	0.00000E+000	-1.09986E-001	-1.10374E-001	9	...........
	332	8.325	-1.20165E-001	-4.51648E-004	0.00000E+000	-1.19985E-001	-1.20378E-001	9	...........
	333	8.35	-1.30165E-001	-4.54649E-004	0.00000E+000	-1.29984E-001	-1.30382E-001	9	...........
	334	8.375	-1.40365E-001	-4.57316E-004	0.00000E+000	-1.39982E-001	-1.40185E-001	9	...........
	335	8.4	-1.50165E-001	-4.59817E-004	0.00000E+000	-1.49981E-001	-1.50189E-001	9	...........
	336	8.425	-1.60365E-001	-4.62984E-004	0.00000E+000	-1.59980E-001	-1.59993E-001	9	...........
	337	8.45	-1.70165E-001	-4.65151E-004	0.00000E+000	-1.69979E-001	-1.70197E-001	9	...........
	338	8.475	-1.80165E-001	-4.68652E-004	0.00000E+000	-1.79977E-001	-1.80200E-001	9	...........
	339	8.5	-1.90165E-001	-4.70986E-004	0.00000E+000	-1.89976E-001	-1.90204E-001	9	...........
	340	8.525	-2.00365E-001	-4.74320E-004	0.00000E+000	-1.99975E-001	-2.00208E-001	9	...........
	341	8.55	-2.10165E-001	-4.76320E-004	0.00000E+000	-2.09973E-001	-2.10211E-001	9	...........
	342	8.575	-2.20365E-001	-4.79487E-004	0.00000E+000	-2.20022E-001	-2.20215E-001	9	...........
	343	8.6	-2.30365E-001	-4.82155E-004	0.00000E+000	-2.30021E-001	-2.30219E-001	9	...........
	344	8.625	-2.40165E-001	-4.84155E-004	0.00000E+000	-2.40020E-001	-2.40222E-001	9	...........
	345	8.65	-2.49965E-001	-4.86822E-004	0.00000E+000	-2.50018E-001	-2.50226E-001	9	...........
	346	8.675	-2.60165E-001	-4.88823E-004	0.00000E+000	-2.60017E-001	-2.60230E-001	9	...........
	347	8.7	-2.70165E-001	-4.91157E-004	0.00000E+000	-2.70016E-001	-2.70233E-001	9	...........
	348	8.725	-2.79965E-001	-4.93324E-004	0.00000E+000	-2.80015E-001	-2.80237E-001	9	...........
	349	8.75	-2.89965E-001	-4.95657E-004	0.00000E+000	-2.90013E-001	-2.90241E-001	9	...........
	350	8.775	-2.99965E-001	-4.97491E-004	0.00000E+000	-3.00012E-001	-3.00045E-001	9	...........
	351	8.8	-3.09965E-001	-4.98992E-004	0.00000E+000	-3.10011E-001	-3.10248E-001	9	...........
	352	8.825	-3.20165E-001	-5.01159E-004	0.00000E+000	-3.20010E-001	-3.20052E-001	9	...........
	353	8.85	-3.30165E-001	-5.03993E-004	0.00000E+000	-3.30008E-001	-3.30256E-001	9	...........
	354	8.875	-3.40165E-001	-5.05660E-004	0.00000E+000	-3.40007E-001	-3.40259E-001	9	...........
	355	8.9	-3.50365E-001	-5.06827E-004	0.00000E+000	-3.50006E-001	-3.50263E-001	9	...........
	356	8.925	-3.60365E-001	-5.08994E-004	0.00000E+000	-3.60005E-001	-3.60267E-001	9	...........
	357	8.95	-3.70165E-001	-5.10494E-004	0.00000E+000	-3.70003E-001	-3.70070E-001	9	...........
	358	8.975	-3.79765E-001	-5.12828E-004	0.00000E+000	-3.80002E-001	-3.80074E-001	9	...........
	359	9	-3.89965E-001	-5.14328E-004	0.00000E+000	-3.90001E-001	-3.90078E-001	9	...........
	360	9.025	-3.99765E-001	-5.16162E-004	0.00000E+000	-3.99999E-001	-4.00081E-001	9	...........
	361	9.05	-4.10165E-001	-5.16662E-004	0.00000E+000	-4.09998E-001	-4.10085E-001	9	...........
	362	9.075	-4.19965E-001	-5.18662E-004	0.00000E+000	-4.19997E-001	-4.19889E-001	9	...........
	363	9.1	-4.29965E-001	-5.19663E-004	0.00000E+000	-4.29996E-001	-4.30093E-001	9	...........
	364	9.125	-4.39965E-001	-5.20996E-004	0.00000E+000	-4.39994E-001	-4.40096E-001	9	...........
	365	9.15	-4.49965E-001	-5.22663E-004	0.00000E+000	-4.49993E-001	-4.50100E-001	9	...........
	366	9.175	-4.59965E-001	-5.23663E-004	0.00000E+000	-4.59992E-001	-4.59904E-001	9	...........
	367	9.2	-4.69965E-001	-5.24830E-004	0.00000E+000	-4.69991E-001	-4.69907E-001	9	...........
	368	9.225	-4.79765E-001	-5.26164E-004	0.00000E+000	-4.79989E-001	-4.80111E-001	9	...........
	369	9.25	-4.89965E-001	-5.28164E-004	0.00000E+000	-4.89988E-001	-4.89915E-001	9	...........
	370	9.275	-4.99965E-001	-5.27998E-004	0.00000E+000	-4.99987E-001	-4.99918E-001	9	...........
	371	9.3	-5.09965E-001	-5.31165E-004	0.00000E+000	-5.09986E-001	-5.09922E-001	9	...........
	372	9.325	-5.19965E-001	-5.31832E-004	0.00000E+000	-5.19984E-001	-5.19926E-001	9	...........
	373	9.35	-5.29965E-001	-5.32499E-004	0.00000E+000	-5.29983E-001	-5.29930E-001	9	...........
	374	9.375	-5.39965E-001	-5.33665E-004	0.00000E+000	-5.39982E-001	-5.40133E-001	9	...........
	375	9.4	-5.49965E-001	-5.35833E-004	0.00000E+000	-5.49981E-001	-5.49937E-001	9	...........
	376	9.425	-5.59965E-001	-5.37666E-004	0.00000E+000	-5.59979E-001	-5.59941E-001	9	...........
	377	9.45	-5.69965E-001	-5.38667E-004	0.00000E+000	-5.69978E-001	-5.69944E-001	9	...........
	378	9.475	-5.79965E-001	-5.40334E-004	0.00000E+000	-5.79977E-001	-5.79948E-001	9	...........
	379	9.5	-5.89965E-001	-5.41667E-004	0.00000E+000	-5.89975E-001	-5.89952E-001	9	...........
	380	9.525	-5.99965E-001	-5.43668E-004	0.00000E+000	-5.99974E-001	-6.00155E-001	9	...........
	381	9.55	-6.09965E-001	-5.46168E-004	0.00000E+000	-6.09973E-001	-6.09959E-001	9	...........
	382	9.575	-6.19765E-001	-5.47835E-004	0.00000E+000	-6.20022E-001	-6.19963E-001	9	...........
	383	9.6	-6.29765E-001	-5.50002E-004	0.00000E+000	-6.30020E-001	-6.29966E-001	9	...........
	384	9.625	-6.39965E-001	-5.52836E-004	0.00000E+000	-6.40019E-001	-6.39970E-001	9	...........
	385	9.65	-6.49965E-001	-5.54670E-004	0.00000E+000	-6.50018E-001	-6.49974E-001	9	...........
	386	9.675	-6.59965E-001	-5.57504E-004	0.00000E+000	-6.60017E-001	-6.59978E-001	9	...........
	387	9.7	-6.69965E-001	-5.61005E-004	0.00000E+000	-6.70015E-001	-6.69981E-001	9	...........
	388	9.725	-6.79765E-001	-5.64005E-004	0.00000E+000	-6.80014E-001	-6.79785E-001	9	...........
	389	9.75	-6.89765E-001	-5.68173E-004	0.00000E+000	-6.90013E-001	-6.89989E-001	9	...........
	390	9.775	-6.99765E-001	-5.70840E-004	0.00000E+000	-7.00012E-001	-6.99792E-001	9	...........
	391	9.8	-7.09765E-001	-5.73841E-004	0.00000E+000	-7.10010E-001	-7.09796E-001	9	...........
	392	9.825	-7.19765E-001	-5.78842E-004	0.00000E+000	-7.20009E-001	-7.20000E-001	9	...........
	393	9.85	-7.29765E-001	-5.82843E-004	0.00000E+000	-7.30008E-001	-7.30003E-001	9	...........
	394	9.875	-7.39565E-001	-5.87343E-004	0.00000E+000	-7.40007E-001	-7.39807E-001	9	...........
	395	9.9	-7.49765E-001	-5.91844E-004	0.00000E+000	-7.50005E-001	-7.49811E-001	9	...........
	396	9.925	-7.59765E-001	-5.96512E-004	0.00000E+000	-7.60004E-001	-7.59614E-001	9	...........
	397	9.95	-7.69565E-001	-6.02680E-004	0.00000E+000	-7.70003E-001	-7.69818E-001	9	...........
	398	9.975	-7.79965E-001	-6.08681E-004	0.00000E+000	-7.80001E-001	-7.79822E-001	9	...........
	399	10	-7.89765E-001	-6.15183E-004	0.00000E+000	-7.90000E-001	-7.89825E-001	9	...........
	400	10.025	-7.99565E-001	-6.22184E-004	0.00000E+000	-7.99999E-001	-7.99629E-001	9	...........
	401	10.05	-7.89765E-001	-5.43501E-004	0.00000E+000	-7.90000E-001	-7.89825E-001	9	...........
	402	10.075	-7.79965E-001	-4.77987E-004	0.00000E+000	-7.80001E-001	-7.79822E-001	9	...........
	403	10.1	-7.69965E-001	-4.19975E-004	0.00000E+000	-7.70003E-001	-7.69818E-001	9	...........
	404	10.125	-7.59765E-001	-3.69131E-004	0.00000E+000	-7.60004E-001	-7.59814E-001	9	...........
	405	10.15	-7.49965E-001	-3.23364E-004	0.00000E+000	-7.50005E-001	-7.50011E-001	8	...........
	406	10.175	-7.39765E-001	-2.82145E-004	0.00000E+000	-7.40007E-001	-7.39807E-001	8	...........
	407	10.2	-7.29765E-001	-2.43547E-004	0.00000E+000	-7.30008E-001	-7.29803E-001	8	...........
	408	10.225	-7.19965E-001	-2.08622E-004	0.00000E+000	-7.20009E-001	-7.19800E-001	8	...........
	409	10.25	-7.09965E-001	-1.76067E-004	0.00000E+000	-7.10010E-001	-7.09996E-001	8	...........
	410	10.275	-6.99965E-001	-1.46134E-004	0.00000E+000	-7.00012E-001	-6.99792E-001	8	...........
	411	10.3	-6.89765E-001	-1.18654E-004	0.00000E+000	-6.90013E-001	-6.89989E-001	8	...........
	412	10.325	-6.79965E-001	-9.23937E-005	0.00000E+000	-6.80014E-001	-6.79985E-001	8	...........
	413	10.35	-6.69565E-001	-6.83200E-005	0.00000E+000	-6.70015E-001	-6.69981E-001	8	...........
	414	10.375	-6.59965E-001	-4.57321E-005	0.00000E+000	-6.60017E-001	-6.59978E-001	8	...........
	415	10.4	-6.49965E-001	-2.42794E-005	0.00000E+000	-6.50018E-001	-6.49774E-001	8	...........
	416	10.425	-6.39965E-001	-4.27955E-006	0.00000E+000	-6.40019E-001	-6.39770E-001	7	...........
	417	10.45	-6.29965E-001	1.46520E-005	0.00000E+000	-6.30020E-001	-6.29966E-001	7	...........
	418	10.475	-6.19765E-001	3.24244E-005	0.00000E+000	-6.20022E-001	-6.20163E-001	7	...........
	419	10.5	-6.09965E-001	4.91831E-005	0.00000E+000	-6.09973E-001	-6.09759E-001	7	.....h.....
	420	10.525	-5.99965E-001	6.49870E-005	0.00000E+000	-5.99974E-001	-5.99955E-001	8	...........
	421	10.55	-5.89965E-001	8.02459E-005	0.00000E+000	-5.89975E-001	-5.89952E-001	8	...........
	422	10.575	-5.79965E-001	9.45366E-005	0.00000E+000	-5.79977E-001	-5.79948E-001	8	...........
	423	10.6	-5.69965E-001	1.08076E-004	0.00000E+000	-5.69978E-001	-5.69944E-001	8	...........
	424	10.625	-5.59965E-001	1.21098E-004	0.00000E+000	-5.59979E-001	-5.60141E-001	8	...........
	425	10.65	-5.49965E-001	1.32984E-004	0.00000E+000	-5.49981E-001	-5.49937E-001	8	...........
	426	10.675	-5.39965E-001	1.44721E-004	0.00000E+000	-5.39982E-001	-5.40133E-001	8	...........
	427	10.7	-5.29965E-001	1.55272E-004	0.00000E+000	-5.29983E-001	-5.29930E-001	8	...........
	428	10.725	-5.19965E-001	1.65840E-004	0.00000E+000	-5.19984E-001	-5.20126E-001	8	...........
	429	10.75	-5.09965E-001	1.75840E-004	0.00000E+000	-5.09986E-001	-5.10122E-001	8	...........
	430	10.775	-4.99965E-001	1.85255E-004	0.00000E+000	-4.99987E-001	-5.00118E-001	8	...........
	431	10.8	-4.90165E-001	1.94020E-004	0.00000E+000	-4.89988E-001	-4.90115E-001	8	...........
	432	10.825	-4.79965E-001	2.02918E-004	0.00000E+000	-4.79989E-001	-4.80111E-001	8	...........
	433	10.85	-4.69965E-001	2.10848E-004	0.00000E+000	-4.69991E-001	-4.70107E-001	8	...........
	434	10.875	-4.60165E-001	2.19079E-004	0.00000E+000	-4.59992E-001	-4.60104E-001	8	...........
	435	10.9	-4.49965E-001	2.26758E-004	0.00000E+000	-4.49993E-001	-4.50100E-001	8	...........
	436	10.925	-4.39965E-001	2.34021E-004	0.00000E+000	-4.39994E-001	-4.40096E-001	8	...........
	437	10.95	-4.29965E-001	2.40398E-004	0.00000E+000	-4.29996E-001	-4.30293E-001	8	...........
	438	10.975	-4.19965E-001	2.46792E-004	0.00000E+000	-4.19997E-001	-4.19889E-001	8	...........
	439	11	-4.09965E-001	2.53270E-004	0.00000E+000	-4.09998E-001	-4.10285E-001	8	...........
	440	11.025	-4.00165E-001	2.59280E-004	0.00000E+000	-3.99999E-001	-4.00081E-001	8	...........
	441	11.05	-3.90165E-001	2.65273E-004	0.00000E+000	-3.90001E-001	-3.89878E-001	8	...........
	442	11.075	-3.79965E-001	2.71383E-004	0.00000E+000	-3.80002E-001	-3.80074E-001	8	...........
	443	11.1	-3.69965E-001	2.77160E-004	0.00000E+000	-3.70003E-001	-3.70270E-001	8	...........
	444	11.125	-3.59965E-001	2.82585E-004	0.00000E+000	-3.60005E-001	-3.60067E-001	8	...........
	445	11.15	-3.50165E-001	2.87761E-004	0.00000E+000	-3.50006E-001	-3.50063E-001	8	...........
	446	11.175	-3.40165E-001	2.92636E-004	0.00000E+000	-3.40007E-001	-3.40259E-001	8	...........
	447	11.2	-3.29965E-001	2.97928E-004	0.00000E+000	-3.30008E-001	-3.30256E-001	8	...........
	448	11.225	-3.20165E-001	3.02769E-004	0.00000E+000	-3.20010E-001	-3.20252E-001	8	...........
	449	11.25	-3.10165E-001	3.07511E-004	0.00000E+000	-3.10011E-001	-3.10248E-001	8	...........
	450	11.275	-3.00165E-001	3.12102E-004	0.00000E+000	-3.00012E-001	-3.00045E-001	8	...........
	451	11.3	-2.89965E-001	3.16526E-004	0.00000E+000	-2.90013E-001	-2.90241E-001	8	...........
	452	11.325	-2.80165E-001	3.21467E-004	0.00000E+000	-2.80015E-001	-2.80237E-001	8	...........
	453	11.35	-2.70165E-001	3.25875E-004	0.00000E+000	-2.70016E-001	-2.70233E-001	8	...........
	454	11.375	-2.60165E-001	3.29781E-004	0.00000E+000	-2.60017E-001	-2.60430E-001	8	...........
	455	11.4	-2.49965E-001	3.33688E-004	0.00000E+000	-2.50018E-001	-2.50226E-001	8	...........
	456	11.425	-2.40165E-001	3.37578E-004	0.00000E+000	-2.40020E-001	-2.40222E-001	8	...........
	457	11.45	-2.29965E-001	3.42302E-004	0.00000E+000	-2.30021E-001	-2.30219E-001	8	...........
	458	11.475	-2.20165E-001	3.46342E-004	0.00000E+000	-2.20022E-001	-2.20215E-001	8	...........
	459	11.5	-2.10165E-001	3.50115E-004	0.00000E+000	-2.09973E-001	-2.10211E-001	8	...........
	460	11.525	-2.00165E-001	3.53972E-004	0.00000E+000	-1.99975E-001	-2.00208E-001	8	...........
	461	11.55	-1.90165E-001	3.58012E-004	0.00000E+000	-1.89976E-001	-1.90204E-001	8	...........
	462	11.575	-1.80165E-001	3.61618E-004	0.00000E+000	-1.79977E-001	-1.80200E-001	8	...........
	463	11.6	-1.70165E-001	3.65641E-004	0.00000E+000	-1.69979E-001	-1.70197E-001	8	...........
	464	11.625	-1.60165E-001	3.69247E-004	0.00000E+000	-1.59980E-001	-1.60193E-001	8	...........
	465	11.65	-1.50165E-001	3.72837E-004	0.00000E+000	-1.49981E-001	-1.50389E-001	8	...........
	466	11.675	-1.40165E-001	3.76827E-004	0.00000E+000	-1.39982E-001	-1.40385E-001	8	...........
	467	11.7	-1.30165E-001	3.80466E-004	0.00000E+000	-1.29984E-001	-1.30382E-001	8	...........
	468	11.725	-1.20165E-001	3.84390E-004	0.00000E+000	-1.19985E-001	-1.20178E-001	8	...........
	469	11.75	-1.10165E-001	3.87745E-004	0.00000E+000	-1.09986E-001	-1.10174E-001	8	...........
	470	11.775	-1.00165E-001	3.91602E-004	0.00000E+000	-9.99874E-002	-1.00171E-001	8	...........
	471	11.8	-9.01651E-002	3.95158E-004	0.00000E+000	-8.99886E-002	-9.03670E-002	8	...........
	472	11.825	-8.03651E-002	3.99047E-004	0.00000E+000	-7.99899E-002	-8.03633E-002	8	...........
	473	11.85	-7.03651E-002	4.02570E-004	0.00000E+000	-6.99912E-002	-7.03596E-002	8	...........
	474	11.875	-6.01651E-002	4.05625E-004	0.00000E+000	-5.99924E-002	-6.03559E-002	8	...........
	475	11.9	-5.01651E-002	4.08931E-004	0.00000E+000	-4.99937E-002	-5.01521E-002	8	...........
	476	11.925	-4.01651E-002	4.12203E-004	0.00000E+000	-3.99949E-002	-4.01484E-002	8	...........
	477	11.95	-3.01651E-002	4.15408E-004	0.00000E+000	-2.99962E-002	-3.03448E-002	8	...........
	478	11.975	-2.01651E-002	4.18697E-004	0.00000E+000	-1.99975E-002	-2.03411E-002	8	...........
	479	12	-1.01651E-002	4.22186E-004	0.00000E+000	-9.99874E-003	-1.03374E-002	8	...........
	480	12.025	-1.65120E-004	4.25542E-004	0.00000E+000	0.00000E+000	-5.33797E-004	8	...........
	481	12.05	9.43488E-003	4.28363E-004	0.00000E+000	9.99874E-003	9.66997E-003	8	...........
	482	12.075	1.96349E-002	4.31969E-004	0.00000E+000	1.99975E-002	1.94736E-002	8	...........
	483	12.1	2.96349E-002	4.35692E-004	0.00000E+000	2.99962E-002	2.94773E-002	8	...........
	484	12.125	3.98349E-002	4.38347E-004	0.00000E+000	3.99949E-002	3.94810E-002	8	...........
	485	12.15	4.98349E-002	4.42203E-004	0.00000E+000	4.99937E-002	4.94847E-002	8	...........
	486	12.175	5.96349E-002	4.44958E-004	0.00000E+000	5.99924E-002	5.94884E-002	8	...........
	487	12.2	6.94349E-002	4.49041E-004	0.00000E+000	6.99912E-002	6.94921E-002	9	...........
	488	12.225	7.94349E-002	4.51208E-004	0.00000E+000	7.99899E-002	7.94958E-002	9	...........
	489	12.25	8.98349E-002	4.54709E-004	0.00000E+000	8.99886E-002	8.94995E-002	9	...........
	490	12.275	9.96349E-002	4.57709E-004	0.00000E+000	9.99874E-002	9.95032E-002	9	...........
	491	12.3	1.09635E-001	4.60043E-004	0.00000E+000	1.09986E-001	1.09307E-001	9	...........
	492	12.325	1.19435E-001	4.64044E-004	0.00000E+000	1.19985E-001	1.19310E-001	9	...........
	493	12.35	1.29635E-001	4.66211E-004	0.00000E+000	1.29984E-001	1.29314E-001	9	...........
	494	12.375	1.39635E-001	4.68712E-004	0.00000E+000	1.39982E-001	1.39518E-001	9	...........
	495	12.4	1.49635E-001	4.71046E-004	0.00000E+000	1.49981E-001	1.49522E-001	9	...........
	496	12.425	1.59635E-001	4.74046E-004	0.00000E+000	1.59980E-001	1.59325E-001	9	...........
	497	12.45	1.69635E-001	4.76713E-004	0.00000E+000	1.69979E-001	1.69329E-001	9	...........
	498	12.475	1.79435E-001	4.78714E-004	0.00000E+000	1.79977E-001	1.79333E-001	9	...........
	499	12.5	1.89635E-001	4.82048E-004	0.00000E+000	1.90026E-001	1.89536E-001	9	...........
	500	12.525	1.99435E-001	4.84548E-004	0.00000E+000	2.00025E-001	1.99340E-001	9	...........
	501	12.55	2.09635E-001	4.86382E-004	0.00000E+000	2.10023E-001	2.09344E-001	9	...........
	502	12.575	2.19435E-001	4.88716E-004	0.00000E+000	2.20022E-001	2.19347E-001	9	...........
	503	12.6	2.29635E-001	4.91216E-004	0.00000E+000	2.30021E-001	2.29351E-001	9	...........
	504	12.625	2.39635E-001	4.93050E-004	0.00000E+000	2.40020E-001	2.39355E-001	9	...........
	505	12.65	2.49435E-001	4.95384E-004	0.00000E+000	2.50018E-001	2.49359E-001	9	...........
	506	12.675	2.59435E-001	4.97551E-004	0.00000E+000	2.60017E-001	2.59362E-001	9	...........
	507	12.7	2.69435E-001	4.99218E-004	0.00000E+000	2.70016E-001	2.69366E-001	9	...........
	508	12.725	2.79435E-001	5.00218E-004	0.00000E+000	2.80015E-001	2.79170E-001	9	...........
	509	12.75	2.89435E-001	5.02052E-004	0.00000E+000	2.90013E-001	2.89173E-001	9	...........
	510	12.775	2.99235E-001	5.03052E-004	0.00000E+000	3.00012E-001	2.99377E-001	9	...........
	511	12.8	3.09635E-001	5.05386E-004	0.00000E+000	3.10011E-001	3.09381E-001	9	...........
	512	12.825	3.19435E-001	5.06220E-004	0.00000E+000	3.20010E-001	3.19384E-001	9	...........
	513	12.85	3.29435E-001	5.07553E-004	0.00000E+000	3.30008E-001	3.29388E-001	9	...........
	514	12.875	3.39635E-001	5.08220E-004	0.00000E+000	3.40007E-001	3.39392E-001	9	...........
	515	12.9	3.49435E-001	5.10220E-004	0.00000E+000	3.50006E-001	3.49396E-001	9	...........
	516	12.925	3.59435E-001	5.11387E-004	0.00000E+000	3.60005E-001	3.59399E-001	9	...........
	517	12.95	3.69435E-001	5.12221E-004	0.00000E+000	3.70003E-001	3.69203E-001	9	...........
	518	12.975	3.79635E-001	5.12888E-004	0.00000E+000	3.80002E-001	3.79207E-001	9	...........
	519	13	3.89635E-001	5.13054E-004	0.00000E+000	3.90001E-001	3.89210E-001	9	...........
	520	13.025	3.99235E-001	5.13888E-004	0.00000E+000	3.99999E-001	3.99214E-001	9	...........
	521	13.05	4.09435E-001	5.14721E-004	0.00000E+000	4.09998E-001	4.09218E-001	9	...........
	522	13.075	4.19435E-001	5.15388E-004	0.00000E+000	4.19997E-001	4.19221E-001	9	...........
	523	13.1	4.29235E-001	5.15555E-004	0.00000E+000	4.29996E-001	4.29025E-001	9	...........
	524	13.125	4.39235E-001	5.17055E-004	0.00000E+000	4.39994E-001	4.39229E-001	9	...........
	525	13.15	4.49435E-001	5.16889E-004	0.00000E+000	4.49993E-001	4.49433E-001	9	...........
	526	13.175	4.59435E-001	5.17555E-004	0.00000E+000	4.59992E-001	4.59236E-001	9	...........
	527	13.2	4.69435E-001	5.18055E-004	0.00000E+000	4.69991E-001	4.69240E-001	9	...........
	528	13.225	4.79235E-001	5.18222E-004	0.00000E+000	4.79989E-001	4.79244E-001	9	...........
	529	13.25	4.89435E-001	5.17555E-004	0.00000E+000	4.89988E-001	4.89247E-001	9	...........
	530	13.275	4.99435E-001	5.18055E-004	0.00000E+000	4.99987E-001	4.99051E-001	9	...........
	531	13.3	5.09435E-001	5.17555E-004	0.00000E+000	5.09986E-001	5.09055E-001	9	...........
	532	13.325	5.19435E-001	5.17889E-004	0.00000E+000	5.19984E-001	5.19258E-001	9	...........
	533	13.35	5.29435E-001	5.17555E-004	0.00000E+000	5.29983E-001	5.29262E-001	9	...........
	534	13.375	5.39435E-001	5.17055E-004	0.00000E+000	5.39982E-001	5.39066E-001	9	...........
	535	13.4	5.49235E-001	5.17555E-004	0.00000E+000	5.49981E-001	5.49069E-001	9	...........
	536	13.425	5.59235E-001	5.17722E-004	0.00000E+000	5.59979E-001	5.59073E-001	9	...........
	537	13.45	5.69435E-001	5.17389E-004	0.00000E+000	5.69978E-001	5.69277E-001	9	...........
	538	13.475	5.79435E-001	5.16388E-004	0.00000E+000	5.79977E-001	5.79280E-001	9	...........
	539	13.5	5.89235E-001	5.16722E-004	0.00000E+000	5.89975E-001	5.89084E-001	9	...........
	540	13.525	5.99435E-001	5.16889E-004	0.00000E+000	6.00024E-001	5.98888E-001	9	...........
	541	13.55	6.09435E-001	5.16222E-004	0.00000E+000	6.10023E-001	6.09092E-001	9	...........
	542	13.575	6.19235E-001	5.15888E-004	0.00000E+000	6.20022E-001	6.19095E-001	9	...........
	543	13.6	6.29435E-001	5.15888E-004	0.00000E+000	6.30020E-001	6.29099E-001	9	...........
	544	13.625	6.39435E-001	5.16055E-004	0.00000E+000	6.40019E-001	6.39103E-001	9	...........
	545	13.65	6.49235E-001	5.16222E-004	0.00000E+000	6.50018E-001	6.48906E-001	9	...........
	546	13.675	6.59235E-001	5.16055E-004	0.00000E+000	6.60017E-001	6.59110E-001	9	...........
	547	13.7	6.69235E-001	5.16222E-004	0.00000E+000	6.70015E-001	6.68914E-001	9	...........
	548	13.725	6.79435E-001	5.16055E-004	0.00000E+000	6.80014E-001	6.78917E-001	9	...........
	549	13.75	6.89435E-001	5.17055E-004	0.00000E+000	6.90013E-001	6.89121E-001	9	...........
	550	13.775	6.99035E-001	5.17055E-004	0.00000E+000	7.00012E-001	6.99125E-001	9	...........
	551	13.8	7.09235E-001	5.17389E-004	0.00000E+000	7.10010E-001	7.08928E-001	9	...........
	552	13.825	7.19235E-001	5.18055E-004	0.00000E+000	7.20009E-001	7.18932E-001	9	...........
	553	13.85	7.29235E-001	5.17889E-004	0.00000E+000	7.30008E-001	7.28936E-001	9	...........
	554	13.875	7.39235E-001	5.18055E-004	0.00000E+000	7.40007E-001	7.38940E-001	9	...........
	555	13.9	7.49235E-001	5.19056E-004	0.00000E+000	7.50005E-001	7.48943E-001	9	...........
	556	13.925	7.59235E-001	5.20056E-004	0.00000E+000	7.60004E-001	7.59147E-001	9	...........
	557	13.95	7.69235E-001	5.20889E-004	0.00000E+000	7.70003E-001	7.68951E-001	9	...........
	558	13.975	7.79435E-001	5.22223E-004	0.00000E+000	7.80001E-001	7.78954E-001	9	...........
	559	14	7.89235E-001	5.23390E-004	0.00000E+000	7.90000E-001	7.88958E-001	9	...........
	560	14.025	7.99235E-001	5.24390E-004	0.00000E+000	7.99999E-001	7.98962E-001	9	...........
CURVE3	TABLE
	Pt	T	Vf	Im	Vu	Sig	Ach	IERange	Over
	#	s	V vs. Ref.	A	V	V	V	#	bits
	561	14.05	7.89435E-001	4.58543E-004	0.00000E+000	7.90000E-001	7.88958E-001	9	...........
	562	14.075	7.79235E-001	4.03031E-004	0.00000E+000	7.80001E-001	7.78954E-001	9	...........
	563	14.1	7.69235E-001	3.54039E-004	0.00000E+000	7.70003E-001	7.69151E-001	8	...........
	564	14.125	7.59235E-001	3.10148E-004	0.00000E+000	7.60004E-001	7.59147E-001	8	...........
	565	14.15	7.49435E-001	2.71517E-004	0.00000E+000	7.50005E-001	7.49143E-001	8	...........
	566	14.175	7.39235E-001	2.35673E-004	0.00000E+000	7.40007E-001	7.39140E-001	8	...........
	567	14.2	7.29235E-001	2.03569E-004	0.00000E+000	7.30008E-001	7.28936E-001	8	...........
	568	14.225	7.19235E-001	1.73703E-004	0.00000E+000	7.20009E-001	7.18932E-001	8	...........
	569	14.25	7.09235E-001	1.46223E-004	0.00000E+000	7.10010E-001	7.08928E-001	8	...........
	570	14.275	6.99035E-001	1.20781E-004	0.00000E+000	7.00012E-001	6.98925E-001	8	...........
	571	14.3	6.89235E-001	9.66735E-005	0.00000E+000	6.90013E-001	6.89121E-001	8	...........
	572	14.325	6.79235E-001	7.43694E-005	0.00000E+000	6.80014E-001	6.78917E-001	8	...........
	573	14.35	6.69235E-001	5.37515E-005	0.00000E+000	6.70015E-001	6.69114E-001	8	...........
	574	14.375	6.59235E-001	3.42187E-005	0.00000E+000	6.60017E-001	6.59110E-001	8	...........
	575	14.4	6.49435E-001	1.59030E-005	0.00000E+000	6.50018E-001	6.49106E-001	7	...........
	576	14.425	6.39235E-001	-1.43856E-006	0.00000E+000	6.40019E-001	6.38903E-001	7	...........
	577	14.45	6.29235E-001	-1.75776E-005	0.00000E+000	6.30020E-001	6.29099E-001	7	...........
	578	14.475	6.19435E-001	-3.29099E-005	0.00000E+000	6.20022E-001	6.19095E-001	7	...........
	579	14.5	6.09235E-001	-4.75156E-005	0.00000E+000	6.10023E-001	6.09092E-001	7	.....h.....
	580	14.525	5.99435E-001	-6.14918E-005	0.00000E+000	6.00024E-001	5.99088E-001	8	...........
	581	14.55	5.89435E-001	-7.46973E-005	0.00000E+000	5.89975E-001	5.89284E-001	8	...........
	582	14.575	5.79435E-001	-8.67509E-005	0.00000E+000	5.79977E-001	5.79080E-001	8	...........
	583	14.6	5.69235E-001	-9.85874E-005	0.00000E+000	5.69978E-001	5.69077E-001	8	...........
	584	14.625	5.59435E-001	-1.10240E-004	0.00000E+000	5.59979E-001	5.58873E-001	8	...........
	585	14.65	5.49235E-001	-1.20624E-004	0.00000E+000	5.49981E-001	5.49069E-001	8	...........
	586	14.675	5.39235E-001	-1.31008E-004	0.00000E+000	5.39982E-001	5.39066E-001	8	...........
	587	14.7	5.29435E-001	-1.41009E-004	0.00000E+000	5.29983E-001	5.29262E-001	8	...........
	588	14.725	5.19435E-001	-1.50408E-004	0.00000E+000	5.19984E-001	5.19058E-001	8	...........
	589	14.75	5.09235E-001	-1.59022E-004	0.00000E+000	5.09986E-001	5.09055E-001	8	...........
	590	14.775	4.99435E-001	-1.67954E-004	0.00000E+000	4.99987E-001	4.99051E-001	8	...........
	591	14.8	4.89435E-001	-1.76034E-004	0.00000E+000	4.89988E-001	4.89047E-001	8	...........
	592	14.825	4.79235E-001	-1.84098E-004	0.00000E+000	4.79989E-001	4.79043E-001	8	...........
	593	14.85	4.69235E-001	-1.91810E-004	0.00000E+000	4.69991E-001	4.69240E-001	8	...........
	594	14.875	4.59235E-001	-1.99223E-004	0.00000E+000	4.59992E-001	4.59236E-001	8	...........
	595	14.9	4.49435E-001	-2.06285E-004	0.00000E+000	4.49993E-001	4.49232E-001	8	...........
	596	14.925	4.39635E-001	-2.12946E-004	0.00000E+000	4.39994E-001	4.39029E-001	8	...........
	597	14.95	4.29435E-001	-2.19741E-004	0.00000E+000	4.29996E-001	4.29225E-001	8	...........
	598	14.975	4.19435E-001	-2.25567E-004	0.00000E+000	4.19997E-001	4.19421E-001	8	...........
	599	15	4.09435E-001	-2.32045E-004	0.00000E+000	4.09998E-001	4.09218E-001	8	...........
	600	15.025	3.99435E-001	-2.37888E-004	0.00000E+000	3.99999E-001	3.99214E-001	8	...........
	601	15.05	3.89435E-001	-2.44198E-004	0.00000E+000	3.90001E-001	3.89210E-001	8	...........
	602	15.075	3.79635E-001	-2.49841E-004	0.00000E+000	3.80002E-001	3.79207E-001	8	...........
	603	15.1	3.69235E-001	-2.55100E-004	0.00000E+000	3.70003E-001	3.69403E-001	8	...........
	604	15.125	3.59635E-001	-2.60409E-004	0.00000E+000	3.60005E-001	3.59399E-001	8	...........
	605	15.15	3.49635E-001	-2.66018E-004	0.00000E+000	3.50006E-001	3.49396E-001	8	...........
	606	15.175	3.39635E-001	-2.71027E-004	0.00000E+000	3.40007E-001	3.39192E-001	8	...........
	607	15.2	3.29435E-001	-2.75634E-004	0.00000E+000	3.30008E-001	3.29188E-001	8	...........
	608	15.225	3.19635E-001	-2.81244E-004	0.00000E+000	3.20010E-001	3.19384E-001	8	...........
	609	15.25	3.09435E-001	-2.85935E-004	0.00000E+000	3.10011E-001	3.09381E-001	8	...........
	610	15.275	2.99435E-001	-2.90443E-004	0.00000E+000	3.00012E-001	2.99377E-001	8	...........
	611	15.3	2.89635E-001	-2.95067E-004	0.00000E+000	2.90013E-001	2.89373E-001	8	...........
	612	15.325	2.79435E-001	-2.99792E-004	0.00000E+000	2.80015E-001	2.79170E-001	8	...........
	613	15.35	2.69635E-001	-3.04182E-004	0.00000E+000	2.70016E-001	2.69366E-001	8	...........
	614	15.375	2.59635E-001	-3.09124E-004	0.00000E+000	2.60017E-001	2.59362E-001	8	...........
	615	15.4	2.49435E-001	-3.13364E-004	0.00000E+000	2.50018E-001	2.49159E-001	8	...........
	616	15.425	2.39635E-001	-3.18056E-004	0.00000E+000	2.40020E-001	2.39355E-001	8	...........
	617	15.45	2.29635E-001	-3.22346E-004	0.00000E+000	2.30021E-001	2.29351E-001	8	...........
	618	15.475	2.19635E-001	-3.26370E-004	0.00000E+000	2.20022E-001	2.19548E-001	8	...........
	619	15.5	2.09835E-001	-3.30860E-004	0.00000E+000	2.10023E-001	2.09344E-001	8	...........
	620	15.525	1.99635E-001	-3.35134E-004	0.00000E+000	2.00025E-001	1.99540E-001	8	...........
	621	15.55	1.89635E-001	-3.39057E-004	0.00000E+000	1.90026E-001	1.89336E-001	8	...........
	622	15.575	1.79835E-001	-3.43064E-004	0.00000E+000	1.79977E-001	1.79333E-001	8	...........
	623	15.6	1.69635E-001	-3.46954E-004	0.00000E+000	1.69979E-001	1.69329E-001	8	...........
	624	15.625	1.59635E-001	-3.50811E-004	0.00000E+000	1.59980E-001	1.59525E-001	8	...........
	625	15.65	1.49635E-001	-3.54700E-004	0.00000E+000	1.49981E-001	1.49122E-001	8	...........
	626	15.675	1.39635E-001	-3.58924E-004	0.00000E+000	1.39982E-001	1.39518E-001	8	...........
	627	15.7	1.29635E-001	-3.63665E-004	0.00000E+000	1.29984E-001	1.29514E-001	8	...........
	628	15.725	1.19635E-001	-3.67505E-004	0.00000E+000	1.19985E-001	1.19310E-001	8	...........
	629	15.75	1.09635E-001	-3.71145E-004	0.00000E+000	1.09986E-001	1.09507E-001	8	...........
	630	15.775	9.96349E-002	-3.74450E-004	0.00000E+000	9.99874E-002	9.95032E-002	8	...........
	631	15.8	8.96349E-002	-3.78190E-004	0.00000E+000	8.99886E-002	8.92994E-002	8	...........
	632	15.825	7.96349E-002	-3.82848E-004	0.00000E+000	7.99899E-002	7.94958E-002	8	...........
	633	15.85	6.96349E-002	-3.86838E-004	0.00000E+000	6.99912E-002	6.94921E-002	8	...........
	634	15.875	5.96349E-002	-3.90126E-004	0.00000E+000	5.99924E-002	5.94884E-002	8	...........
	635	15.9	4.96349E-002	-3.92948E-004	0.00000E+000	4.99937E-002	4.94847E-002	8	...........
	636	15.925	3.96349E-002	-3.97238E-004	0.00000E+000	3.99949E-002	3.94810E-002	8	...........
	637	15.95	2.98349E-002	-4.00527E-004	0.00000E+000	2.99962E-002	2.94773E-002	8	...........
	638	15.975	1.96349E-002	-4.05469E-004	0.00000E+000	1.99975E-002	1.94736E-002	8	...........
	639	16	9.63488E-003	-4.08340E-004	0.00000E+000	9.99874E-003	9.46990E-003	8	...........
	640	16.025	-1.65120E-004	-4.11746E-004	0.00000E+000	0.00000E+000	-5.33797E-004	8	...........
	641	16.05	-1.03651E-002	-4.15519E-004	0.00000E+000	-9.99874E-003	-1.03374E-002	8	...........
	642	16.075	-2.01651E-002	-4.18240E-004	0.00000E+000	-1.99975E-002	-2.05412E-002	8	...........
	643	16.1	-3.01651E-002	-4.21679E-004	0.00000E+000	-2.99962E-002	-3.03448E-002	8	...........
	644	16.125	-4.03651E-002	-4.25269E-004	0.00000E+000	-3.99949E-002	-4.03485E-002	8	...........
	645	16.15	-5.03651E-002	-4.28708E-004	0.00000E+000	-4.99937E-002	-5.03522E-002	8	...........
	646	16.175	-6.01651E-002	-4.32464E-004	0.00000E+000	-5.99924E-002	-6.05560E-002	8	...........
	647	16.2	-7.01651E-002	-4.35202E-004	0.00000E+000	-6.99912E-002	-7.03596E-002	8	...........
	648	16.225	-8.01651E-002	-4.38007E-004	0.00000E+000	-7.99899E-002	-8.03633E-002	8	...........
	649	16.25	-9.01651E-002	-4.41312E-004	0.00000E+000	-8.99886E-002	-9.03670E-002	8	...........
	650	16.275	-1.00165E-001	-4.44735E-004	0.00000E+000	-9.99874E-002	-1.00371E-001	8	...........
	651	16.3	-1.10365E-001	-4.47647E-004	0.00000E+000	-1.09986E-001	-1.10374E-001	9	...........
	652	16.325	-1.20365E-001	-4.51482E-004	0.00000E+000	-1.19985E-001	-1.20378E-001	9	...........
	653	16.35	-1.30165E-001	-4.53982E-004	0.00000E+000	-1.29984E-001	-1.30182E-001	9	...........
	654	16.375	-1.40165E-001	-4.57149E-004	0.00000E+000	-1.39982E-001	-1.40385E-001	9	...........
	655	16.4	-1.50165E-001	-4.60483E-004	0.00000E+000	-1.49981E-001	-1.50189E-001	9	...........
	656	16.425	-1.60365E-001	-4.63317E-004	0.00000E+000	-1.59980E-001	-1.60193E-001	9	...........
	657	16.45	-1.70165E-001	-4.65818E-004	0.00000E+000	-1.69979E-001	-1.70197E-001	9	...........
	658	16.475	-1.79965E-001	-4.68318E-004	0.00000E+000	-1.79977E-001	-1.80200E-001	9	...........
	659	16.5	-1.90165E-001	-4.71319E-004	0.00000E+000	-1.89976E-001	-1.90404E-001	9	...........
	660	16.525	-2.00165E-001	-4.73820E-004	0.00000E+000	-1.99975E-001	-2.00208E-001	9	...........
	661	16.55	-2.10165E-001	-4.75987E-004	0.00000E+000	-2.09973E-001	-2.10211E-001	9	...........
	662	16.575	-2.20165E-001	-4.79654E-004	0.00000E+000	-2.20022E-001	-2.20215E-001	9	...........
	663	16.6	-2.30165E-001	-4.81988E-004	0.00000E+000	-2.30021E-001	-2.30219E-001	9	...........
	664	16.625	-2.39965E-001	-4.84322E-004	0.00000E+000	-2.40020E-001	-2.40422E-001	9	...........
	665	16.65	-2.50165E-001	-4.86322E-004	0.00000E+000	-2.50018E-001	-2.50226E-001	9	...........
	666	16.675	-2.59965E-001	-4.88156E-004	0.00000E+000	-2.60017E-001	-2.60230E-001	9	...........
	667	16.7	-2.70165E-001	-4.90490E-004	0.00000E+000	-2.70016E-001	-2.70233E-001	9	...........
	668	16.725	-2.79965E-001	-4.93490E-004	0.00000E+000	-2.80015E-001	-2.80437E-001	9	...........
	669	16.75	-2.90165E-001	-4.95324E-004	0.00000E+000	-2.90013E-001	-2.90241E-001	9	...........
	670	16.775	-3.00165E-001	-4.96658E-004	0.00000E+000	-3.00012E-001	-3.00245E-001	9	...........
	671	16.8	-3.09965E-001	-4.99158E-004	0.00000E+000	-3.10011E-001	-3.10248E-001	9	...........
	672	16.825	-3.20165E-001	-5.00659E-004	0.00000E+000	-3.20010E-001	-3.20252E-001	9	...........
	673	16.85	-3.30165E-001	-5.02492E-004	0.00000E+000	-3.30008E-001	-3.30256E-001	9	...........
	674	16.875	-3.40165E-001	-5.04326E-004	0.00000E+000	-3.40007E-001	-3.40459E-001	9	...........
	675	16.9	-3.49965E-001	-5.06993E-004	0.00000E+000	-3.50006E-001	-3.50063E-001	9	...........
	676	16.925	-3.59965E-001	-5.07993E-004	0.00000E+000	-3.60005E-001	-3.60067E-001	9	...........
	677	16.95	-3.69965E-001	-5.09494E-004	0.00000E+000	-3.70003E-001	-3.70070E-001	9	...........
	678	16.975	-3.80165E-001	-5.11328E-004	0.00000E+000	-3.80002E-001	-3.80274E-001	9	...........
	679	17	-3.89965E-001	-5.13161E-004	0.00000E+000	-3.90001E-001	-3.90078E-001	9	...........
	680	17.025	-3.99965E-001	-5.14328E-004	0.00000E+000	-3.99999E-001	-4.00081E-001	9	...........
	681	17.05	-4.09965E-001	-5.15828E-004	0.00000E+000	-4.09998E-001	-4.10285E-001	9	...........
	682	17.075	-4.19965E-001	-5.17162E-004	0.00000E+000	-4.19997E-001	-4.20089E-001	9	...........
	683	17.1	-4.29965E-001	-5.18662E-004	0.00000E+000	-4.29996E-001	-4.30093E-001	9	...........
	684	17.125	-4.39965E-001	-5.19496E-004	0.00000E+000	-4.39994E-001	-4.39896E-001	9	...........
	685	17.15	-4.49965E-001	-5.21996E-004	0.00000E+000	-4.49993E-001	-4.50100E-001	9	...........
	686	17.175	-4.60165E-001	-5.23330E-004	0.00000E+000	-4.59992E-001	-4.60104E-001	9	...........
	687	17.2	-4.69765E-001	-5.24497E-004	0.00000E+000	-4.69991E-001	-4.69907E-001	9	...........
	688	17.225	-4.79965E-001	-5.25664E-004	0.00000E+000	-4.79989E-001	-4.79911E-001	9	...........
	689	17.25	-4.90165E-001	-5.26831E-004	0.00000E+000	-4.89988E-001	-4.89915E-001	9	...........
	690	17.275	-4.99965E-001	-5.28164E-004	0.00000E+000	-4.99987E-001	-5.00118E-001	9	...........
	691	17.3	-5.09765E-001	-5.29498E-004	0.00000E+000	-5.09986E-001	-5.10122E-001	9	...........
	692	17.325	-5.19965E-001	-5.30665E-004	0.00000E+000	-5.19984E-001	-5.19926E-001	9	...........
	693	17.35	-5.29965E-001	-5.31498E-004	0.00000E+000	-5.29983E-001	-5.30130E-001	9	...........
	694	17.375	-5.39965E-001	-5.33332E-004	0.00000E+000	-5.39982E-001	-5.40133E-001	9	...........
	695	17.4	-5.49765E-001	-5.35166E-004	0.00000E+000	-5.49981E-001	-5.49937E-001	9	...........
	696	17.425	-5.59765E-001	-5.37000E-004	0.00000E+000	-5.59979E-001	-5.59941E-001	9	...........
	697	17.45	-5.69965E-001	-5.38500E-004	0.00000E+000	-5.69978E-001	-5.69944E-001	9	...........
	698	17.475	-5.79965E-001	-5.40334E-004	0.00000E+000	-5.79977E-001	-5.79748E-001	9	...........
	699	17.5	-5.89965E-001	-5.40667E-004	0.00000E+000	-5.89975E-001	-5.89952E-001	9	...........
	700	17.525	-5.99765E-001	-5.42667E-004	0.00000E+000	-5.99974E-001	-5.99955E-001	9	...........
	701	17.55	-6.09765E-001	-5.44834E-004	0.00000E+000	-6.09973E-001	-6.10159E-001	9	...........
	702	17.575	-6.19765E-001	-5.46168E-004	0.00000E+000	-6.20022E-001	-6.19763E-001	9	...........
	703	17.6	-6.29965E-001	-5.47835E-004	0.00000E+000	-6.30020E-001	-6.30167E-001	9	...........
	704	17.625	-6.39765E-001	-5.50169E-004	0.00000E+000	-6.40019E-001	-6.39970E-001	9	...........
	705	17.65	-6.49965E-001	-5.53170E-004	0.00000E+000	-6.50018E-001	-6.49974E-001	9	...........
	706	17.675	-6.59765E-001	-5.56670E-004	0.00000E+000	-6.60017E-001	-6.59978E-001	9	...........
	707	17.7	-6.69965E-001	-5.59171E-004	0.00000E+000	-6.70015E-001	-6.69981E-001	9	...........
	708	17.725	-6.79965E-001	-5.61838E-004	0.00000E+000	-6.80014E-001	-6.79785E-001	9	...........
	709	17.75	-6.89965E-001	-5.64172E-004	0.00000E+000	-6.90013E-001	-6.89789E-001	9	...........
	710	17.775	-6.99965E-001	-5.67506E-004	0.00000E+000	-7.00012E-001	-6.99992E-001	9	...........
	711	17.8	-7.09765E-001	-5.71173E-004	0.00000E+000	-7.10010E-001	-7.09796E-001	9	...........
	712	17.825	-7.19965E-001	-5.75341E-004	0.00000E+000	-7.20009E-001	-7.19800E-001	9	...........
	713	17.85	-7.29565E-001	-5.79508E-004	0.00000E+000	-7.30008E-001	-7.29603E-001	9	...........
	714	17.875	-7.39765E-001	-5.84176E-004	0.00000E+000	-7.40007E-001	-7.39807E-001	9	...........
	715	17.9	-7.49765E-001	-5.89010E-004	0.00000E+000	-7.50005E-001	-7.49811E-001	9	...........
	716	17.925	-7.59965E-001	-5.94345E-004	0.00000E+000	-7.60004E-001	-7.59814E-001	9	...........
	717	17.95	-7.69765E-001	-5.99846E-004	0.00000E+000	-7.70003E-001	-7.69818E-001	9	...........
	718	17.975	-7.79765E-001	-6.05847E-004	0.00000E+000	-7.80001E-001	-7.79822E-001	9	...........
	719	18	-7.89965E-001	-6.12015E-004	0.00000E+000	-7.90000E-001	-7.89825E-001	9	...........
	720	18.025	-7.99565E-001	-6.19184E-004	0.00000E+000	-7.99999E-001	-7.99829E-001	9	...........
	721	18.05	-7.89765E-001	-5.41167E-004	0.00000E+000	-7.90000E-001	-7.89825E-001	9	...........
	722	18.075	-7.79765E-001	-4.75653E-004	0.00000E+000	-7.80001E-001	-7.79822E-001	9	...........
	723	18.1	-7.69965E-001	-4.18141E-004	0.00000E+000	-7.70003E-001	-7.69818E-001	9	...........
	724	18.125	-7.59965E-001	-3.67131E-004	0.00000E+000	-7.60004E-001	-7.59614E-001	9	...........
	725	18.15	-7.49765E-001	-3.21094E-004	0.00000E+000	-7.50005E-001	-7.49811E-001	8	...........
	726	18.175	-7.39765E-001	-2.79992E-004	0.00000E+000	-7.40007E-001	-7.39807E-001	8	...........
	727	18.2	-7.29765E-001	-2.41811E-004	0.00000E+000	-7.30008E-001	-7.29803E-001	8	...........
	728	18.225	-7.19965E-001	-2.06301E-004	0.00000E+000	-7.20009E-001	-7.20000E-001	8	...........
	729	18.25	-7.09765E-001	-1.74398E-004	0.00000E+000	-7.10010E-001	-7.09996E-001	8	...........
	730	18.275	-6.99965E-001	-1.44197E-004	0.00000E+000	-7.00012E-001	-6.99792E-001	8	...........
	731	18.3	-6.89965E-001	-1.16250E-004	0.00000E+000	-6.90013E-001	-6.89789E-001	8	...........
	732	18.325	-6.79965E-001	-9.04404E-005	0.00000E+000	-6.80014E-001	-6.79785E-001	8	...........
	733	18.35	-6.69965E-001	-6.65503E-005	0.00000E+000	-6.70015E-001	-6.69981E-001	8	...........
	734	18.375	-6.59965E-001	-4.37788E-005	0.00000E+000	-6.60017E-001	-6.59978E-001	8	...........
	735	18.4	-6.49765E-001	-2.26934E-005	0.00000E+000	-6.50018E-001	-6.50174E-001	8	...........
	736	18.425	-6.39765E-001	-2.44736E-006	0.00000E+000	-6.40019E-001	-6.39770E-001	7	...........
	737	18.45	-6.29965E-001	1.62771E-005	0.00000E+000	-6.30020E-001	-6.29966E-001	7	...........
	738	18.475	-6.19765E-001	3.41314E-005	0.00000E+000	-6.20022E-001	-6.19963E-001	7	...........
	739	18.5	-6.09765E-001	5.10804E-005	0.00000E+000	-6.09973E-001	-6.09959E-001	7	.....h.....
	740	18.525	-5.99965E-001	6.67900E-005	0.00000E+000	-5.99974E-001	-5.99955E-001	8	...........
	741	18.55	-5.89965E-001	8.19989E-005	0.00000E+000	-5.89975E-001	-5.89952E-001	8	...........
	742	18.575	-5.79965E-001	9.61393E-005	0.00000E+000	-5.79977E-001	-5.79948E-001	8	...........
	743	18.6	-5.69965E-001	1.09328E-004	0.00000E+000	-5.69978E-001	-5.69944E-001	8	...........
	744	18.625	-5.59765E-001	1.22166E-004	0.00000E+000	-5.59979E-001	-5.60141E-001	8	...........
	745	18.65	-5.49965E-001	1.34120E-004	0.00000E+000	-5.49981E-001	-5.50137E-001	8	...........
	746	18.675	-5.39965E-001	1.45672E-004	0.00000E+000	-5.39982E-001	-5.39933E-001	8	...........
	747	18.7	-5.29965E-001	1.56173E-004	0.00000E+000	-5.29983E-001	-5.30130E-001	8	...........
	748	18.725	-5.19965E-001	1.66474E-004	0.00000E+000	-5.19984E-001	-5.20126E-001	8	...........
	749	18.75	-5.09965E-001	1.76858E-004	0.00000E+000	-5.09986E-001	-5.10122E-001	8	...........
	750	18.775	-5.00165E-001	1.86274E-004	0.00000E+000	-4.99987E-001	-4.99918E-001	8	...........
	751	18.8	-4.89765E-001	1.95155E-004	0.00000E+000	-4.89988E-001	-4.89915E-001	8	...........
	752	18.825	-4.79965E-001	2.04054E-004	0.00000E+000	-4.79989E-001	-4.80111E-001	8	...........
	753	18.85	-4.69965E-001	2.12267E-004	0.00000E+000	-4.69991E-001	-4.69907E-001	8	...........
	754	18.875	-4.60165E-001	2.19763E-004	0.00000E+000	-4.59992E-001	-4.60104E-001	8	...........
	755	18.9	-4.49965E-001	2.27409E-004	0.00000E+000	-4.49993E-001	-4.50100E-001	8	...........
	756	18.925	-4.40165E-001	2.34371E-004	0.00000E+000	-4.39994E-001	-4.40096E-001	8	...........
	757	18.95	-4.29965E-001	2.41884E-004	0.00000E+000	-4.29996E-001	-4.29893E-001	8	...........
	758	18.975	-4.19965E-001	2.47777E-004	0.00000E+000	-4.19997E-001	-4.20089E-001	8	...........
	759	19	-4.09965E-001	2.54805E-004	0.00000E+000	-4.09998E-001	-4.09885E-001	8	...........
	760	19.025	-4.00165E-001	2.60749E-004	0.00000E+000	-3.99999E-001	-4.00081E-001	8	...........
	761	19.05	-3.89965E-001	2.66842E-004	0.00000E+000	-3.90001E-001	-3.90078E-001	8	...........
	762	19.075	-3.80165E-001	2.72635E-004	0.00000E+000	-3.80002E-001	-3.80274E-001	8	...........
	763	19.1	-3.69965E-001	2.78195E-004	0.00000E+000	-3.70003E-001	-3.70070E-001	8	...........
	764	19.125	-3.59965E-001	2.83754E-004	0.00000E+000	-3.60005E-001	-3.60067E-001	8	...........
	765	19.15	-3.50165E-001	2.88662E-004	0.00000E+000	-3.50006E-001	-3.50063E-001	8	...........
	766	19.175	-3.39965E-001	2.93854E-004	0.00000E+000	-3.40007E-001	-3.40059E-001	8	...........
	767	19.2	-3.30165E-001	2.98896E-004	0.00000E+000	-3.30008E-001	-3.30056E-001	8	...........
	768	19.225	-3.19965E-001	3.03587E-004	0.00000E+000	-3.20010E-001	-3.20052E-001	8	...........
	769	19.25	-3.10365E-001	3.08145E-004	0.00000E+000	-3.10011E-001	-3.10248E-001	8	...........
	770	19.275	-3.00165E-001	3.13270E-004	0.00000E+000	-3.00012E-001	-3.00045E-001	8	...........
	771	19.3	-2.90165E-001	3.17177E-004	0.00000E+000	-2.90013E-001	-2.90241E-001	8	...........
	772	19.325	-2.80165E-001	3.21601E-004	0.00000E+000	-2.80015E-001	-2.80237E-001	8	...........
	773	19.35	-2.70365E-001	3.26008E-004	0.00000E+000	-2.70016E-001	-2.70233E-001	8	...........
	774	19.375	-2.60165E-001	3.30850E-004	0.00000E+000	-2.60017E-001	-2.60430E-001	8	...........
	775	19.4	-2.49965E-001	3.34439E-004	0.00000E+000	-2.50018E-001	-2.50226E-001	8	...........
	776	19.425	-2.40165E-001	3.37995E-004	0.00000E+000	-2.40020E-001	-2.40022E-001	8	...........
	777	19.45	-2.30165E-001	3.42185E-004	0.00000E+000	-2.30021E-001	-2.30419E-001	8	...........
	778	19.475	-2.20365E-001	3.46025E-004	0.00000E+000	-2.20022E-001	-2.20415E-001	8	...........
	779	19.5	-2.10165E-001	3.50733E-004	0.00000E+000	-2.09973E-001	-2.10211E-001	8	...........
	780	19.525	-2.00165E-001	3.54606E-004	0.00000E+000	-1.99975E-001	-2.00408E-001	8	...........
	781	19.55	-1.89965E-001	3.58947E-004	0.00000E+000	-1.89976E-001	-1.90404E-001	8	...........
	782	19.575	-1.80165E-001	3.62152E-004	0.00000E+000	-1.79977E-001	-1.80400E-001	8	...........
	783	19.6	-1.70165E-001	3.65775E-004	0.00000E+000	-1.69979E-001	-1.70397E-001	8	...........
	784	19.625	-1.60165E-001	3.70232E-004	0.00000E+000	-1.59980E-001	-1.60393E-001	8	...........
	785	19.65	-1.50165E-001	3.73271E-004	0.00000E+000	-1.49981E-001	-1.50389E-001	8	...........
	786	19.675	-1.40165E-001	3.76643E-004	0.00000E+000	-1.39982E-001	-1.39985E-001	8	...........
	787	19.7	-1.30365E-001	3.80266E-004	0.00000E+000	-1.29984E-001	-1.30182E-001	8	...........
	788	19.725	-1.20165E-001	3.84590E-004	0.00000E+000	-1.19985E-001	-1.20578E-001	8	...........
	789	19.75	-1.09965E-001	3.88029E-004	0.00000E+000	-1.09986E-001	-1.10174E-001	8	...........
	790	19.775	-1.00365E-001	3.92253E-004	0.00000E+000	-9.99874E-002	-1.00371E-001	8	...........
	791	19.8	-9.01651E-002	3.94707E-004	0.00000E+000	-8.99886E-002	-9.01669E-002	8	...........
	792	19.825	-8.03651E-002	3.98647E-004	0.00000E+000	-7.99899E-002	-8.03633E-002	8	...........
	793	19.85	-7.03651E-002	4.02286E-004	0.00000E+000	-6.99912E-002	-7.01595E-002	8	...........
	794	19.875	-6.03651E-002	4.05842E-004	0.00000E+000	-5.99924E-002	-6.03559E-002	8	...........
	795	19.9	-5.03651E-002	4.09598E-004	0.00000E+000	-4.99937E-002	-5.03522E-002	8	...........
	796	19.925	-4.01651E-002	4.13004E-004	0.00000E+000	-3.99949E-002	-4.05486E-002	8	...........
	797	19.95	-3.03651E-002	4.16560E-004	0.00000E+000	-2.99962E-002	-3.03448E-002	8	...........
	798	19.975	-2.03651E-002	4.20150E-004	0.00000E+000	-1.99975E-002	-2.05412E-002	8	...........
	799	20	-1.03651E-002	4.22854E-004	0.00000E+000	-9.99874E-003	-1.05375E-002	8	...........
	800	20.025	-3.65120E-004	4.26377E-004	0.00000E+000	0.00000E+000	-3.33723E-004	8	...........
	801	20.05	9.43488E-003	4.29665E-004	0.00000E+000	9.99874E-003	9.46990E-003	8	...........
	802	20.075	1.96349E-002	4.32904E-004	0.00000E+000	1.99975E-002	1.94736E-002	8	...........
	803	20.1	2.96349E-002	4.36160E-004	0.00000E+000	2.99962E-002	2.92772E-002	8	...........
	804	20.125	3.96349E-002	4.39782E-004	0.00000E+000	3.99949E-002	3.94810E-002	8	...........
	805	20.15	4.96349E-002	4.42487E-004	0.00000E+000	4.99937E-002	4.92846E-002	8	...........
	806	20.175	5.96349E-002	4.45859E-004	0.00000E+000	5.99924E-002	5.92883E-002	8	...........
	807	20.2	6.96349E-002	4.48874E-004	0.00000E+000	6.99912E-002	6.94921E-002	9	...........
	808	20.225	7.94349E-002	4.51375E-004	0.00000E+000	7.99899E-002	7.94958E-002	9	...........
	809	20.25	8.96349E-002	4.55209E-004	0.00000E+000	8.99886E-002	8.94995E-002	9	...........
	810	20.275	9.96349E-002	4.57709E-004	0.00000E+000	9.99874E-002	9.95032E-002	9	...........
	811	20.3	1.09835E-001	4.60543E-004	0.00000E+000	1.09986E-001	1.09307E-001	9	...........
	812	20.325	1.19635E-001	4.63711E-004	0.00000E+000	1.19985E-001	1.19511E-001	9	...........
	813	20.35	1.29835E-001	4.65378E-004	0.00000E+000	1.29984E-001	1.29314E-001	9	...........
	814	20.375	1.39635E-001	4.68878E-004	0.00000E+000	1.39982E-001	1.39518E-001	9	...........
	815	20.4	1.49435E-001	4.70545E-004	0.00000E+000	1.49981E-001	1.49522E-001	9	...........
	816	20.425	1.59435E-001	4.73379E-004	0.00000E+000	1.59980E-001	1.59325E-001	9	...........
	817	20.45	1.69635E-001	4.76380E-004	0.00000E+000	1.69979E-001	1.69329E-001	9	...........
	818	20.475	1.79635E-001	4.79047E-004	0.00000E+000	1.79977E-001	1.79133E-001	9	...........
	819	20.5	1.89835E-001	4.81881E-004	0.00000E+000	1.90026E-001	1.89336E-001	9	...........
	820	20.525	1.99435E-001	4.83715E-004	0.00000E+000	2.00025E-001	1.99340E-001	9	...........
	821	20.55	2.09635E-001	4.85549E-004	0.00000E+000	2.10023E-001	2.09344E-001	9	...........
	822	20.575	2.19635E-001	4.87882E-004	0.00000E+000	2.20022E-001	2.19347E-001	9	...........
	823	20.6	2.29435E-001	4.89883E-004	0.00000E+000	2.30021E-001	2.29551E-001	9	...........
	824	20.625	2.39635E-001	4.91717E-004	0.00000E+000	2.40020E-001	2.39355E-001	9	...........
	825	20.65	2.49435E-001	4.94050E-004	0.00000E+000	2.50018E-001	2.49359E-001	9	...........
	826	20.675	2.59435E-001	4.95384E-004	0.00000E+000	2.60017E-001	2.59362E-001	9	...........
	827	20.7	2.69635E-001	4.97885E-004	0.00000E+000	2.70016E-001	2.69366E-001	9	...........
	828	20.725	2.79635E-001	4.98385E-004	0.00000E+000	2.80015E-001	2.79370E-001	9	...........
	829	20.75	2.89435E-001	5.00718E-004	0.00000E+000	2.90013E-001	2.89173E-001	9	...........
	830	20.775	2.99435E-001	5.02052E-004	0.00000E+000	3.00012E-001	2.99177E-001	9	...........
	831	20.8	3.09435E-001	5.03886E-004	0.00000E+000	3.10011E-001	3.09381E-001	9	...........
	832	20.825	3.19435E-001	5.04219E-004	0.00000E+000	3.20010E-001	3.19384E-001	9	...........
	833	20.85	3.29435E-001	5.06053E-004	0.00000E+000	3.30008E-001	3.29188E-001	9	...........
	834	20.875	3.39435E-001	5.07720E-004	0.00000E+000	3.40007E-001	3.39192E-001	9	...........
	835	20.9	3.49435E-001	5.09220E-004	0.00000E+000	3.50006E-001	3.49195E-001	9	...........
	836	20.925	3.59435E-001	5.10220E-004	0.00000E+000	3.60005E-001	3.59199E-001	9	...........
	837	20.95	3.69635E-001	5.11221E-004	0.00000E+000	3.70003E-001	3.69203E-001	9	...........
	838	20.975	3.79435E-001	5.11721E-004	0.00000E+000	3.80002E-001	3.79207E-001	9	...........
	839	21	3.89435E-001	5.11887E-004	0.00000E+000	3.90001E-001	3.89210E-001	9	...........
	840	21.025	3.99435E-001	5.13054E-004	0.00000E+000	3.99999E-001	3.99214E-001	9	...........
	841	21.05	4.09435E-001	5.13888E-004	0.00000E+000	4.09998E-001	4.09418E-001	9	...........
	842	21.075	4.19635E-001	5.15055E-004	0.00000E+000	4.19997E-001	4.19221E-001	9	...........
	843	21.1	4.29435E-001	5.15555E-004	0.00000E+000	4.29996E-001	4.29225E-001	9	...........
	844	21.125	4.39435E-001	5.15722E-004	0.00000E+000	4.39994E-001	4.39229E-001	9	...........
	845	21.15	4.49435E-001	5.16055E-004	0.00000E+000	4.49993E-001	4.49433E-001	9	...........
	846	21.175	4.59235E-001	5.16388E-004	0.00000E+000	4.59992E-001	4.59236E-001	9	...........
	847	21.2	4.69435E-001	5.16555E-004	0.00000E+000	4.69991E-001	4.69240E-001	9	...........
	848	21.225	4.79235E-001	5.17389E-004	0.00000E+000	4.79989E-001	4.79244E-001	9	...........
	849	21.25	4.89235E-001	5.17055E-004	0.00000E+000	4.89988E-001	4.89247E-001	9	...........
	850	21.275	4.99235E-001	5.16889E-004	0.00000E+000	4.99987E-001	4.99051E-001	9	...........
	851	21.3	5.09235E-001	5.17222E-004	0.00000E+000	5.09986E-001	5.09255E-001	9	...........
	852	21.325	5.19435E-001	5.18055E-004	0.00000E+000	5.19984E-001	5.19058E-001	9	...........
	853	21.35	5.29435E-001	5.17222E-004	0.00000E+000	5.29983E-001	5.29062E-001	9	...........
	854	21.375	5.39435E-001	5.16889E-004	0.00000E+000	5.39982E-001	5.39066E-001	9	...........
	855	21.4	5.49435E-001	5.17055E-004	0.00000E+000	5.49981E-001	5.49269E-001	9	...........
	856	21.425	5.59235E-001	5.16388E-004	0.00000E+000	5.59979E-001	5.59273E-001	9	...........
	857	21.45	5.69235E-001	5.16388E-004	0.00000E+000	5.69978E-001	5.69277E-001	9	...........
	858	21.475	5.79435E-001	5.15888E-004	0.00000E+000	5.79977E-001	5.79080E-001	9	...........
	859	21.5	5.89035E-001	5.15722E-004	0.00000E+000	5.89975E-001	5.89084E-001	9	...........
	860	21.525	5.99035E-001	5.16388E-004	0.00000E+000	6.00024E-001	5.99288E-001	9	...........
	861	21.55	6.09235E-001	5.16055E-004	0.00000E+000	6.10023E-001	6.09092E-001	9	...........
	862	21.575	6.19435E-001	5.15888E-004	0.00000E+000	6.20022E-001	6.18895E-001	9	...........
	863	21.6	6.29235E-001	5.15555E-004	0.00000E+000	6.30020E-001	6.29299E-001	9	...........
	864	21.625	6.39435E-001	5.15222E-004	0.00000E+000	6.40019E-001	6.39103E-001	9	...........
	865	21.65	6.49435E-001	5.15555E-004	0.00000E+000	6.50018E-001	6.49106E-001	9	...........
	866	21.675	6.59235E-001	5.15388E-004	0.00000E+000	6.60017E-001	6.59110E-001	9	...........
	867	21.7	6.69435E-001	5.15222E-004	0.00000E+000	6.70015E-001	6.68914E-001	9	...........
	868	21.725	6.79435E-001	5.15388E-004	0.00000E+000	6.80014E-001	6.79117E-001	9	...........
	869	21.75	6.89235E-001	5.15555E-004	0.00000E+000	6.90013E-001	6.88921E-001	9	...........
	870	21.775	6.99435E-001	5.16222E-004	0.00000E+000	7.00012E-001	6.99125E-001	9	...........
	871	21.8	7.09235E-001	5.16388E-004	0.00000E+000	7.10010E-001	7.08928E-001	9	...........
	872	21.825	7.19435E-001	5.17389E-004	0.00000E+000	7.20009E-001	7.18932E-001	9	...........
	873	21.85	7.29235E-001	5.17722E-004	0.00000E+000	7.30008E-001	7.29136E-001	9	...........
	874	21.875	7.39235E-001	5.18389E-004	0.00000E+000	7.40007E-001	7.38739E-001	9	...........
	875	21.9	7.49235E-001	5.19389E-004	0.00000E+000	7.50005E-001	7.48943E-001	9	...........
	876	21.925	7.59235E-001	5.20223E-004	0.00000E+000	7.60004E-001	7.58947E-001	9	...........
	877	21.95	7.69435E-001	5.20889E-004	0.00000E+000	7.70003E-001	7.69151E-001	9	...........
	878	21.975	7.79235E-001	5.21556E-004	0.00000E+000	7.80001E-001	7.78954E-001	9	...........
	879	22	7.89235E-001	5.22723E-004	0.00000E+000	7.90000E-001	7.88958E-001	9	...........
	880	22.025	7.99235E-001	5.24890E-004	0.00000E+000	7.99999E-001	7.98962E-001	9	...........
CURVE4	TABLE
	Pt	T	Vf	Im	Vu	Sig	Ach	IERange	Over
	#	s	V vs. Ref.	A	V	V	V	#	bits
	881	22.05	7.89035E-001	4.57709E-004	0.00000E+000	7.90000E-001	7.88958E-001	9	...........
	882	22.075	7.79035E-001	4.01364E-004	0.00000E+000	7.80001E-001	7.78954E-001	9	...........
	883	22.1	7.69235E-001	3.52603E-004	0.00000E+000	7.70003E-001	7.68951E-001	8	...........
	884	22.125	7.59235E-001	3.09614E-004	0.00000E+000	7.60004E-001	7.58947E-001	8	...........
	885	22.15	7.49235E-001	2.70498E-004	0.00000E+000	7.50005E-001	7.48943E-001	8	...........
	886	22.175	7.39235E-001	2.34755E-004	0.00000E+000	7.40007E-001	7.38940E-001	8	...........
	887	22.2	7.29235E-001	2.02601E-004	0.00000E+000	7.30008E-001	7.28936E-001	8	...........
	888	22.225	7.19235E-001	1.72968E-004	0.00000E+000	7.20009E-001	7.19132E-001	8	...........
	889	22.25	7.09235E-001	1.45322E-004	0.00000E+000	7.10010E-001	7.08928E-001	8	...........
	890	22.275	6.99235E-001	1.19812E-004	0.00000E+000	7.00012E-001	6.98925E-001	8	...........
	891	22.3	6.89035E-001	9.57553E-005	0.00000E+000	6.90013E-001	6.88921E-001	8	...........
	892	22.325	6.79235E-001	7.39187E-005	0.00000E+000	6.80014E-001	6.79318E-001	8	...........
	893	22.35	6.69435E-001	5.29335E-005	0.00000E+000	6.70015E-001	6.69114E-001	8	...........
	894	22.375	6.59235E-001	3.34508E-005	0.00000E+000	6.60017E-001	6.59110E-001	8	...........
	895	22.4	6.49435E-001	1.51798E-005	0.00000E+000	6.50018E-001	6.49106E-001	7	...........
	896	22.425	6.39435E-001	-1.99808E-006	0.00000E+000	6.40019E-001	6.39103E-001	7	...........
	897	22.45	6.29235E-001	-1.82306E-005	0.00000E+000	6.30020E-001	6.29299E-001	7	...........
	898	22.475	6.19235E-001	-3.37299E-005	0.00000E+000	6.20022E-001	6.19095E-001	7	...........
	899	22.5	6.09235E-001	-4.81219E-005	0.00000E+000	6.10023E-001	6.09092E-001	7	.....h.....
	900	22.525	5.99235E-001	-6.19760E-005	0.00000E+000	6.00024E-001	5.99088E-001	8	...........
	901	22.55	5.89435E-001	-7.52316E-005	0.00000E+000	5.89975E-001	5.89284E-001	8	...........
	902	22.575	5.79235E-001	-8.75355E-005	0.00000E+000	5.79977E-001	5.79080E-001	8	...........
	903	22.6	5.69235E-001	-9.92719E-005	0.00000E+000	5.69978E-001	5.69077E-001	8	...........
	904	22.625	5.59435E-001	-1.10441E-004	0.00000E+000	5.59979E-001	5.59073E-001	8	...........
	905	22.65	5.49435E-001	-1.21192E-004	0.00000E+000	5.49981E-001	5.49069E-001	8	...........
	906	22.675	5.39435E-001	-1.31443E-004	0.00000E+000	5.39982E-001	5.39266E-001	8	...........
	907	22.7	5.29235E-001	-1.41493E-004	0.00000E+000	5.29983E-001	5.29262E-001	8	...........
	908	22.725	5.19435E-001	-1.50825E-004	0.00000E+000	5.19984E-001	5.19258E-001	8	...........
	909	22.75	5.09435E-001	-1.59556E-004	0.00000E+000	5.09986E-001	5.09055E-001	8	...........
	910	22.775	4.99435E-001	-1.67920E-004	0.00000E+000	4.99987E-001	4.99051E-001	8	...........
	911	22.8	4.89635E-001	-1.76585E-004	0.00000E+000	4.89988E-001	4.89047E-001	8	...........
	912	22.825	4.79435E-001	-1.84248E-004	0.00000E+000	4.79989E-001	4.79244E-001	8	...........
	913	22.85	4.69235E-001	-1.92495E-004	0.00000E+000	4.69991E-001	4.69240E-001	8	...........
	914	22.875	4.59435E-001	-1.99490E-004	0.00000E+000	4.59992E-001	4.59236E-001	8	...........
	915	22.9	4.49435E-001	-2.06435E-004	0.00000E+000	4.49993E-001	4.49232E-001	8	...........
	916	22.925	4.39435E-001	-2.13146E-004	0.00000E+000	4.39994E-001	4.39229E-001	8	...........
	917	22.95	4.29435E-001	-2.19757E-004	0.00000E+000	4.29996E-001	4.29225E-001	8	...........
	918	22.975	4.19235E-001	-2.26168E-004	0.00000E+000	4.19997E-001	4.19221E-001	8	...........
	919	23	4.09435E-001	-2.32429E-004	0.00000E+000	4.09998E-001	4.09418E-001	8	...........
	920	23.025	3.99435E-001	-2.38288E-004	0.00000E+000	3.99999E-001	3.99214E-001	8	...........
	921	23.05	3.89435E-001	-2.44432E-004	0.00000E+000	3.90001E-001	3.89210E-001	8	...........
	922	23.075	3.79635E-001	-2.49958E-004	0.00000E+000	3.80002E-001	3.79207E-001	8	...........
	923	23.1	3.69435E-001	-2.55668E-004	0.00000E+000	3.70003E-001	3.69203E-001	8	...........
	924	23.125	3.59635E-001	-2.61077E-004	0.00000E+000	3.60005E-001	3.59399E-001	8	...........
	925	23.15	3.49435E-001	-2.66235E-004	0.00000E+000	3.50006E-001	3.49195E-001	8	...........
	926	23.175	3.39435E-001	-2.71661E-004	0.00000E+000	3.40007E-001	3.39192E-001	8	...........
	927	23.2	3.29635E-001	-2.75968E-004	0.00000E+000	3.30008E-001	3.29388E-001	8	...........
	928	23.225	3.19435E-001	-2.81127E-004	0.00000E+000	3.20010E-001	3.19384E-001	8	...........
	929	23.25	3.09635E-001	-2.86519E-004	0.00000E+000	3.10011E-001	3.09581E-001	8	...........
	930	23.275	2.99435E-001	-2.90960E-004	0.00000E+000	3.00012E-001	2.99377E-001	8	...........
	931	23.3	2.89435E-001	-2.95384E-004	0.00000E+000	2.90013E-001	2.89373E-001	8	...........
	932	23.325	2.79435E-001	-3.00309E-004	0.00000E+000	2.80015E-001	2.79370E-001	8	...........
	933	23.35	2.69635E-001	-3.04950E-004	0.00000E+000	2.70016E-001	2.69366E-001	8	...........
	934	23.375	2.59435E-001	-3.09091E-004	0.00000E+000	2.60017E-001	2.59362E-001	8	...........
	935	23.4	2.49635E-001	-3.13782E-004	0.00000E+000	2.50018E-001	2.49359E-001	8	...........
	936	23.425	2.39435E-001	-3.18005E-004	0.00000E+000	2.40020E-001	2.39355E-001	8	...........
	937	23.45	2.29635E-001	-3.22329E-004	0.00000E+000	2.30021E-001	2.29151E-001	8	...........
	938	23.475	2.19635E-001	-3.26286E-004	0.00000E+000	2.20022E-001	2.19347E-001	8	...........
	939	23.5	2.09435E-001	-3.31294E-004	0.00000E+000	2.10023E-001	2.09544E-001	8	...........
	940	23.525	1.99635E-001	-3.35101E-004	0.00000E+000	2.00025E-001	1.99140E-001	8	...........
	941	23.55	1.89435E-001	-3.38724E-004	0.00000E+000	1.90026E-001	1.89536E-001	8	...........
	942	23.575	1.79635E-001	-3.43181E-004	0.00000E+000	1.79977E-001	1.79533E-001	8	...........
	943	23.6	1.69635E-001	-3.47538E-004	0.00000E+000	1.69979E-001	1.69329E-001	8	...........
	944	23.625	1.59435E-001	-3.51428E-004	0.00000E+000	1.59980E-001	1.59525E-001	8	...........
	945	23.65	1.49635E-001	-3.55001E-004	0.00000E+000	1.49981E-001	1.49522E-001	8	...........
	946	23.675	1.39635E-001	-3.58707E-004	0.00000E+000	1.39982E-001	1.39318E-001	8	...........
	947	23.7	1.29635E-001	-3.62614E-004	0.00000E+000	1.29984E-001	1.29514E-001	8	...........
	948	23.725	1.19635E-001	-3.66771E-004	0.00000E+000	1.19985E-001	1.19511E-001	8	...........
	949	23.75	1.09435E-001	-3.71028E-004	0.00000E+000	1.09986E-001	1.09307E-001	8	...........
	950	23.775	9.96349E-002	-3.74550E-004	0.00000E+000	9.99874E-002	9.93031E-002	8	...........
	951	23.8	8.98349E-002	-3.78858E-004	0.00000E+000	8.99886E-002	8.94995E-002	8	...........
	952	23.825	7.96349E-002	-3.82213E-004	0.00000E+000	7.99899E-002	7.94958E-002	8	...........
	953	23.85	6.96349E-002	-3.86404E-004	0.00000E+000	6.99912E-002	6.94921E-002	8	...........
	954	23.875	5.98349E-002	-3.90010E-004	0.00000E+000	5.99924E-002	5.96885E-002	8	...........
	955	23.9	4.96349E-002	-3.93532E-004	0.00000E+000	4.99937E-002	4.94847E-002	8	...........
	956	23.925	3.98349E-002	-3.96721E-004	0.00000E+000	3.99949E-002	3.96811E-002	8	...........
	957	23.95	2.96349E-002	-4.00210E-004	0.00000E+000	2.99962E-002	2.94773E-002	8	...........
	958	23.975	1.96349E-002	-4.04501E-004	0.00000E+000	1.99975E-002	1.94736E-002	8	...........
	959	24	9.63488E-003	-4.07756E-004	0.00000E+000	9.99874E-003	9.66997E-003	8	...........
	960	24.025	-3.65120E-004	-4.11629E-004	0.00000E+000	0.00000E+000	-3.33723E-004	8	...........
