EXPLAIN
TAG	CV
TITLE	LABEL	Cyclic Voltammetry	Test Identifier
DATE	LABEL	22-6-2017	Date
TIME	LABEL	16:27:11	Time
NOTES	NOTES	1	Notes...
	0.6mg

PSTAT	PSTAT	IFC5000-01520	Potentiostat
VINIT	POTEN	0.00000E+000	F	Initial E (V)
VLIMIT1	POTEN	-8.00000E-001	F	Scan Limit 1 (V)
VLIMIT2	POTEN	8.00000E-001	F	Scan Limit 2 (V)
VFINAL	POTEN	0.00000E+000	F	Final E (V)
SCANRATE	QUANT	3.99999E+002	A Real Number
STEPSIZE	QUANT	1.00000E+001	Step Size (mV)
CYCLES	IQUANT	3	Cycles (#)
IMODE	SELECTOR	0	I/E Range Mode
IRANGE	QUANT	2.50000E+002	Max Current (mA)
AREA	QUANT	3.84845E-001	A Real Number
EQDELAY	QUANT	1.00000E+000	Equil. Time (s)
IRCOMP	SELECTOR	0	IRComp
PFCOR	QUANT	2.50000E+002	PF Corr. (ohm)
SAMPLINGMODE	SELECTOR	0	Sampling Mode
EOC	QUANT	0	Open Circuit (V)
SEQUENCER	TOGGLE	TRUE	Run as Sequence
PSTATMODEL	IQUANT	53	Pstat Model
PSTATSECTION	LABEL	IFC5000-01520	Pstat Section
PSTATSERIALNO	LABEL	01520	Pstat Serial Number
CTRLMODE	IQUANT	1	Control Mode
ELECTROMETER	IQUANT	0	RE=0 or CS=1
IESTAB	IQUANT	2	I/E Stability
CASPEED	IQUANT	4	Control Amp Speed
CONVENTION	IQUANT	1	Current Convention
ICHRANGE	IQUANT	2	Ich Range
ICHRANGEMODE	TOGGLE	F	Ich Auto Range
ICHOFFSETENABLE	TOGGLE	F	Ich Offset Enable
ICHOFFSET	QUANT	0	Ich Offset (V)
ICHFILTER	IQUANT	3	Ich Filter
VCHRANGE	IQUANT	2	Vch Range
VCHRANGEMODE	TOGGLE	F	Vch Auto Range
VCHOFFSETENABLE	TOGGLE	F	Vch Offset Enable
VCHOFFSET	QUANT	0	Vch Offset (V)
VCHFILTER	IQUANT	3	Vch Filter
IERANGELOWERLIMIT	IQUANT	7	I/E Range Lower Limit
IERANGEMODE	TOGGLE	T	I/E AutoRange
IERANGE	IQUANT	11	I/E Range
ACHSELECT	IQUANT	1	Ach Select
ACHRANGE	IQUANT	2	Ach Range
ACHOFFSETENABLE	TOGGLE	F	Ach Offset Enable
ACHOFFSET	QUANT	0	Ach Offset (V)
ACHFILTER	IQUANT	1	Ach Filter
CABLEID	IQUANT	14	Cable ID
DCCALDATE	LABEL	20-10-2016	DC Calibration Date
ACCALDATE	LABEL	12/3/2015	AC Calibration Date
FRAMEWORKVERSION	QUANT	7.01	Framework Version
INSTRUMENTVERSION	LABEL	4.00	Instrument Version
CURVE1	TABLE
	Pt	T	Vf	Im	Vu	Sig	Ach	IERange	Over
	#	s	V vs. Ref.	A	V	V	V	#	bits
	0	0.025	-3.32160E-004	-1.38372E-003	0.00000E+000	0.00000E+000	-6.55718E+000	11	..........a
	1	0.05	-1.05322E-002	-1.51876E-003	0.00000E+000	-9.99874E-003	-6.55718E+000	10	..........a
	2	0.075	-2.03322E-002	-1.65669E-003	0.00000E+000	-1.99975E-002	-6.55718E+000	9	..........a
	3	0.1	-3.03322E-002	-1.79222E-003	0.00000E+000	-2.99962E-002	-6.55718E+000	9	..........a
	4	0.125	-4.05322E-002	-1.92391E-003	0.00000E+000	-3.99949E-002	-6.55718E+000	9	..........a
	5	0.15	-5.05322E-002	-2.05227E-003	0.00000E+000	-4.99937E-002	-6.55718E+000	9	..........a
	6	0.175	-6.05322E-002	-2.17830E-003	0.00000E+000	-5.99924E-002	-6.55718E+000	9	..........a
	7	0.2	-7.05322E-002	-2.30116E-003	0.00000E+000	-6.99912E-002	-6.55718E+000	9	..........a
	8	0.225	-8.03321E-002	-2.42202E-003	0.00000E+000	-7.99899E-002	-6.55718E+000	9	..........a
	9	0.25	-9.05321E-002	-2.54104E-003	0.00000E+000	-8.99886E-002	-6.55718E+000	9	..........a
	10	0.275	-1.00532E-001	-2.65756E-003	0.00000E+000	-9.99874E-002	-6.55718E+000	9	..........a
	11	0.3	-1.10132E-001	-2.77109E-003	0.00000E+000	-1.09986E-001	-6.55718E+000	9	..........a
	12	0.325	-1.20532E-001	-2.88345E-003	0.00000E+000	-1.19985E-001	-6.55718E+000	9	..........a
	13	0.35	-1.30332E-001	-2.99314E-003	0.00000E+000	-1.29984E-001	-6.55718E+000	9	..........a
	14	0.375	-1.40332E-001	-3.10266E-003	0.00000E+000	-1.39982E-001	-6.55718E+000	9	..........a
	15	0.4	-1.50332E-001	-3.20901E-003	0.00000E+000	-1.49981E-001	-6.55718E+000	9	..........a
	16	0.425	-1.60532E-001	-3.31420E-003	0.00000E+000	-1.59980E-001	-6.55718E+000	9	..........a
	17	0.45	-1.70332E-001	-3.41572E-003	0.00000E+000	-1.69979E-001	-6.55718E+000	9	..........a
	18	0.475	-1.80132E-001	-3.51791E-003	0.00000E+000	-1.79977E-001	-6.55718E+000	9	..........a
	19	0.5	-1.90332E-001	-3.61660E-003	0.00000E+000	-1.89976E-001	-6.55718E+000	9	..........a
	20	0.525	-2.00332E-001	-3.71629E-003	0.00000E+000	-1.99975E-001	-6.55718E+000	9	..........a
	21	0.55	-2.10332E-001	-3.81214E-003	0.00000E+000	-2.10023E-001	-6.55718E+000	9	..........a
	22	0.575	-2.20532E-001	-3.90849E-003	0.00000E+000	-2.20022E-001	-6.55718E+000	9	..........a
	23	0.6	-2.30332E-001	-4.00251E-003	0.00000E+000	-2.30021E-001	-6.55718E+000	9	..........a
	24	0.625	-2.40332E-001	-4.09253E-003	0.00000E+000	-2.40020E-001	-6.55718E+000	9	..........a
	25	0.65	-2.50332E-001	-4.18339E-003	0.00000E+000	-2.50018E-001	-6.55718E+000	9	..........a
	26	0.675	-2.60332E-001	-4.27307E-003	0.00000E+000	-2.60017E-001	-6.55718E+000	9	..........a
	27	0.7	-2.70332E-001	-4.36142E-003	0.00000E+000	-2.70016E-001	-6.55718E+000	9	..........a
	28	0.725	-2.80332E-001	-4.44894E-003	0.00000E+000	-2.80015E-001	-6.55718E+000	9	..........a
	29	0.75	-2.90332E-001	-4.53444E-003	0.00000E+000	-2.90013E-001	-6.55718E+000	10	..........a
	30	0.775	-3.00332E-001	-4.61789E-003	0.00000E+000	-3.00012E-001	-6.55718E+000	10	..........a
	31	0.8	-3.10332E-001	-4.70133E-003	0.00000E+000	-3.10011E-001	-6.55718E+000	10	..........a
	32	0.825	-3.20332E-001	-4.78478E-003	0.00000E+000	-3.20010E-001	-6.55718E+000	10	..........a
	33	0.85	-3.30332E-001	-4.86155E-003	0.00000E+000	-3.30008E-001	-6.55718E+000	10	..........a
	34	0.875	-3.40332E-001	-4.94332E-003	0.00000E+000	-3.40007E-001	-6.55718E+000	10	..........a
	35	0.9	-3.50132E-001	-5.02009E-003	0.00000E+000	-3.50006E-001	-6.55718E+000	10	..........a
	36	0.925	-3.60332E-001	-5.09686E-003	0.00000E+000	-3.60005E-001	-6.55718E+000	10	..........a
	37	0.95	-3.70132E-001	-5.17196E-003	0.00000E+000	-3.70003E-001	-6.55718E+000	10	..........a
	38	0.975	-3.80132E-001	-5.24706E-003	0.00000E+000	-3.80002E-001	-6.55718E+000	10	..........a
	39	1	-3.90132E-001	-5.32216E-003	0.00000E+000	-3.90001E-001	-6.55718E+000	10	..........a
	40	1.025	-4.00132E-001	-5.39225E-003	0.00000E+000	-3.99999E-001	-6.55718E+000	10	..........a
	41	1.05	-4.10132E-001	-5.46402E-003	0.00000E+000	-4.09998E-001	-6.55718E+000	10	..........a
	42	1.075	-4.20332E-001	-5.53411E-003	0.00000E+000	-4.19997E-001	-6.55718E+000	10	..........a
	43	1.1	-4.30132E-001	-5.60420E-003	0.00000E+000	-4.29996E-001	-6.55718E+000	10	..........a
	44	1.125	-4.40132E-001	-5.67096E-003	0.00000E+000	-4.39994E-001	-6.55718E+000	10	..........a
	45	1.15	-4.50332E-001	-5.73771E-003	0.00000E+000	-4.49993E-001	-6.55718E+000	10	..........a
	46	1.175	-4.60132E-001	-5.80447E-003	0.00000E+000	-4.59992E-001	-6.55718E+000	10	..........a
	47	1.2	-4.70132E-001	-5.86789E-003	0.00000E+000	-4.69991E-001	-6.55718E+000	10	..........a
	48	1.225	-4.80132E-001	-5.93464E-003	0.00000E+000	-4.79989E-001	-6.55718E+000	10	..........a
	49	1.25	-4.90132E-001	-5.99639E-003	0.00000E+000	-4.89988E-001	-6.55718E+000	10	..........a
	50	1.275	-5.00132E-001	-6.05647E-003	0.00000E+000	-4.99987E-001	-6.55718E+000	10	..........a
	51	1.3	-5.10132E-001	-6.11822E-003	0.00000E+000	-5.09986E-001	-6.55718E+000	10	..........a
	52	1.325	-5.20132E-001	-6.17830E-003	0.00000E+000	-5.19984E-001	-6.55718E+000	10	..........a
	53	1.35	-5.30132E-001	-6.23338E-003	0.00000E+000	-5.29983E-001	-6.55718E+000	10	..........a
	54	1.375	-5.39932E-001	-6.29179E-003	0.00000E+000	-5.39982E-001	-6.55718E+000	10	..........a
	55	1.4	-5.50132E-001	-6.34853E-003	0.00000E+000	-5.49981E-001	-6.55718E+000	10	..........a
	56	1.425	-5.59932E-001	-6.40026E-003	0.00000E+000	-5.59979E-001	-6.55718E+000	10	..........a
	57	1.45	-5.70132E-001	-6.45367E-003	0.00000E+000	-5.69978E-001	-6.55718E+000	10	..........a
	58	1.475	-5.80132E-001	-6.50540E-003	0.00000E+000	-5.79977E-001	-6.55718E+000	10	..........a
	59	1.5	-5.89932E-001	-6.55714E-003	0.00000E+000	-5.89975E-001	-6.55718E+000	10	..........a
	60	1.525	-6.00132E-001	-6.60721E-003	0.00000E+000	-5.99974E-001	-6.55718E+000	10	..........a
	61	1.55	-6.09932E-001	-6.65727E-003	0.00000E+000	-6.10023E-001	-6.55718E+000	10	..........a
	62	1.575	-6.19932E-001	-6.70567E-003	0.00000E+000	-6.20022E-001	-6.55718E+000	10	..........a
	63	1.6	-6.30132E-001	-6.75073E-003	0.00000E+000	-6.30020E-001	-6.55718E+000	10	..........a
	64	1.625	-6.40132E-001	-6.79579E-003	0.00000E+000	-6.40019E-001	-6.55718E+000	10	..........a
	65	1.65	-6.49932E-001	-6.83751E-003	0.00000E+000	-6.50018E-001	-6.55718E+000	10	..........a
	66	1.675	-6.59932E-001	-6.87757E-003	0.00000E+000	-6.60017E-001	-6.55718E+000	10	..........a
	67	1.7	-6.70132E-001	-6.91595E-003	0.00000E+000	-6.70015E-001	-6.55718E+000	10	..........a
	68	1.725	-6.80132E-001	-6.95434E-003	0.00000E+000	-6.80014E-001	-6.55718E+000	10	..........a
	69	1.75	-6.89932E-001	-6.99439E-003	0.00000E+000	-6.90013E-001	-6.55718E+000	10	..........a
	70	1.775	-7.00132E-001	-7.02777E-003	0.00000E+000	-7.00012E-001	-6.55718E+000	10	..........a
	71	1.8	-7.09932E-001	-7.06615E-003	0.00000E+000	-7.10010E-001	-6.55718E+000	10	..........a
	72	1.825	-7.20132E-001	-7.09953E-003	0.00000E+000	-7.20009E-001	-6.55718E+000	10	..........a
	73	1.85	-7.29732E-001	-7.12957E-003	0.00000E+000	-7.30008E-001	-6.55718E+000	10	..........a
	74	1.875	-7.40132E-001	-7.16128E-003	0.00000E+000	-7.40007E-001	-6.55718E+000	10	..........a
	75	1.9	-7.50132E-001	-7.19132E-003	0.00000E+000	-7.50005E-001	-6.55718E+000	10	..........a
	76	1.925	-7.59932E-001	-7.22136E-003	0.00000E+000	-7.60004E-001	-6.55718E+000	10	..........a
	77	1.95	-7.70132E-001	-7.24639E-003	0.00000E+000	-7.70003E-001	-6.55718E+000	10	..........a
	78	1.975	-7.79932E-001	-7.27476E-003	0.00000E+000	-7.80001E-001	-6.55718E+000	10	..........a
	79	2	-7.89932E-001	-7.29980E-003	0.00000E+000	-7.90000E-001	-6.55718E+000	10	..........a
	80	2.025	-7.99932E-001	-7.32650E-003	0.00000E+000	-7.99999E-001	-6.55718E+000	10	..........a
	81	2.05	-7.89932E-001	-6.73404E-003	0.00000E+000	-7.90000E-001	-6.55718E+000	10	..........a
	82	2.075	-7.79932E-001	-6.19833E-003	0.00000E+000	-7.80001E-001	-6.55718E+000	10	..........a
	83	2.1	-7.69932E-001	-5.70934E-003	0.00000E+000	-7.70003E-001	-6.55718E+000	10	..........a
	84	2.125	-7.59932E-001	-5.25373E-003	0.00000E+000	-7.60004E-001	-6.55718E+000	10	..........a
	85	2.15	-7.50132E-001	-4.83151E-003	0.00000E+000	-7.50005E-001	-6.55718E+000	10	..........a
	86	2.175	-7.39932E-001	-4.43598E-003	0.00000E+000	-7.40007E-001	-6.55718E+000	10	..........a
	87	2.2	-7.29932E-001	-4.06382E-003	0.00000E+000	-7.30008E-001	-6.55718E+000	10	..........a
	88	2.225	-7.20132E-001	-3.71345E-003	0.00000E+000	-7.20009E-001	-6.55718E+000	9	..........a
	89	2.25	-7.09932E-001	-3.38405E-003	0.00000E+000	-7.10010E-001	-6.55718E+000	9	..........a
	90	2.275	-6.99932E-001	-3.07215E-003	0.00000E+000	-7.00012E-001	-6.55718E+000	9	..........a
	91	2.3	-6.89932E-001	-2.77642E-003	0.00000E+000	-6.90013E-001	-6.55718E+000	9	..........a
	92	2.325	-6.80132E-001	-2.49503E-003	0.00000E+000	-6.80014E-001	-6.55718E+000	9	..........a
	93	2.35	-6.70132E-001	-2.22897E-003	0.00000E+000	-6.70015E-001	-6.55718E+000	9	..........a
	94	2.375	-6.60132E-001	-1.97425E-003	0.00000E+000	-6.60017E-001	-6.55718E+000	9	..........a
	95	2.4	-6.50132E-001	-1.73104E-003	0.00000E+000	-6.50018E-001	-6.55718E+000	9	..........a
	96	2.425	-6.40132E-001	-1.49832E-003	0.00000E+000	-6.40019E-001	-6.55718E+000	9	..........a
	97	2.45	-6.29932E-001	-1.27544E-003	0.00000E+000	-6.30020E-001	-6.55718E+000	9	..........a
	98	2.475	-6.19932E-001	-1.06190E-003	0.00000E+000	-6.20022E-001	-6.55718E+000	9	..........a
	99	2.5	-6.10132E-001	-8.56686E-004	0.00000E+000	-6.10023E-001	-6.55718E+000	9	..........a
	100	2.525	-5.99932E-001	-6.57478E-004	0.00000E+000	-5.99974E-001	-6.55718E+000	9	..........a
	101	2.55	-5.90132E-001	-4.67105E-004	0.00000E+000	-5.89975E-001	-6.55718E+000	9	..........a
	102	2.575	-5.79932E-001	-2.83566E-004	0.00000E+000	-5.79977E-001	-6.55718E+000	9	..........a
	103	2.6	-5.69932E-001	-1.06663E-004	0.00000E+000	-5.69978E-001	-6.55718E+000	8	..........a
	104	2.625	-5.60132E-001	6.40401E-005	0.00000E+000	-5.59979E-001	-6.55718E+000	8	..........a
	105	2.65	-5.49932E-001	2.30302E-004	0.00000E+000	-5.49981E-001	-6.55718E+000	8	..........a
	106	2.675	-5.40132E-001	3.90187E-004	0.00000E+000	-5.39982E-001	-6.55718E+000	8	..........a
	107	2.7	-5.30132E-001	5.45231E-004	0.00000E+000	-5.29983E-001	-6.55718E+000	8	....ih....a
	108	2.725	-5.20132E-001	6.97140E-004	0.00000E+000	-5.19984E-001	-6.55718E+000	9	..........a
	109	2.75	-5.10332E-001	8.42171E-004	0.00000E+000	-5.09986E-001	-6.55718E+000	9	..........a
	110	2.775	-5.00132E-001	9.83867E-004	0.00000E+000	-4.99987E-001	-6.55718E+000	9	..........a
	111	2.8	-4.90132E-001	1.12123E-003	0.00000E+000	-4.89988E-001	-6.55718E+000	9	..........a
	112	2.825	-4.80132E-001	1.25409E-003	0.00000E+000	-4.79989E-001	-6.55718E+000	9	..........a
	113	2.85	-4.70332E-001	1.38328E-003	0.00000E+000	-4.69991E-001	-6.55718E+000	9	..........a
	114	2.875	-4.59932E-001	1.50881E-003	0.00000E+000	-4.59992E-001	-6.55718E+000	9	..........a
	115	2.9	-4.49932E-001	1.63134E-003	0.00000E+000	-4.49993E-001	-6.55718E+000	9	..........a
	116	2.925	-4.40132E-001	1.74869E-003	0.00000E+000	-4.39994E-001	-6.55718E+000	9	..........a
	117	2.95	-4.29932E-001	1.86455E-003	0.00000E+000	-4.29996E-001	-6.55718E+000	9	..........a
	118	2.975	-4.20132E-001	1.97558E-003	0.00000E+000	-4.19997E-001	-6.55718E+000	9	..........a
	119	3	-4.10132E-001	2.08560E-003	0.00000E+000	-4.09998E-001	-6.55718E+000	9	..........a
	120	3.025	-4.00332E-001	2.19162E-003	0.00000E+000	-3.99999E-001	-6.55718E+000	9	..........a
	121	3.05	-3.89932E-001	2.29431E-003	0.00000E+000	-3.90001E-001	-6.55718E+000	9	..........a
	122	3.075	-3.79932E-001	2.39533E-003	0.00000E+000	-3.80002E-001	-6.55718E+000	9	..........a
	123	3.1	-3.70332E-001	2.49268E-003	0.00000E+000	-3.70003E-001	-6.55718E+000	9	..........a
	124	3.125	-3.60332E-001	2.58770E-003	0.00000E+000	-3.60005E-001	-6.55718E+000	9	..........a
	125	3.15	-3.50332E-001	2.68139E-003	0.00000E+000	-3.50006E-001	-6.55718E+000	9	..........a
	126	3.175	-3.40332E-001	2.77191E-003	0.00000E+000	-3.40007E-001	-6.55718E+000	9	..........a
	127	3.2	-3.30132E-001	2.85909E-003	0.00000E+000	-3.30008E-001	-6.55718E+000	9	..........a
	128	3.225	-3.20132E-001	2.94645E-003	0.00000E+000	-3.20010E-001	-6.55718E+000	9	..........a
	129	3.25	-3.10332E-001	3.03113E-003	0.00000E+000	-3.10011E-001	-6.55718E+000	9	..........a
	130	3.275	-3.00332E-001	3.11248E-003	0.00000E+000	-3.00012E-001	-6.55718E+000	9	..........a
	131	3.3	-2.90332E-001	3.19283E-003	0.00000E+000	-2.90013E-001	-6.55718E+000	9	..........a
	132	3.325	-2.80332E-001	3.27035E-003	0.00000E+000	-2.80015E-001	-6.55718E+000	9	..........a
	133	3.35	-2.70532E-001	3.34703E-003	0.00000E+000	-2.70016E-001	-6.55718E+000	9	..........a
	134	3.375	-2.60332E-001	3.42171E-003	0.00000E+000	-2.60017E-001	-6.55718E+000	9	..........a
	135	3.4	-2.50332E-001	3.49489E-003	0.00000E+000	-2.50018E-001	-6.55718E+000	9	..........a
	136	3.425	-2.40332E-001	3.56724E-003	0.00000E+000	-2.40020E-001	-6.55718E+000	9	..........a
	137	3.45	-2.30332E-001	3.63759E-003	0.00000E+000	-2.30021E-001	-6.55718E+000	9	..........a
	138	3.475	-2.20532E-001	3.70577E-003	0.00000E+000	-2.20022E-001	-6.55718E+000	9	..........a
	139	3.5	-2.10332E-001	3.77445E-003	0.00000E+000	-2.10023E-001	-6.55718E+000	9	..........a
	140	3.525	-2.00332E-001	3.84113E-003	0.00000E+000	-1.99975E-001	-6.55718E+000	9	..........a
	141	3.55	-1.90132E-001	3.90698E-003	0.00000E+000	-1.89976E-001	-6.55718E+000	9	..........a
	142	3.575	-1.80132E-001	3.96983E-003	0.00000E+000	-1.79977E-001	-6.55718E+000	9	..........a
	143	3.6	-1.70332E-001	4.03251E-003	0.00000E+000	-1.69979E-001	-6.55718E+000	9	..........a
	144	3.625	-1.60332E-001	4.09385E-003	0.00000E+000	-1.59980E-001	-6.55718E+000	9	..........a
	145	3.65	-1.50332E-001	4.15553E-003	0.00000E+000	-1.49981E-001	-6.55718E+000	9	..........a
	146	3.675	-1.40532E-001	4.21405E-003	0.00000E+000	-1.39982E-001	-6.55718E+000	9	..........a
	147	3.7	-1.30332E-001	4.27372E-003	0.00000E+000	-1.29984E-001	-6.55718E+000	9	..........a
	148	3.725	-1.20532E-001	4.33107E-003	0.00000E+000	-1.19985E-001	-6.55718E+000	9	..........a
	149	3.75	-1.10532E-001	4.38958E-003	0.00000E+000	-1.09986E-001	-6.55718E+000	9	..........a
	150	3.775	-1.00332E-001	4.44509E-003	0.00000E+000	-9.99874E-002	-6.55718E+000	9	..........a
	151	3.8	-9.05321E-002	4.49593E-003	0.00000E+000	-8.99886E-002	-6.55718E+000	10	..........a
	152	3.825	-8.03321E-002	4.54934E-003	0.00000E+000	-7.99899E-002	-6.55718E+000	10	..........a
	153	3.85	-7.05322E-002	4.60274E-003	0.00000E+000	-6.99912E-002	-6.55718E+000	10	..........a
	154	3.875	-6.03322E-002	4.65614E-003	0.00000E+000	-5.99924E-002	-6.55718E+000	10	..........a
	155	3.9	-5.05322E-002	4.70621E-003	0.00000E+000	-4.99937E-002	-6.55718E+000	10	..........a
	156	3.925	-4.03322E-002	4.75962E-003	0.00000E+000	-3.99949E-002	-6.55718E+000	10	..........a
	157	3.95	-3.05322E-002	4.80968E-003	0.00000E+000	-2.99962E-002	-6.55718E+000	10	..........a
	158	3.975	-2.05322E-002	4.85808E-003	0.00000E+000	-1.99975E-002	-6.55718E+000	10	..........a
	159	4	-1.05322E-002	4.90648E-003	0.00000E+000	-9.99874E-003	-6.55718E+000	10	..........a
	160	4.025	-5.32160E-004	4.95821E-003	0.00000E+000	0.00000E+000	-6.55718E+000	10	..........a
	161	4.05	9.46784E-003	5.00327E-003	0.00000E+000	9.99874E-003	-6.55718E+000	10	..........a
	162	4.075	1.96678E-002	5.05167E-003	0.00000E+000	1.99975E-002	-6.55718E+000	10	..........a
	163	4.1	2.94678E-002	5.09840E-003	0.00000E+000	2.99962E-002	-6.55718E+000	10	..........a
	164	4.125	3.94678E-002	5.14513E-003	0.00000E+000	3.99949E-002	-6.55718E+000	10	..........a
	165	4.15	4.96678E-002	5.18685E-003	0.00000E+000	4.99937E-002	-6.55718E+000	10	..........a
	166	4.175	5.96678E-002	5.23358E-003	0.00000E+000	5.99924E-002	-6.55718E+000	10	..........a
	167	4.2	6.94678E-002	5.27697E-003	0.00000E+000	6.99912E-002	-6.55718E+000	10	..........a
	168	4.225	7.94678E-002	5.31703E-003	0.00000E+000	7.99899E-002	-6.55718E+000	10	..........a
	169	4.25	8.94678E-002	5.35875E-003	0.00000E+000	8.99886E-002	-6.55718E+000	10	..........a
	170	4.275	9.94678E-002	5.40214E-003	0.00000E+000	9.99874E-002	-6.55718E+000	10	..........a
	171	4.3	1.09468E-001	5.44386E-003	0.00000E+000	1.09986E-001	-6.55718E+000	10	..........a
	172	4.325	1.19668E-001	5.48225E-003	0.00000E+000	1.19985E-001	-6.55718E+000	10	..........a
	173	4.35	1.29468E-001	5.52230E-003	0.00000E+000	1.29984E-001	-6.55718E+000	10	..........a
	174	4.375	1.39468E-001	5.56068E-003	0.00000E+000	1.39982E-001	-6.55718E+000	10	..........a
	175	4.4	1.49268E-001	5.59907E-003	0.00000E+000	1.49981E-001	-6.55718E+000	10	..........a
	176	4.425	1.59468E-001	5.63578E-003	0.00000E+000	1.59980E-001	-6.55718E+000	10	..........a
	177	4.45	1.69468E-001	5.67083E-003	0.00000E+000	1.69979E-001	-6.55718E+000	10	..........a
	178	4.475	1.79468E-001	5.70922E-003	0.00000E+000	1.79977E-001	-6.55718E+000	10	..........a
	179	4.5	1.89468E-001	5.74259E-003	0.00000E+000	1.89976E-001	-6.55718E+000	10	..........a
	180	4.525	1.99268E-001	5.77764E-003	0.00000E+000	1.99975E-001	-6.55718E+000	10	..........a
	181	4.55	2.09468E-001	5.81102E-003	0.00000E+000	2.10023E-001	-6.55718E+000	10	..........a
	182	4.575	2.19468E-001	5.84440E-003	0.00000E+000	2.20022E-001	-6.55718E+000	10	..........a
	183	4.6	2.29468E-001	5.87444E-003	0.00000E+000	2.30021E-001	-6.55718E+000	10	..........a
	184	4.625	2.39468E-001	5.90614E-003	0.00000E+000	2.40020E-001	-6.55718E+000	10	..........a
	185	4.65	2.49468E-001	5.93618E-003	0.00000E+000	2.50018E-001	-6.55718E+000	10	..........a
	186	4.675	2.59468E-001	5.96456E-003	0.00000E+000	2.60017E-001	-6.55718E+000	10	..........a
	187	4.7	2.69468E-001	5.99793E-003	0.00000E+000	2.70016E-001	-6.55718E+000	10	..........a
	188	4.725	2.79468E-001	6.02464E-003	0.00000E+000	2.80015E-001	-6.55718E+000	10	..........a
	189	4.75	2.89468E-001	6.05134E-003	0.00000E+000	2.90013E-001	-6.55718E+000	10	..........a
	190	4.775	2.99268E-001	6.07804E-003	0.00000E+000	3.00012E-001	-6.55718E+000	10	..........a
	191	4.8	3.09468E-001	6.10307E-003	0.00000E+000	3.10011E-001	-6.55718E+000	10	..........a
	192	4.825	3.19468E-001	6.12978E-003	0.00000E+000	3.20010E-001	-6.55718E+000	10	..........a
	193	4.85	3.29268E-001	6.15314E-003	0.00000E+000	3.30008E-001	-6.55718E+000	10	..........a
	194	4.875	3.39268E-001	6.17817E-003	0.00000E+000	3.40007E-001	-6.55718E+000	10	..........a
	195	4.9	3.49268E-001	6.20321E-003	0.00000E+000	3.50006E-001	-6.55718E+000	10	..........a
	196	4.925	3.59268E-001	6.22490E-003	0.00000E+000	3.60005E-001	-6.55718E+000	10	..........a
	197	4.95	3.69468E-001	6.24827E-003	0.00000E+000	3.70003E-001	-6.55718E+000	10	..........a
	198	4.975	3.79268E-001	6.27163E-003	0.00000E+000	3.80002E-001	-6.55718E+000	10	..........a
	199	5	3.89268E-001	6.28999E-003	0.00000E+000	3.90001E-001	-6.55718E+000	10	..........a
	200	5.025	3.99268E-001	6.31502E-003	0.00000E+000	3.99999E-001	-6.55718E+000	10	..........a
	201	5.05	4.09268E-001	6.33505E-003	0.00000E+000	4.09998E-001	-6.55718E+000	10	..........a
	202	5.075	4.19068E-001	6.35508E-003	0.00000E+000	4.19997E-001	-6.55718E+000	10	..........a
	203	5.1	4.29268E-001	6.37177E-003	0.00000E+000	4.29996E-001	-6.55718E+000	10	..........a
	204	5.125	4.39068E-001	6.39346E-003	0.00000E+000	4.39994E-001	-6.55718E+000	10	..........a
	205	5.15	4.49268E-001	6.41182E-003	0.00000E+000	4.49993E-001	-6.55718E+000	10	..........a
	206	5.175	4.59068E-001	6.43018E-003	0.00000E+000	4.59992E-001	-6.55718E+000	10	..........a
	207	5.2	4.69268E-001	6.44687E-003	0.00000E+000	4.69991E-001	-6.55718E+000	10	..........a
	208	5.225	4.79268E-001	6.46189E-003	0.00000E+000	4.79989E-001	-6.55718E+000	10	..........a
	209	5.25	4.89068E-001	6.48024E-003	0.00000E+000	4.89988E-001	-6.55718E+000	10	..........a
	210	5.275	4.99268E-001	6.49359E-003	0.00000E+000	4.99987E-001	-6.55718E+000	10	..........a
	211	5.3	5.09268E-001	6.50695E-003	0.00000E+000	5.09986E-001	-6.55718E+000	10	..........a
	212	5.325	5.19068E-001	6.52197E-003	0.00000E+000	5.19984E-001	-6.55718E+000	10	..........a
	213	5.35	5.29268E-001	6.53365E-003	0.00000E+000	5.29983E-001	-6.55718E+000	10	..........a
	214	5.375	5.39268E-001	6.54700E-003	0.00000E+000	5.39982E-001	-6.55718E+000	10	..........a
	215	5.4	5.49268E-001	6.56202E-003	0.00000E+000	5.49981E-001	-6.55718E+000	10	..........a
	216	5.425	5.59268E-001	6.57203E-003	0.00000E+000	5.59979E-001	-6.55718E+000	10	..........a
	217	5.45	5.69268E-001	6.58205E-003	0.00000E+000	5.69978E-001	-6.55718E+000	10	..........a
	218	5.475	5.79068E-001	6.59373E-003	0.00000E+000	5.79977E-001	-6.55718E+000	10	..........a
	219	5.5	5.89268E-001	6.60207E-003	0.00000E+000	5.89975E-001	-6.55718E+000	10	..........a
	220	5.525	5.99068E-001	6.61375E-003	0.00000E+000	5.99974E-001	-6.55718E+000	10	..........a
	221	5.55	6.09068E-001	6.62377E-003	0.00000E+000	6.10023E-001	-6.55718E+000	10	..........a
	222	5.575	6.19068E-001	6.63044E-003	0.00000E+000	6.20022E-001	-6.55718E+000	10	..........a
	223	5.6	6.29268E-001	6.63712E-003	0.00000E+000	6.30020E-001	-6.55718E+000	10	..........a
	224	5.625	6.39068E-001	6.64046E-003	0.00000E+000	6.40019E-001	-6.55718E+000	10	..........a
	225	5.65	6.49068E-001	6.64880E-003	0.00000E+000	6.50018E-001	-6.55718E+000	10	..........a
	226	5.675	6.59068E-001	6.65214E-003	0.00000E+000	6.60017E-001	-6.55718E+000	10	..........a
	227	5.7	6.69068E-001	6.65548E-003	0.00000E+000	6.70015E-001	-6.55718E+000	10	..........a
	228	5.725	6.79268E-001	6.66048E-003	0.00000E+000	6.80014E-001	-6.55718E+000	10	..........a
	229	5.75	6.89068E-001	6.66382E-003	0.00000E+000	6.90013E-001	-6.55718E+000	10	..........a
	230	5.775	6.99068E-001	6.66883E-003	0.00000E+000	7.00012E-001	-6.55718E+000	10	..........a
	231	5.8	7.09068E-001	6.66883E-003	0.00000E+000	7.10010E-001	-6.55718E+000	10	..........a
	232	5.825	7.19268E-001	6.67217E-003	0.00000E+000	7.20009E-001	-6.55718E+000	10	..........a
	233	5.85	7.29068E-001	6.66883E-003	0.00000E+000	7.30008E-001	-6.55718E+000	10	..........a
	234	5.875	7.39268E-001	6.67050E-003	0.00000E+000	7.40007E-001	-6.55718E+000	10	..........a
	235	5.9	7.49068E-001	6.66883E-003	0.00000E+000	7.50005E-001	-6.55718E+000	10	..........a
	236	5.925	7.59068E-001	6.66883E-003	0.00000E+000	7.60004E-001	-6.55718E+000	10	..........a
	237	5.95	7.69068E-001	6.67050E-003	0.00000E+000	7.70003E-001	-6.55718E+000	10	..........a
	238	5.975	7.79068E-001	6.66883E-003	0.00000E+000	7.80001E-001	-6.55718E+000	10	..........a
	239	6	7.89068E-001	6.66716E-003	0.00000E+000	7.90000E-001	-6.55718E+000	10	..........a
	240	6.025	7.98868E-001	6.66549E-003	0.00000E+000	7.99999E-001	-6.55718E+000	10	..........a
CURVE2	TABLE
	Pt	T	Vf	Im	Vu	Sig	Ach	IERange	Over
	#	s	V vs. Ref.	A	V	V	V	#	bits
	241	6.05	7.89068E-001	6.11809E-003	0.00000E+000	7.90000E-001	-6.55718E+000	10	..........a
	242	6.075	7.78868E-001	5.62911E-003	0.00000E+000	7.80001E-001	-6.55718E+000	10	..........a
	243	6.1	7.69068E-001	5.17851E-003	0.00000E+000	7.70003E-001	-6.55718E+000	10	..........a
	244	6.125	7.59068E-001	4.76462E-003	0.00000E+000	7.60004E-001	-6.55718E+000	10	..........a
	245	6.15	7.49068E-001	4.38078E-003	0.00000E+000	7.50005E-001	-6.55718E+000	10	..........a
	246	6.175	7.39268E-001	4.02030E-003	0.00000E+000	7.40007E-001	-6.55718E+000	10	..........a
	247	6.2	7.29068E-001	3.68827E-003	0.00000E+000	7.30008E-001	-6.55718E+000	9	..........a
	248	6.225	7.19068E-001	3.37420E-003	0.00000E+000	7.20009E-001	-6.55718E+000	9	..........a
	249	6.25	7.09068E-001	3.07831E-003	0.00000E+000	7.10010E-001	-6.55718E+000	9	..........a
	250	6.275	6.99268E-001	2.79891E-003	0.00000E+000	7.00012E-001	-6.55718E+000	9	..........a
	251	6.3	6.89068E-001	2.53586E-003	0.00000E+000	6.90013E-001	-6.55718E+000	9	..........a
	252	6.325	6.79068E-001	2.28631E-003	0.00000E+000	6.80014E-001	-6.55718E+000	9	..........a
	253	6.35	6.69068E-001	2.04959E-003	0.00000E+000	6.70015E-001	-6.55718E+000	9	..........a
	254	6.375	6.59068E-001	1.82404E-003	0.00000E+000	6.60017E-001	-6.55718E+000	9	..........a
	255	6.4	6.49268E-001	1.60883E-003	0.00000E+000	6.50018E-001	-6.55718E+000	9	..........a
	256	6.425	6.39268E-001	1.40412E-003	0.00000E+000	6.40019E-001	-6.55718E+000	9	..........a
	257	6.45	6.29268E-001	1.20775E-003	0.00000E+000	6.30020E-001	-6.55718E+000	9	..........a
	258	6.475	6.19068E-001	1.02004E-003	0.00000E+000	6.20022E-001	-6.55718E+000	9	..........a
	259	6.5	6.09068E-001	8.39837E-004	0.00000E+000	6.10023E-001	-6.55718E+000	9	..........a
	260	6.525	5.99068E-001	6.66467E-004	0.00000E+000	6.00024E-001	-6.55718E+000	9	..........a
	261	6.55	5.89068E-001	4.98598E-004	0.00000E+000	5.89975E-001	-6.55718E+000	9	..........a
	262	6.575	5.79068E-001	3.38731E-004	0.00000E+000	5.79977E-001	-6.55718E+000	9	..........a
	263	6.6	5.69068E-001	1.82823E-004	0.00000E+000	5.69978E-001	-6.55718E+000	8	..........a
	264	6.625	5.59068E-001	3.27376E-005	0.00000E+000	5.59979E-001	-6.55718E+000	8	..........a
	265	6.65	5.49068E-001	-5.47454E-005	0.00000E+000	5.49981E-001	-6.55718E+000	7	....ih..i.a
	266	6.675	5.39268E-001	-2.52875E-004	0.00000E+000	5.39982E-001	-6.55718E+000	8	..........a
	267	6.7	5.29268E-001	-3.88369E-004	0.00000E+000	5.29983E-001	-6.55718E+000	8	..........a
	268	6.725	5.19068E-001	-5.20758E-004	0.00000E+000	5.19984E-001	-6.55718E+000	8	....ih....a
	269	6.75	5.09068E-001	-6.48809E-004	0.00000E+000	5.09986E-001	-6.55718E+000	9	..........a
	270	6.775	4.99268E-001	-7.73169E-004	0.00000E+000	4.99987E-001	-6.55718E+000	9	..........a
	271	6.8	4.89068E-001	-8.94861E-004	0.00000E+000	4.89988E-001	-6.55718E+000	9	..........a
	272	6.825	4.79268E-001	-1.01239E-003	0.00000E+000	4.79989E-001	-6.55718E+000	9	..........a
	273	6.85	4.69268E-001	-1.12708E-003	0.00000E+000	4.69991E-001	-6.55718E+000	9	..........a
	274	6.875	4.59268E-001	-1.23927E-003	0.00000E+000	4.59992E-001	-6.55718E+000	9	..........a
	275	6.9	4.49268E-001	-1.34812E-003	0.00000E+000	4.49993E-001	-6.55718E+000	9	..........a
	276	6.925	4.39268E-001	-1.45498E-003	0.00000E+000	4.39994E-001	-6.55718E+000	9	..........a
	277	6.95	4.29268E-001	-1.55850E-003	0.00000E+000	4.29996E-001	-6.55718E+000	9	..........a
	278	6.975	4.19268E-001	-1.65885E-003	0.00000E+000	4.19997E-001	-6.55718E+000	9	..........a
	279	7	4.09268E-001	-1.75771E-003	0.00000E+000	4.09998E-001	-6.55718E+000	9	..........a
	280	7.025	3.99268E-001	-1.85390E-003	0.00000E+000	3.99999E-001	-6.55718E+000	9	..........a
	281	7.05	3.89268E-001	-1.94808E-003	0.00000E+000	3.90001E-001	-6.55718E+000	9	..........a
	282	7.075	3.79468E-001	-2.04010E-003	0.00000E+000	3.80002E-001	-6.55718E+000	9	..........a
	283	7.1	3.69468E-001	-2.12962E-003	0.00000E+000	3.70003E-001	-6.55718E+000	9	..........a
	284	7.125	3.59468E-001	-2.21764E-003	0.00000E+000	3.60005E-001	-6.55718E+000	9	..........a
	285	7.15	3.49468E-001	-2.30316E-003	0.00000E+000	3.50006E-001	-6.55718E+000	9	..........a
	286	7.175	3.39268E-001	-2.38717E-003	0.00000E+000	3.40007E-001	-6.55718E+000	9	..........a
	287	7.2	3.29468E-001	-2.47036E-003	0.00000E+000	3.30008E-001	-6.55718E+000	9	..........a
	288	7.225	3.19268E-001	-2.55104E-003	0.00000E+000	3.20010E-001	-6.55718E+000	9	..........a
	289	7.25	3.09468E-001	-2.62939E-003	0.00000E+000	3.10011E-001	-6.55718E+000	9	..........a
	290	7.275	2.99468E-001	-2.70708E-003	0.00000E+000	3.00012E-001	-6.55718E+000	9	..........a
	291	7.3	2.89468E-001	-2.78292E-003	0.00000E+000	2.90013E-001	-6.55718E+000	9	..........a
	292	7.325	2.79468E-001	-2.85811E-003	0.00000E+000	2.80015E-001	-6.55718E+000	9	..........a
	293	7.35	2.69468E-001	-2.93112E-003	0.00000E+000	2.70016E-001	-6.55718E+000	9	..........a
	294	7.375	2.59268E-001	-3.00447E-003	0.00000E+000	2.60017E-001	-6.55718E+000	9	..........a
	295	7.4	2.49468E-001	-3.07449E-003	0.00000E+000	2.50018E-001	-6.55718E+000	9	..........a
	296	7.425	2.39468E-001	-3.14417E-003	0.00000E+000	2.40020E-001	-6.55718E+000	9	..........a
	297	7.45	2.29468E-001	-3.21368E-003	0.00000E+000	2.30021E-001	-6.55718E+000	9	..........a
	298	7.475	2.19468E-001	-3.28153E-003	0.00000E+000	2.20022E-001	-6.55718E+000	9	..........a
	299	7.5	2.09468E-001	-3.34788E-003	0.00000E+000	2.10023E-001	-6.55718E+000	9	..........a
	300	7.525	1.99268E-001	-3.41322E-003	0.00000E+000	2.00025E-001	-6.55718E+000	9	..........a
	301	7.55	1.89268E-001	-3.47740E-003	0.00000E+000	1.90026E-001	-6.55718E+000	9	..........a
	302	7.575	1.79268E-001	-3.54242E-003	0.00000E+000	1.79977E-001	-6.55718E+000	9	..........a
	303	7.6	1.69668E-001	-3.60610E-003	0.00000E+000	1.69979E-001	-6.55718E+000	9	..........a
	304	7.625	1.59468E-001	-3.66878E-003	0.00000E+000	1.59980E-001	-6.55718E+000	9	..........a
	305	7.65	1.49468E-001	-3.73046E-003	0.00000E+000	1.49981E-001	-6.55718E+000	9	..........a
	306	7.675	1.39468E-001	-3.79130E-003	0.00000E+000	1.39982E-001	-6.55718E+000	9	..........a
	307	7.7	1.29468E-001	-3.85248E-003	0.00000E+000	1.29984E-001	-6.55718E+000	9	..........a
	308	7.725	1.19468E-001	-3.91116E-003	0.00000E+000	1.19985E-001	-6.55718E+000	9	..........a
	309	7.75	1.09668E-001	-3.97101E-003	0.00000E+000	1.09986E-001	-6.55718E+000	9	..........a
	310	7.775	9.94678E-002	-4.02952E-003	0.00000E+000	9.99874E-002	-6.55718E+000	9	..........a
	311	7.8	8.94678E-002	-4.08703E-003	0.00000E+000	8.99886E-002	-6.55718E+000	9	..........a
	312	7.825	7.94678E-002	-4.14488E-003	0.00000E+000	7.99899E-002	-6.55718E+000	9	..........a
	313	7.85	6.94678E-002	-4.20139E-003	0.00000E+000	6.99912E-002	-6.55718E+000	9	..........a
	314	7.875	5.96678E-002	-4.25673E-003	0.00000E+000	5.99924E-002	-6.55718E+000	9	..........a
	315	7.9	4.94678E-002	-4.31525E-003	0.00000E+000	4.99937E-002	-6.55718E+000	9	..........a
	316	7.925	3.96678E-002	-4.36842E-003	0.00000E+000	3.99949E-002	-6.55718E+000	9	..........a
	317	7.95	2.94678E-002	-4.42610E-003	0.00000E+000	2.99962E-002	-6.55718E+000	9	..........a
	318	7.975	1.94678E-002	-4.48011E-003	0.00000E+000	1.99975E-002	-6.55718E+000	9	..........a
	319	8	9.46784E-003	-4.53444E-003	0.00000E+000	9.99874E-003	-6.55718E+000	10	..........a
	320	8.025	-3.32160E-004	-4.58952E-003	0.00000E+000	0.00000E+000	-6.55718E+000	10	..........a
	321	8.05	-1.05322E-002	-4.64292E-003	0.00000E+000	-9.99874E-003	-6.55718E+000	10	..........a
	322	8.075	-2.03322E-002	-4.69299E-003	0.00000E+000	-1.99975E-002	-6.55718E+000	10	..........a
	323	8.1	-3.03322E-002	-4.74806E-003	0.00000E+000	-2.99962E-002	-6.55718E+000	10	..........a
	324	8.125	-4.03322E-002	-4.79980E-003	0.00000E+000	-3.99949E-002	-6.55718E+000	10	..........a
	325	8.15	-5.05322E-002	-4.85153E-003	0.00000E+000	-4.99937E-002	-6.55718E+000	10	..........a
	326	8.175	-6.03322E-002	-4.90327E-003	0.00000E+000	-5.99924E-002	-6.55718E+000	10	..........a
	327	8.2	-7.03321E-002	-4.95167E-003	0.00000E+000	-6.99912E-002	-6.55718E+000	10	..........a
	328	8.225	-8.05321E-002	-5.00340E-003	0.00000E+000	-7.99899E-002	-6.55718E+000	10	..........a
	329	8.25	-9.03321E-002	-5.05347E-003	0.00000E+000	-8.99886E-002	-6.55718E+000	10	..........a
	330	8.275	-1.00332E-001	-5.10520E-003	0.00000E+000	-9.99874E-002	-6.55718E+000	10	..........a
	331	8.3	-1.10532E-001	-5.15360E-003	0.00000E+000	-1.09986E-001	-6.55718E+000	10	..........a
	332	8.325	-1.20532E-001	-5.20200E-003	0.00000E+000	-1.19985E-001	-6.55718E+000	10	..........a
	333	8.35	-1.30332E-001	-5.25040E-003	0.00000E+000	-1.29984E-001	-6.55718E+000	10	..........a
	334	8.375	-1.40332E-001	-5.30046E-003	0.00000E+000	-1.39982E-001	-6.55718E+000	10	..........a
	335	8.4	-1.50332E-001	-5.34719E-003	0.00000E+000	-1.49981E-001	-6.55718E+000	10	..........a
	336	8.425	-1.60532E-001	-5.39225E-003	0.00000E+000	-1.59980E-001	-6.55718E+000	10	..........a
	337	8.45	-1.70332E-001	-5.44065E-003	0.00000E+000	-1.69979E-001	-6.55718E+000	10	..........a
	338	8.475	-1.80332E-001	-5.48738E-003	0.00000E+000	-1.79977E-001	-6.55718E+000	10	..........a
	339	8.5	-1.90132E-001	-5.53411E-003	0.00000E+000	-1.89976E-001	-6.55718E+000	10	..........a
	340	8.525	-2.00332E-001	-5.57917E-003	0.00000E+000	-1.99975E-001	-6.55718E+000	10	..........a
	341	8.55	-2.10132E-001	-5.62256E-003	0.00000E+000	-2.09973E-001	-6.55718E+000	10	..........a
	342	8.575	-2.20532E-001	-5.67096E-003	0.00000E+000	-2.20022E-001	-6.55718E+000	10	..........a
	343	8.6	-2.30332E-001	-5.71268E-003	0.00000E+000	-2.30021E-001	-6.55718E+000	10	..........a
	344	8.625	-2.40332E-001	-5.75774E-003	0.00000E+000	-2.40020E-001	-6.55718E+000	10	..........a
	345	8.65	-2.50132E-001	-5.80113E-003	0.00000E+000	-2.50018E-001	-6.55718E+000	10	..........a
	346	8.675	-2.60332E-001	-5.84452E-003	0.00000E+000	-2.60017E-001	-6.55718E+000	10	..........a
	347	8.7	-2.70332E-001	-5.88791E-003	0.00000E+000	-2.70016E-001	-6.55718E+000	10	..........a
	348	8.725	-2.80332E-001	-5.93131E-003	0.00000E+000	-2.80015E-001	-6.55718E+000	10	..........a
	349	8.75	-2.90132E-001	-5.97303E-003	0.00000E+000	-2.90013E-001	-6.55718E+000	10	..........a
	350	8.775	-3.00332E-001	-6.01308E-003	0.00000E+000	-3.00012E-001	-6.55718E+000	10	..........a
	351	8.8	-3.10332E-001	-6.05480E-003	0.00000E+000	-3.10011E-001	-6.55718E+000	10	..........a
	352	8.825	-3.20132E-001	-6.09653E-003	0.00000E+000	-3.20010E-001	-6.55718E+000	10	..........a
	353	8.85	-3.30332E-001	-6.13825E-003	0.00000E+000	-3.30008E-001	-6.55718E+000	10	..........a
	354	8.875	-3.40132E-001	-6.17663E-003	0.00000E+000	-3.40007E-001	-6.55718E+000	10	..........a
	355	8.9	-3.50332E-001	-6.21836E-003	0.00000E+000	-3.50006E-001	-6.55718E+000	10	..........a
	356	8.925	-3.60332E-001	-6.26008E-003	0.00000E+000	-3.60005E-001	-6.55718E+000	10	..........a
	357	8.95	-3.70332E-001	-6.29512E-003	0.00000E+000	-3.70003E-001	-6.55718E+000	10	..........a
	358	8.975	-3.80332E-001	-6.33518E-003	0.00000E+000	-3.80002E-001	-6.55718E+000	10	..........a
	359	9	-3.90332E-001	-6.37523E-003	0.00000E+000	-3.90001E-001	-6.55718E+000	10	..........a
	360	9.025	-3.99932E-001	-6.41195E-003	0.00000E+000	-3.99999E-001	-6.55718E+000	10	..........a
	361	9.05	-4.10132E-001	-6.45200E-003	0.00000E+000	-4.09998E-001	-6.55718E+000	10	..........a
	362	9.075	-4.20332E-001	-6.48871E-003	0.00000E+000	-4.19997E-001	-6.55718E+000	10	..........a
	363	9.1	-4.30132E-001	-6.52710E-003	0.00000E+000	-4.29996E-001	-6.55718E+000	10	..........a
	364	9.125	-4.40132E-001	-6.56048E-003	0.00000E+000	-4.39994E-001	-6.55718E+000	10	..........a
	365	9.15	-4.50132E-001	-6.60053E-003	0.00000E+000	-4.49993E-001	-6.55718E+000	10	..........a
	366	9.175	-4.60132E-001	-6.63558E-003	0.00000E+000	-4.59992E-001	-6.55718E+000	10	..........a
	367	9.2	-4.70132E-001	-6.67396E-003	0.00000E+000	-4.69991E-001	-6.55718E+000	10	..........a
	368	9.225	-4.80132E-001	-6.70901E-003	0.00000E+000	-4.79989E-001	-6.55718E+000	10	..........a
	369	9.25	-4.90132E-001	-6.74406E-003	0.00000E+000	-4.89988E-001	-6.55718E+000	10	..........a
	370	9.275	-4.99932E-001	-6.78077E-003	0.00000E+000	-4.99987E-001	-6.55718E+000	10	..........a
	371	9.3	-5.10132E-001	-6.81415E-003	0.00000E+000	-5.09986E-001	-6.55718E+000	10	..........a
	372	9.325	-5.19932E-001	-6.84920E-003	0.00000E+000	-5.19984E-001	-6.55718E+000	10	..........a
	373	9.35	-5.30132E-001	-6.88091E-003	0.00000E+000	-5.29983E-001	-6.55718E+000	10	..........a
	374	9.375	-5.40132E-001	-6.91762E-003	0.00000E+000	-5.39982E-001	-6.55718E+000	10	..........a
	375	9.4	-5.49932E-001	-6.95100E-003	0.00000E+000	-5.49981E-001	-6.55718E+000	10	..........a
	376	9.425	-5.59932E-001	-6.98271E-003	0.00000E+000	-5.59979E-001	-6.55718E+000	10	..........a
	377	9.45	-5.70132E-001	-7.01442E-003	0.00000E+000	-5.69978E-001	-6.55718E+000	10	..........a
	378	9.475	-5.79932E-001	-7.04446E-003	0.00000E+000	-5.79977E-001	-6.55718E+000	10	..........a
	379	9.5	-5.89932E-001	-7.07450E-003	0.00000E+000	-5.89975E-001	-6.55718E+000	10	..........a
	380	9.525	-6.00132E-001	-7.10287E-003	0.00000E+000	-5.99974E-001	-6.55718E+000	10	..........a
	381	9.55	-6.10132E-001	-7.13124E-003	0.00000E+000	-6.09973E-001	-6.55718E+000	10	..........a
	382	9.575	-6.19932E-001	-7.16128E-003	0.00000E+000	-6.20022E-001	-6.55718E+000	10	..........a
	383	9.6	-6.29932E-001	-7.18631E-003	0.00000E+000	-6.30020E-001	-6.55718E+000	10	..........a
	384	9.625	-6.39932E-001	-7.21135E-003	0.00000E+000	-6.40019E-001	-6.55718E+000	10	..........a
	385	9.65	-6.50132E-001	-7.23805E-003	0.00000E+000	-6.50018E-001	-6.55718E+000	10	..........a
	386	9.675	-6.60132E-001	-7.25974E-003	0.00000E+000	-6.60017E-001	-6.55718E+000	10	..........a
	387	9.7	-6.69932E-001	-7.28311E-003	0.00000E+000	-6.70015E-001	-6.55718E+000	10	..........a
	388	9.725	-6.80132E-001	-7.30480E-003	0.00000E+000	-6.80014E-001	-6.55718E+000	10	..........a
	389	9.75	-6.90132E-001	-7.32817E-003	0.00000E+000	-6.90013E-001	-6.55718E+000	10	..........a
	390	9.775	-6.99932E-001	-7.34653E-003	0.00000E+000	-7.00012E-001	-6.55718E+000	10	..........a
	391	9.8	-7.09932E-001	-7.36488E-003	0.00000E+000	-7.10010E-001	-6.55718E+000	10	..........a
	392	9.825	-7.19932E-001	-7.38658E-003	0.00000E+000	-7.20009E-001	-6.55718E+000	10	..........a
	393	9.85	-7.29732E-001	-7.40160E-003	0.00000E+000	-7.30008E-001	-6.55718E+000	10	..........a
	394	9.875	-7.39932E-001	-7.41662E-003	0.00000E+000	-7.40007E-001	-6.55718E+000	10	..........a
	395	9.9	-7.49932E-001	-7.42997E-003	0.00000E+000	-7.50005E-001	-6.55718E+000	10	..........a
	396	9.925	-7.59932E-001	-7.44833E-003	0.00000E+000	-7.60004E-001	-6.55718E+000	10	..........a
	397	9.95	-7.69732E-001	-7.46001E-003	0.00000E+000	-7.70003E-001	-6.55718E+000	10	..........a
	398	9.975	-7.79932E-001	-7.47670E-003	0.00000E+000	-7.80001E-001	-6.55718E+000	10	..........a
	399	10	-7.89932E-001	-7.48838E-003	0.00000E+000	-7.90000E-001	-6.55718E+000	10	..........a
	400	10.025	-7.99932E-001	-7.50173E-003	0.00000E+000	-7.99999E-001	-6.55718E+000	10	..........a
	401	10.05	-7.89932E-001	-6.89759E-003	0.00000E+000	-7.90000E-001	-6.55718E+000	10	..........a
	402	10.075	-7.79932E-001	-6.34686E-003	0.00000E+000	-7.80001E-001	-6.55718E+000	10	..........a
	403	10.1	-7.69932E-001	-5.84452E-003	0.00000E+000	-7.70003E-001	-6.55718E+000	10	..........a
	404	10.125	-7.59932E-001	-5.37723E-003	0.00000E+000	-7.60004E-001	-6.55718E+000	10	..........a
	405	10.15	-7.49932E-001	-4.94499E-003	0.00000E+000	-7.50005E-001	-6.55718E+000	10	..........a
	406	10.175	-7.40132E-001	-4.54279E-003	0.00000E+000	-7.40007E-001	-6.55718E+000	10	..........a
	407	10.2	-7.29932E-001	-4.16228E-003	0.00000E+000	-7.30008E-001	-6.55718E+000	10	..........a
	408	10.225	-7.19932E-001	-3.80681E-003	0.00000E+000	-7.20009E-001	-6.55718E+000	10	..........a
	409	10.25	-7.09932E-001	-3.46890E-003	0.00000E+000	-7.10010E-001	-6.55718E+000	9	..........a
	410	10.275	-6.99932E-001	-3.15200E-003	0.00000E+000	-7.00012E-001	-6.55718E+000	9	..........a
	411	10.3	-6.89932E-001	-2.85161E-003	0.00000E+000	-6.90013E-001	-6.55718E+000	9	..........a
	412	10.325	-6.79932E-001	-2.56821E-003	0.00000E+000	-6.80014E-001	-6.55718E+000	9	..........a
	413	10.35	-6.69932E-001	-2.29599E-003	0.00000E+000	-6.70015E-001	-6.55718E+000	9	..........a
	414	10.375	-6.59932E-001	-2.03693E-003	0.00000E+000	-6.60017E-001	-6.55718E+000	9	..........a
	415	10.4	-6.49932E-001	-1.79088E-003	0.00000E+000	-6.50018E-001	-6.55718E+000	9	..........a
	416	10.425	-6.40132E-001	-1.55550E-003	0.00000E+000	-6.40019E-001	-6.55718E+000	9	..........a
	417	10.45	-6.30132E-001	-1.32979E-003	0.00000E+000	-6.30020E-001	-6.55718E+000	9	..........a
	418	10.475	-6.20132E-001	-1.11324E-003	0.00000E+000	-6.20022E-001	-6.55718E+000	9	..........a
	419	10.5	-6.09932E-001	-9.05363E-004	0.00000E+000	-6.09973E-001	-6.55718E+000	9	..........a
	420	10.525	-5.99932E-001	-7.05321E-004	0.00000E+000	-5.99974E-001	-6.55718E+000	9	..........a
	421	10.55	-5.90132E-001	-5.13281E-004	0.00000E+000	-5.89975E-001	-6.55718E+000	9	..........a
	422	10.575	-5.79932E-001	-3.27575E-004	0.00000E+000	-5.79977E-001	-6.55718E+000	9	..........a
	423	10.6	-5.70132E-001	-1.48850E-004	0.00000E+000	-5.69978E-001	-6.55718E+000	8	..........a
	424	10.625	-5.59932E-001	2.27709E-005	0.00000E+000	-5.59979E-001	-6.55718E+000	8	..........a
	425	10.65	-5.50132E-001	5.47102E-005	0.00000E+000	-5.49981E-001	-6.55718E+000	7	....ih..i.a
	426	10.675	-5.39932E-001	3.50871E-004	0.00000E+000	-5.39982E-001	-6.55718E+000	8	..........a
	427	10.7	-5.30132E-001	5.07734E-004	0.00000E+000	-5.29983E-001	-6.55718E+000	8	.....h....a
	428	10.725	-5.19932E-001	6.59632E-004	0.00000E+000	-5.19984E-001	-6.55718E+000	9	..........a
	429	10.75	-5.09932E-001	8.06330E-004	0.00000E+000	-5.09986E-001	-6.55718E+000	9	..........a
	430	10.775	-5.00132E-001	9.48693E-004	0.00000E+000	-4.99987E-001	-6.55718E+000	9	..........a
	431	10.8	-4.90132E-001	1.08672E-003	0.00000E+000	-4.89988E-001	-6.55718E+000	9	..........a
	432	10.825	-4.80132E-001	1.22042E-003	0.00000E+000	-4.79989E-001	-6.55718E+000	9	..........a
	433	10.85	-4.69932E-001	1.35061E-003	0.00000E+000	-4.69991E-001	-6.55718E+000	9	..........a
	434	10.875	-4.60132E-001	1.47647E-003	0.00000E+000	-4.59992E-001	-6.55718E+000	9	..........a
	435	10.9	-4.50132E-001	1.59916E-003	0.00000E+000	-4.49993E-001	-6.55718E+000	9	..........a
	436	10.925	-4.40132E-001	1.71885E-003	0.00000E+000	-4.39994E-001	-6.55718E+000	9	..........a
	437	10.95	-4.30132E-001	1.83288E-003	0.00000E+000	-4.29996E-001	-6.55718E+000	9	..........a
	438	10.975	-4.20332E-001	1.94624E-003	0.00000E+000	-4.19997E-001	-6.55718E+000	9	..........a
	439	11	-4.10132E-001	2.05559E-003	0.00000E+000	-4.09998E-001	-6.55718E+000	9	..........a
	440	11.025	-3.99932E-001	2.16145E-003	0.00000E+000	-3.99999E-001	-6.55718E+000	9	..........a
	441	11.05	-3.90132E-001	2.26480E-003	0.00000E+000	-3.90001E-001	-6.55718E+000	9	..........a
	442	11.075	-3.80332E-001	2.36516E-003	0.00000E+000	-3.80002E-001	-6.55718E+000	9	..........a
	443	11.1	-3.70332E-001	2.46351E-003	0.00000E+000	-3.70003E-001	-6.55718E+000	9	..........a
	444	11.125	-3.60332E-001	2.55853E-003	0.00000E+000	-3.60005E-001	-6.55718E+000	9	..........a
	445	11.15	-3.50332E-001	2.65238E-003	0.00000E+000	-3.50006E-001	-6.55718E+000	9	..........a
	446	11.175	-3.40332E-001	2.74357E-003	0.00000E+000	-3.40007E-001	-6.55718E+000	9	..........a
	447	11.2	-3.30332E-001	2.83126E-003	0.00000E+000	-3.30008E-001	-6.55718E+000	9	..........a
	448	11.225	-3.20532E-001	2.91694E-003	0.00000E+000	-3.20010E-001	-6.55718E+000	9	..........a
	449	11.25	-3.10332E-001	3.00146E-003	0.00000E+000	-3.10011E-001	-6.55718E+000	9	..........a
	450	11.275	-3.00132E-001	3.08264E-003	0.00000E+000	-3.00012E-001	-6.55718E+000	9	..........a
	451	11.3	-2.90132E-001	3.16349E-003	0.00000E+000	-2.90013E-001	-6.55718E+000	9	..........a
	452	11.325	-2.80132E-001	3.24284E-003	0.00000E+000	-2.80015E-001	-6.55718E+000	9	..........a
	453	11.35	-2.70132E-001	3.31819E-003	0.00000E+000	-2.70016E-001	-6.55718E+000	9	..........a
	454	11.375	-2.60332E-001	3.39304E-003	0.00000E+000	-2.60017E-001	-6.55718E+000	9	..........a
	455	11.4	-2.50332E-001	3.46739E-003	0.00000E+000	-2.50018E-001	-6.55718E+000	9	..........a
	456	11.425	-2.40332E-001	3.53957E-003	0.00000E+000	-2.40020E-001	-6.55718E+000	9	..........a
	457	11.45	-2.30332E-001	3.60842E-003	0.00000E+000	-2.30021E-001	-6.55718E+000	9	..........a
	458	11.475	-2.20332E-001	3.67777E-003	0.00000E+000	-2.20022E-001	-6.55718E+000	9	..........a
	459	11.5	-2.10132E-001	3.74595E-003	0.00000E+000	-2.09973E-001	-6.55718E+000	9	..........a
	460	11.525	-2.00332E-001	3.81296E-003	0.00000E+000	-1.99975E-001	-6.55718E+000	9	..........a
	461	11.55	-1.90132E-001	3.87931E-003	0.00000E+000	-1.89976E-001	-6.55718E+000	9	..........a
	462	11.575	-1.80332E-001	3.94216E-003	0.00000E+000	-1.79977E-001	-6.55718E+000	9	..........a
	463	11.6	-1.70132E-001	4.00567E-003	0.00000E+000	-1.69979E-001	-6.55718E+000	9	..........a
	464	11.625	-1.60332E-001	4.06818E-003	0.00000E+000	-1.59980E-001	-6.55718E+000	9	..........a
	465	11.65	-1.50332E-001	4.12786E-003	0.00000E+000	-1.49981E-001	-6.55718E+000	9	..........a
	466	11.675	-1.40332E-001	4.18871E-003	0.00000E+000	-1.39982E-001	-6.55718E+000	9	..........a
	467	11.7	-1.30332E-001	4.24672E-003	0.00000E+000	-1.29984E-001	-6.55718E+000	9	..........a
	468	11.725	-1.20332E-001	4.30490E-003	0.00000E+000	-1.19985E-001	-6.55718E+000	9	..........a
	469	11.75	-1.10332E-001	4.36124E-003	0.00000E+000	-1.09986E-001	-6.55718E+000	9	..........a
	470	11.775	-1.00332E-001	4.41809E-003	0.00000E+000	-9.99874E-002	-6.55718E+000	9	..........a
	471	11.8	-9.05321E-002	4.47277E-003	0.00000E+000	-8.99886E-002	-6.55718E+000	9	..........a
	472	11.825	-8.03321E-002	4.52430E-003	0.00000E+000	-7.99899E-002	-6.55718E+000	10	..........a
	473	11.85	-7.05322E-002	4.57771E-003	0.00000E+000	-6.99912E-002	-6.55718E+000	10	..........a
	474	11.875	-6.03322E-002	4.62944E-003	0.00000E+000	-5.99924E-002	-6.55718E+000	10	..........a
	475	11.9	-5.03322E-002	4.68118E-003	0.00000E+000	-4.99937E-002	-6.55718E+000	10	..........a
	476	11.925	-4.03322E-002	4.73291E-003	0.00000E+000	-3.99949E-002	-6.55718E+000	10	..........a
	477	11.95	-3.03322E-002	4.78298E-003	0.00000E+000	-2.99962E-002	-6.55718E+000	10	..........a
	478	11.975	-2.03322E-002	4.83305E-003	0.00000E+000	-1.99975E-002	-6.55718E+000	10	..........a
	479	12	-1.05322E-002	4.88145E-003	0.00000E+000	-9.99874E-003	-6.55718E+000	10	..........a
	480	12.025	-3.32160E-004	4.92984E-003	0.00000E+000	0.00000E+000	-6.55718E+000	10	..........a
	481	12.05	9.46784E-003	4.97824E-003	0.00000E+000	9.99874E-003	-6.55718E+000	10	..........a
	482	12.075	1.94678E-002	5.02497E-003	0.00000E+000	1.99975E-002	-6.55718E+000	10	..........a
	483	12.1	2.92678E-002	5.07003E-003	0.00000E+000	2.99962E-002	-6.55718E+000	10	..........a
	484	12.125	3.96678E-002	5.11509E-003	0.00000E+000	3.99949E-002	-6.55718E+000	10	..........a
	485	12.15	4.94678E-002	5.16015E-003	0.00000E+000	4.99937E-002	-6.55718E+000	10	..........a
	486	12.175	5.94678E-002	5.20688E-003	0.00000E+000	5.99924E-002	-6.55718E+000	10	..........a
	487	12.2	6.94678E-002	5.24860E-003	0.00000E+000	6.99912E-002	-6.55718E+000	10	..........a
	488	12.225	7.94678E-002	5.29199E-003	0.00000E+000	7.99899E-002	-6.55718E+000	10	..........a
	489	12.25	8.94678E-002	5.33371E-003	0.00000E+000	8.99886E-002	-6.55718E+000	10	..........a
	490	12.275	9.96678E-002	5.37544E-003	0.00000E+000	9.99874E-002	-6.55718E+000	10	..........a
	491	12.3	1.09468E-001	5.41883E-003	0.00000E+000	1.09986E-001	-6.55718E+000	10	..........a
	492	12.325	1.19268E-001	5.45888E-003	0.00000E+000	1.19985E-001	-6.55718E+000	10	..........a
	493	12.35	1.29468E-001	5.49727E-003	0.00000E+000	1.29984E-001	-6.55718E+000	10	..........a
	494	12.375	1.39668E-001	5.53565E-003	0.00000E+000	1.39982E-001	-6.55718E+000	10	..........a
	495	12.4	1.49668E-001	5.57403E-003	0.00000E+000	1.49981E-001	-6.55718E+000	10	..........a
	496	12.425	1.59468E-001	5.61075E-003	0.00000E+000	1.59980E-001	-6.55718E+000	10	..........a
	497	12.45	1.69468E-001	5.64747E-003	0.00000E+000	1.69979E-001	-6.55718E+000	10	..........a
	498	12.475	1.79268E-001	5.68251E-003	0.00000E+000	1.79977E-001	-6.55718E+000	10	..........a
	499	12.5	1.89468E-001	5.71923E-003	0.00000E+000	1.90026E-001	-6.55718E+000	10	..........a
	500	12.525	1.99468E-001	5.75428E-003	0.00000E+000	2.00025E-001	-6.55718E+000	10	..........a
	501	12.55	2.09268E-001	5.78598E-003	0.00000E+000	2.10023E-001	-6.55718E+000	10	..........a
	502	12.575	2.19468E-001	5.81936E-003	0.00000E+000	2.20022E-001	-6.55718E+000	10	..........a
	503	12.6	2.29468E-001	5.85107E-003	0.00000E+000	2.30021E-001	-6.55718E+000	10	..........a
	504	12.625	2.39468E-001	5.88612E-003	0.00000E+000	2.40020E-001	-6.55718E+000	10	..........a
	505	12.65	2.49268E-001	5.91449E-003	0.00000E+000	2.50018E-001	-6.55718E+000	10	..........a
	506	12.675	2.59268E-001	5.94286E-003	0.00000E+000	2.60017E-001	-6.55718E+000	10	..........a
	507	12.7	2.69468E-001	5.97290E-003	0.00000E+000	2.70016E-001	-6.55718E+000	10	..........a
	508	12.725	2.79268E-001	5.99960E-003	0.00000E+000	2.80015E-001	-6.55718E+000	10	..........a
	509	12.75	2.89468E-001	6.02964E-003	0.00000E+000	2.90013E-001	-6.55718E+000	10	..........a
	510	12.775	2.99468E-001	6.05634E-003	0.00000E+000	3.00012E-001	-6.55718E+000	10	..........a
	511	12.8	3.09268E-001	6.08305E-003	0.00000E+000	3.10011E-001	-6.55718E+000	10	..........a
	512	12.825	3.19268E-001	6.10808E-003	0.00000E+000	3.20010E-001	-6.55718E+000	10	..........a
	513	12.85	3.29268E-001	6.13478E-003	0.00000E+000	3.30008E-001	-6.55718E+000	10	..........a
	514	12.875	3.39468E-001	6.15982E-003	0.00000E+000	3.40007E-001	-6.55718E+000	10	..........a
	515	12.9	3.49468E-001	6.18151E-003	0.00000E+000	3.50006E-001	-6.55718E+000	10	..........a
	516	12.925	3.59268E-001	6.20655E-003	0.00000E+000	3.60005E-001	-6.55718E+000	10	..........a
	517	12.95	3.69468E-001	6.22991E-003	0.00000E+000	3.70003E-001	-6.55718E+000	10	..........a
	518	12.975	3.79268E-001	6.25160E-003	0.00000E+000	3.80002E-001	-6.55718E+000	10	..........a
	519	13	3.89268E-001	6.27330E-003	0.00000E+000	3.90001E-001	-6.55718E+000	10	..........a
	520	13.025	3.99268E-001	6.29333E-003	0.00000E+000	3.99999E-001	-6.55718E+000	10	..........a
	521	13.05	4.09268E-001	6.31335E-003	0.00000E+000	4.09998E-001	-6.55718E+000	10	..........a
	522	13.075	4.19268E-001	6.33171E-003	0.00000E+000	4.19997E-001	-6.55718E+000	10	..........a
	523	13.1	4.29068E-001	6.35341E-003	0.00000E+000	4.29996E-001	-6.55718E+000	10	..........a
	524	13.125	4.39268E-001	6.37177E-003	0.00000E+000	4.39994E-001	-6.55718E+000	10	..........a
	525	13.15	4.49068E-001	6.39179E-003	0.00000E+000	4.49993E-001	-6.55718E+000	10	..........a
	526	13.175	4.59268E-001	6.41015E-003	0.00000E+000	4.59992E-001	-6.55718E+000	10	..........a
	527	13.2	4.69268E-001	6.42684E-003	0.00000E+000	4.69991E-001	-6.55718E+000	10	..........a
	528	13.225	4.79268E-001	6.44353E-003	0.00000E+000	4.79989E-001	-6.55718E+000	10	..........a
	529	13.25	4.89268E-001	6.45688E-003	0.00000E+000	4.89988E-001	-6.55718E+000	10	..........a
	530	13.275	4.99268E-001	6.47524E-003	0.00000E+000	4.99987E-001	-6.55718E+000	10	..........a
	531	13.3	5.09068E-001	6.48859E-003	0.00000E+000	5.09986E-001	-6.55718E+000	10	..........a
	532	13.325	5.19268E-001	6.50027E-003	0.00000E+000	5.19984E-001	-6.55718E+000	10	..........a
	533	13.35	5.29068E-001	6.51529E-003	0.00000E+000	5.29983E-001	-6.55718E+000	10	..........a
	534	13.375	5.39068E-001	6.53031E-003	0.00000E+000	5.39982E-001	-6.55718E+000	10	..........a
	535	13.4	5.49068E-001	6.54199E-003	0.00000E+000	5.49981E-001	-6.55718E+000	10	..........a
	536	13.425	5.59268E-001	6.55368E-003	0.00000E+000	5.59979E-001	-6.55718E+000	10	..........a
	537	13.45	5.69268E-001	6.56536E-003	0.00000E+000	5.69978E-001	-6.55718E+000	10	..........a
	538	13.475	5.79268E-001	6.57537E-003	0.00000E+000	5.79977E-001	-6.55718E+000	10	..........a
	539	13.5	5.89068E-001	6.58371E-003	0.00000E+000	5.89975E-001	-6.55718E+000	10	..........a
	540	13.525	5.99268E-001	6.59373E-003	0.00000E+000	6.00024E-001	-6.55718E+000	10	..........a
	541	13.55	6.09268E-001	6.60374E-003	0.00000E+000	6.10023E-001	-6.55718E+000	10	..........a
	542	13.575	6.19068E-001	6.60875E-003	0.00000E+000	6.20022E-001	-6.55718E+000	10	..........a
	543	13.6	6.29268E-001	6.61542E-003	0.00000E+000	6.30020E-001	-6.55718E+000	10	..........a
	544	13.625	6.39268E-001	6.62377E-003	0.00000E+000	6.40019E-001	-6.55718E+000	10	..........a
	545	13.65	6.49068E-001	6.62711E-003	0.00000E+000	6.50018E-001	-6.55718E+000	10	..........a
	546	13.675	6.59068E-001	6.63044E-003	0.00000E+000	6.60017E-001	-6.55718E+000	10	..........a
	547	13.7	6.69068E-001	6.63378E-003	0.00000E+000	6.70015E-001	-6.55718E+000	10	..........a
	548	13.725	6.79268E-001	6.63712E-003	0.00000E+000	6.80014E-001	-6.55718E+000	10	..........a
	549	13.75	6.89068E-001	6.63712E-003	0.00000E+000	6.90013E-001	-6.55718E+000	10	..........a
	550	13.775	6.99068E-001	6.63879E-003	0.00000E+000	7.00012E-001	-6.55718E+000	10	..........a
	551	13.8	7.09068E-001	6.64213E-003	0.00000E+000	7.10010E-001	-6.55718E+000	10	..........a
	552	13.825	7.18868E-001	6.64379E-003	0.00000E+000	7.20009E-001	-6.55718E+000	10	..........a
	553	13.85	7.29068E-001	6.64046E-003	0.00000E+000	7.30008E-001	-6.55718E+000	10	..........a
	554	13.875	7.39068E-001	6.64046E-003	0.00000E+000	7.40007E-001	-6.55718E+000	10	..........a
	555	13.9	7.49068E-001	6.64379E-003	0.00000E+000	7.50005E-001	-6.55718E+000	10	..........a
	556	13.925	7.59068E-001	6.64213E-003	0.00000E+000	7.60004E-001	-6.55718E+000	10	..........a
	557	13.95	7.69068E-001	6.64213E-003	0.00000E+000	7.70003E-001	-6.55718E+000	10	..........a
	558	13.975	7.79068E-001	6.63879E-003	0.00000E+000	7.80001E-001	-6.55718E+000	10	..........a
	559	14	7.89068E-001	6.64046E-003	0.00000E+000	7.90000E-001	-6.55718E+000	10	..........a
	560	14.025	7.98868E-001	6.64046E-003	0.00000E+000	7.99999E-001	-6.55718E+000	10	..........a
CURVE3	TABLE
	Pt	T	Vf	Im	Vu	Sig	Ach	IERange	Over
	#	s	V vs. Ref.	A	V	V	V	#	bits
	561	14.05	7.88868E-001	6.09473E-003	0.00000E+000	7.90000E-001	-6.55718E+000	10	..........a
	562	14.075	7.79068E-001	5.60574E-003	0.00000E+000	7.80001E-001	-6.55718E+000	10	..........a
	563	14.1	7.69068E-001	5.15848E-003	0.00000E+000	7.70003E-001	-6.55718E+000	10	..........a
	564	14.125	7.59068E-001	4.74293E-003	0.00000E+000	7.60004E-001	-6.55718E+000	10	..........a
	565	14.15	7.49068E-001	4.35908E-003	0.00000E+000	7.50005E-001	-6.55718E+000	10	..........a
	566	14.175	7.39068E-001	4.00361E-003	0.00000E+000	7.40007E-001	-6.55718E+000	10	..........a
	567	14.2	7.29068E-001	3.67310E-003	0.00000E+000	7.30008E-001	-6.55718E+000	9	..........a
	568	14.225	7.19068E-001	3.35870E-003	0.00000E+000	7.20009E-001	-6.55718E+000	9	..........a
	569	14.25	7.09068E-001	3.06464E-003	0.00000E+000	7.10010E-001	-6.55718E+000	9	..........a
	570	14.275	6.98868E-001	2.78658E-003	0.00000E+000	7.00012E-001	-6.55718E+000	9	..........a
	571	14.3	6.89068E-001	2.52469E-003	0.00000E+000	6.90013E-001	-6.55718E+000	9	..........a
	572	14.325	6.79268E-001	2.27497E-003	0.00000E+000	6.80014E-001	-6.55718E+000	9	..........a
	573	14.35	6.69068E-001	2.03859E-003	0.00000E+000	6.70015E-001	-6.55718E+000	9	..........a
	574	14.375	6.59268E-001	1.81437E-003	0.00000E+000	6.60017E-001	-6.55718E+000	9	..........a
	575	14.4	6.49068E-001	1.59966E-003	0.00000E+000	6.50018E-001	-6.55718E+000	9	..........a
	576	14.425	6.39268E-001	1.39545E-003	0.00000E+000	6.40019E-001	-6.55718E+000	9	..........a
	577	14.45	6.29068E-001	1.19975E-003	0.00000E+000	6.30020E-001	-6.55718E+000	9	..........a
	578	14.475	6.19268E-001	1.01237E-003	0.00000E+000	6.20022E-001	-6.55718E+000	9	..........a
	579	14.5	6.09068E-001	8.32335E-004	0.00000E+000	6.10023E-001	-6.55718E+000	9	..........a
	580	14.525	5.99068E-001	6.59465E-004	0.00000E+000	6.00024E-001	-6.55718E+000	9	..........a
	581	14.55	5.89268E-001	4.92597E-004	0.00000E+000	5.89975E-001	-6.55718E+000	9	..........a
	582	14.575	5.79268E-001	3.31897E-004	0.00000E+000	5.79977E-001	-6.55718E+000	9	..........a
	583	14.6	5.69268E-001	1.76462E-004	0.00000E+000	5.69978E-001	-6.55718E+000	8	..........a
	584	14.625	5.59268E-001	2.67275E-005	0.00000E+000	5.59979E-001	-6.55718E+000	8	..........a
	585	14.65	5.49268E-001	-5.47454E-005	0.00000E+000	5.49981E-001	-6.55718E+000	7	....ih..i.a
	586	14.675	5.39268E-001	-2.58384E-004	0.00000E+000	5.39982E-001	-6.55718E+000	8	..........a
	587	14.7	5.29068E-001	-3.94128E-004	0.00000E+000	5.29983E-001	-6.55718E+000	8	..........a
	588	14.725	5.19068E-001	-5.25349E-004	0.00000E+000	5.19984E-001	-6.55718E+000	8	....ih....a
	589	14.75	5.09268E-001	-6.53477E-004	0.00000E+000	5.09986E-001	-6.55718E+000	9	..........a
	590	14.775	4.99068E-001	-7.78003E-004	0.00000E+000	4.99987E-001	-6.55718E+000	9	..........a
	591	14.8	4.89268E-001	-8.98528E-004	0.00000E+000	4.89988E-001	-6.55718E+000	9	..........a
	592	14.825	4.79068E-001	-1.01655E-003	0.00000E+000	4.79989E-001	-6.55718E+000	9	..........a
	593	14.85	4.69268E-001	-1.13124E-003	0.00000E+000	4.69991E-001	-6.55718E+000	9	..........a
	594	14.875	4.59268E-001	-1.24310E-003	0.00000E+000	4.59992E-001	-6.55718E+000	9	..........a
	595	14.9	4.49068E-001	-1.35196E-003	0.00000E+000	4.49993E-001	-6.55718E+000	9	..........a
	596	14.925	4.39268E-001	-1.45765E-003	0.00000E+000	4.39994E-001	-6.55718E+000	9	..........a
	597	14.95	4.29268E-001	-1.56133E-003	0.00000E+000	4.29996E-001	-6.55718E+000	9	..........a
	598	14.975	4.19268E-001	-1.66219E-003	0.00000E+000	4.19997E-001	-6.55718E+000	9	..........a
	599	15	4.09268E-001	-1.76004E-003	0.00000E+000	4.09998E-001	-6.55718E+000	9	..........a
	600	15.025	3.99268E-001	-1.85623E-003	0.00000E+000	3.99999E-001	-6.55718E+000	9	..........a
	601	15.05	3.89268E-001	-1.94992E-003	0.00000E+000	3.90001E-001	-6.55718E+000	9	..........a
	602	15.075	3.79068E-001	-2.04094E-003	0.00000E+000	3.80002E-001	-6.55718E+000	9	..........a
	603	15.1	3.69268E-001	-2.13112E-003	0.00000E+000	3.70003E-001	-6.55718E+000	9	..........a
	604	15.125	3.59068E-001	-2.21947E-003	0.00000E+000	3.60005E-001	-6.55718E+000	9	..........a
	605	15.15	3.49468E-001	-2.30466E-003	0.00000E+000	3.50006E-001	-6.55718E+000	9	..........a
	606	15.175	3.39268E-001	-2.38751E-003	0.00000E+000	3.40007E-001	-6.55718E+000	9	..........a
	607	15.2	3.29068E-001	-2.46969E-003	0.00000E+000	3.30008E-001	-6.55718E+000	9	..........a
	608	15.225	3.19268E-001	-2.55038E-003	0.00000E+000	3.20010E-001	-6.55718E+000	9	..........a
	609	15.25	3.09268E-001	-2.62906E-003	0.00000E+000	3.10011E-001	-6.55718E+000	9	..........a
	610	15.275	2.99268E-001	-2.70691E-003	0.00000E+000	3.00012E-001	-6.55718E+000	9	..........a
	611	15.3	2.89268E-001	-2.78192E-003	0.00000E+000	2.90013E-001	-6.55718E+000	9	..........a
	612	15.325	2.79468E-001	-2.85594E-003	0.00000E+000	2.80015E-001	-6.55718E+000	9	..........a
	613	15.35	2.69468E-001	-2.92962E-003	0.00000E+000	2.70016E-001	-6.55718E+000	9	..........a
	614	15.375	2.59268E-001	-3.00264E-003	0.00000E+000	2.60017E-001	-6.55718E+000	9	..........a
	615	15.4	2.49468E-001	-3.07415E-003	0.00000E+000	2.50018E-001	-6.55718E+000	9	..........a
	616	15.425	2.39468E-001	-3.14283E-003	0.00000E+000	2.40020E-001	-6.55718E+000	9	..........a
	617	15.45	2.29468E-001	-3.21168E-003	0.00000E+000	2.30021E-001	-6.55718E+000	9	..........a
	618	15.475	2.19668E-001	-3.27986E-003	0.00000E+000	2.20022E-001	-6.55718E+000	9	..........a
	619	15.5	2.09268E-001	-3.34571E-003	0.00000E+000	2.10023E-001	-6.55718E+000	9	..........a
	620	15.525	1.99468E-001	-3.41156E-003	0.00000E+000	2.00025E-001	-6.55718E+000	9	..........a
	621	15.55	1.89468E-001	-3.47440E-003	0.00000E+000	1.90026E-001	-6.55718E+000	9	..........a
	622	15.575	1.79268E-001	-3.54058E-003	0.00000E+000	1.79977E-001	-6.55718E+000	9	..........a
	623	15.6	1.69468E-001	-3.60326E-003	0.00000E+000	1.69979E-001	-6.55718E+000	9	..........a
	624	15.625	1.59468E-001	-3.66561E-003	0.00000E+000	1.59980E-001	-6.55718E+000	9	..........a
	625	15.65	1.49468E-001	-3.72529E-003	0.00000E+000	1.49981E-001	-6.55718E+000	9	..........a
	626	15.675	1.39668E-001	-3.78580E-003	0.00000E+000	1.39982E-001	-6.55718E+000	9	..........a
	627	15.7	1.29468E-001	-3.84798E-003	0.00000E+000	1.29984E-001	-6.55718E+000	9	..........a
	628	15.725	1.19468E-001	-3.90599E-003	0.00000E+000	1.19985E-001	-6.55718E+000	9	..........a
	629	15.75	1.09668E-001	-3.96667E-003	0.00000E+000	1.09986E-001	-6.55718E+000	9	..........a
	630	15.775	9.94678E-002	-4.02302E-003	0.00000E+000	9.99874E-002	-6.55718E+000	9	..........a
	631	15.8	8.96678E-002	-4.08070E-003	0.00000E+000	8.99886E-002	-6.55718E+000	9	..........a
	632	15.825	7.96678E-002	-4.13838E-003	0.00000E+000	7.99899E-002	-6.55718E+000	9	..........a
	633	15.85	6.94678E-002	-4.19522E-003	0.00000E+000	6.99912E-002	-6.55718E+000	9	..........a
	634	15.875	5.94678E-002	-4.25023E-003	0.00000E+000	5.99924E-002	-6.55718E+000	9	..........a
	635	15.9	4.92678E-002	-4.30658E-003	0.00000E+000	4.99937E-002	-6.55718E+000	9	..........a
	636	15.925	3.96678E-002	-4.36226E-003	0.00000E+000	3.99949E-002	-6.55718E+000	9	..........a
	637	15.95	2.96678E-002	-4.41777E-003	0.00000E+000	2.99962E-002	-6.55718E+000	9	..........a
	638	15.975	1.94678E-002	-4.47145E-003	0.00000E+000	1.99975E-002	-6.55718E+000	9	..........a
	639	16	9.46784E-003	-4.52777E-003	0.00000E+000	9.99874E-003	-6.55718E+000	10	..........a
	640	16.025	-3.32160E-004	-4.57950E-003	0.00000E+000	0.00000E+000	-6.55718E+000	10	..........a
	641	16.05	-1.05322E-002	-4.63124E-003	0.00000E+000	-9.99874E-003	-6.55718E+000	10	..........a
	642	16.075	-2.03322E-002	-4.68464E-003	0.00000E+000	-1.99975E-002	-6.55718E+000	10	..........a
	643	16.1	-3.05322E-002	-4.73638E-003	0.00000E+000	-2.99962E-002	-6.55718E+000	10	..........a
	644	16.125	-4.03322E-002	-4.78645E-003	0.00000E+000	-3.99949E-002	-6.55718E+000	10	..........a
	645	16.15	-5.05322E-002	-4.83818E-003	0.00000E+000	-4.99937E-002	-6.55718E+000	10	..........a
	646	16.175	-6.03322E-002	-4.89159E-003	0.00000E+000	-5.99924E-002	-6.55718E+000	10	..........a
	647	16.2	-7.05322E-002	-4.94332E-003	0.00000E+000	-6.99912E-002	-6.55718E+000	10	..........a
	648	16.225	-8.03321E-002	-4.99339E-003	0.00000E+000	-7.99899E-002	-6.55718E+000	10	..........a
	649	16.25	-9.01321E-002	-5.04346E-003	0.00000E+000	-8.99886E-002	-6.55718E+000	10	..........a
	650	16.275	-1.00332E-001	-5.09185E-003	0.00000E+000	-9.99874E-002	-6.55718E+000	10	..........a
	651	16.3	-1.10532E-001	-5.14192E-003	0.00000E+000	-1.09986E-001	-6.55718E+000	10	..........a
	652	16.325	-1.20332E-001	-5.19032E-003	0.00000E+000	-1.19985E-001	-6.55718E+000	10	..........a
	653	16.35	-1.30332E-001	-5.23872E-003	0.00000E+000	-1.29984E-001	-6.55718E+000	10	..........a
	654	16.375	-1.40532E-001	-5.28878E-003	0.00000E+000	-1.39982E-001	-6.55718E+000	10	..........a
	655	16.4	-1.50332E-001	-5.33217E-003	0.00000E+000	-1.49981E-001	-6.55718E+000	10	..........a
	656	16.425	-1.60332E-001	-5.38057E-003	0.00000E+000	-1.59980E-001	-6.55718E+000	10	..........a
	657	16.45	-1.70332E-001	-5.42730E-003	0.00000E+000	-1.69979E-001	-6.55718E+000	10	..........a
	658	16.475	-1.80332E-001	-5.47570E-003	0.00000E+000	-1.79977E-001	-6.55718E+000	10	..........a
	659	16.5	-1.90332E-001	-5.52076E-003	0.00000E+000	-1.89976E-001	-6.55718E+000	10	..........a
	660	16.525	-2.00332E-001	-5.56916E-003	0.00000E+000	-1.99975E-001	-6.55718E+000	10	..........a
	661	16.55	-2.10532E-001	-5.61088E-003	0.00000E+000	-2.09973E-001	-6.55718E+000	10	..........a
	662	16.575	-2.20332E-001	-5.65594E-003	0.00000E+000	-2.20022E-001	-6.55718E+000	10	..........a
	663	16.6	-2.30332E-001	-5.70267E-003	0.00000E+000	-2.30021E-001	-6.55718E+000	10	..........a
	664	16.625	-2.40332E-001	-5.74439E-003	0.00000E+000	-2.40020E-001	-6.55718E+000	10	..........a
	665	16.65	-2.50332E-001	-5.78945E-003	0.00000E+000	-2.50018E-001	-6.55718E+000	10	..........a
	666	16.675	-2.60332E-001	-5.83117E-003	0.00000E+000	-2.60017E-001	-6.55718E+000	10	..........a
	667	16.7	-2.70332E-001	-5.87123E-003	0.00000E+000	-2.70016E-001	-6.55718E+000	10	..........a
	668	16.725	-2.80132E-001	-5.91462E-003	0.00000E+000	-2.80015E-001	-6.55718E+000	10	..........a
	669	16.75	-2.90132E-001	-5.95801E-003	0.00000E+000	-2.90013E-001	-6.55718E+000	10	..........a
	670	16.775	-3.00332E-001	-5.99806E-003	0.00000E+000	-3.00012E-001	-6.55718E+000	10	..........a
	671	16.8	-3.10332E-001	-6.03978E-003	0.00000E+000	-3.10011E-001	-6.55718E+000	10	..........a
	672	16.825	-3.20332E-001	-6.08151E-003	0.00000E+000	-3.20010E-001	-6.55718E+000	10	..........a
	673	16.85	-3.30332E-001	-6.12323E-003	0.00000E+000	-3.30008E-001	-6.55718E+000	10	..........a
	674	16.875	-3.40332E-001	-6.15994E-003	0.00000E+000	-3.40007E-001	-6.55718E+000	10	..........a
	675	16.9	-3.50332E-001	-6.20500E-003	0.00000E+000	-3.50006E-001	-6.55718E+000	10	..........a
	676	16.925	-3.60332E-001	-6.24172E-003	0.00000E+000	-3.60005E-001	-6.55718E+000	10	..........a
	677	16.95	-3.70132E-001	-6.28177E-003	0.00000E+000	-3.70003E-001	-6.55718E+000	10	..........a
	678	16.975	-3.80332E-001	-6.32016E-003	0.00000E+000	-3.80002E-001	-6.55718E+000	10	..........a
	679	17	-3.90132E-001	-6.35687E-003	0.00000E+000	-3.90001E-001	-6.55718E+000	10	..........a
	680	17.025	-4.00132E-001	-6.39693E-003	0.00000E+000	-3.99999E-001	-6.55718E+000	10	..........a
	681	17.05	-4.10332E-001	-6.43698E-003	0.00000E+000	-4.09998E-001	-6.55718E+000	10	..........a
	682	17.075	-4.20132E-001	-6.47370E-003	0.00000E+000	-4.19997E-001	-6.55718E+000	10	..........a
	683	17.1	-4.30132E-001	-6.50874E-003	0.00000E+000	-4.29996E-001	-6.55718E+000	10	..........a
	684	17.125	-4.40132E-001	-6.54880E-003	0.00000E+000	-4.39994E-001	-6.55718E+000	10	..........a
	685	17.15	-4.50132E-001	-6.58217E-003	0.00000E+000	-4.49993E-001	-6.55718E+000	10	..........a
	686	17.175	-4.60132E-001	-6.62223E-003	0.00000E+000	-4.59992E-001	-6.55718E+000	10	..........a
	687	17.2	-4.70132E-001	-6.65727E-003	0.00000E+000	-4.69991E-001	-6.55718E+000	10	..........a
	688	17.225	-4.79932E-001	-6.69065E-003	0.00000E+000	-4.79989E-001	-6.55718E+000	10	..........a
	689	17.25	-4.89932E-001	-6.72737E-003	0.00000E+000	-4.89988E-001	-6.55718E+000	10	..........a
	690	17.275	-4.99932E-001	-6.76408E-003	0.00000E+000	-4.99987E-001	-6.55718E+000	10	..........a
	691	17.3	-5.10132E-001	-6.79412E-003	0.00000E+000	-5.09986E-001	-6.55718E+000	10	..........a
	692	17.325	-5.20132E-001	-6.83084E-003	0.00000E+000	-5.19984E-001	-6.55718E+000	10	..........a
	693	17.35	-5.30132E-001	-6.86422E-003	0.00000E+000	-5.29983E-001	-6.55718E+000	10	..........a
	694	17.375	-5.40132E-001	-6.89593E-003	0.00000E+000	-5.39982E-001	-6.55718E+000	10	..........a
	695	17.4	-5.50132E-001	-6.92763E-003	0.00000E+000	-5.49981E-001	-6.55718E+000	10	..........a
	696	17.425	-5.60132E-001	-6.95934E-003	0.00000E+000	-5.59979E-001	-6.55718E+000	10	..........a
	697	17.45	-5.70132E-001	-6.98938E-003	0.00000E+000	-5.69978E-001	-6.55718E+000	10	..........a
	698	17.475	-5.79932E-001	-7.02109E-003	0.00000E+000	-5.79977E-001	-6.55718E+000	10	..........a
	699	17.5	-5.90132E-001	-7.04779E-003	0.00000E+000	-5.89975E-001	-6.55718E+000	10	..........a
	700	17.525	-5.99932E-001	-7.07950E-003	0.00000E+000	-5.99974E-001	-6.55718E+000	10	..........a
	701	17.55	-6.10132E-001	-7.10621E-003	0.00000E+000	-6.09973E-001	-6.55718E+000	10	..........a
	702	17.575	-6.20132E-001	-7.13458E-003	0.00000E+000	-6.20022E-001	-6.55718E+000	10	..........a
	703	17.6	-6.29932E-001	-7.16128E-003	0.00000E+000	-6.30020E-001	-6.55718E+000	10	..........a
	704	17.625	-6.39932E-001	-7.18798E-003	0.00000E+000	-6.40019E-001	-6.55718E+000	10	..........a
	705	17.65	-6.49932E-001	-7.21301E-003	0.00000E+000	-6.50018E-001	-6.55718E+000	10	..........a
	706	17.675	-6.60132E-001	-7.23638E-003	0.00000E+000	-6.60017E-001	-6.55718E+000	10	..........a
	707	17.7	-6.69932E-001	-7.25807E-003	0.00000E+000	-6.70015E-001	-6.55718E+000	10	..........a
	708	17.725	-6.79932E-001	-7.27810E-003	0.00000E+000	-6.80014E-001	-6.55718E+000	10	..........a
	709	17.75	-6.89932E-001	-7.30147E-003	0.00000E+000	-6.90013E-001	-6.55718E+000	10	..........a
	710	17.775	-6.99932E-001	-7.32149E-003	0.00000E+000	-7.00012E-001	-6.55718E+000	10	..........a
	711	17.8	-7.09932E-001	-7.34152E-003	0.00000E+000	-7.10010E-001	-6.55718E+000	10	..........a
	712	17.825	-7.19932E-001	-7.35821E-003	0.00000E+000	-7.20009E-001	-6.55718E+000	10	..........a
	713	17.85	-7.29932E-001	-7.37657E-003	0.00000E+000	-7.30008E-001	-6.55718E+000	10	..........a
	714	17.875	-7.39932E-001	-7.39325E-003	0.00000E+000	-7.40007E-001	-6.55718E+000	10	..........a
	715	17.9	-7.49932E-001	-7.40994E-003	0.00000E+000	-7.50005E-001	-6.55718E+000	10	..........a
	716	17.925	-7.59932E-001	-7.42496E-003	0.00000E+000	-7.60004E-001	-6.55718E+000	10	..........a
	717	17.95	-7.69932E-001	-7.43998E-003	0.00000E+000	-7.70003E-001	-6.55718E+000	10	..........a
	718	17.975	-7.79932E-001	-7.45167E-003	0.00000E+000	-7.80001E-001	-6.55718E+000	10	..........a
	719	18	-7.90132E-001	-7.46335E-003	0.00000E+000	-7.90000E-001	-6.55718E+000	10	..........a
	720	18.025	-7.99932E-001	-7.47837E-003	0.00000E+000	-7.99999E-001	-6.55718E+000	10	..........a
	721	18.05	-7.89732E-001	-6.87256E-003	0.00000E+000	-7.90000E-001	-6.55718E+000	10	..........a
	722	18.075	-7.79932E-001	-6.32516E-003	0.00000E+000	-7.80001E-001	-6.55718E+000	10	..........a
	723	18.1	-7.69932E-001	-5.82450E-003	0.00000E+000	-7.70003E-001	-6.55718E+000	10	..........a
	724	18.125	-7.59932E-001	-5.35888E-003	0.00000E+000	-7.60004E-001	-6.55718E+000	10	..........a
	725	18.15	-7.50132E-001	-4.92830E-003	0.00000E+000	-7.50005E-001	-6.55718E+000	10	..........a
	726	18.175	-7.39932E-001	-4.52610E-003	0.00000E+000	-7.40007E-001	-6.55718E+000	10	..........a
	727	18.2	-7.29932E-001	-4.14893E-003	0.00000E+000	-7.30008E-001	-6.55718E+000	10	..........a
	728	18.225	-7.19932E-001	-3.79179E-003	0.00000E+000	-7.20009E-001	-6.55718E+000	10	..........a
	729	18.25	-7.10132E-001	-3.45557E-003	0.00000E+000	-7.10010E-001	-6.55718E+000	9	..........a
	730	18.275	-6.99932E-001	-3.13900E-003	0.00000E+000	-7.00012E-001	-6.55718E+000	9	..........a
	731	18.3	-6.89932E-001	-2.84027E-003	0.00000E+000	-6.90013E-001	-6.55718E+000	9	..........a
	732	18.325	-6.80132E-001	-2.55454E-003	0.00000E+000	-6.80014E-001	-6.55718E+000	9	..........a
	733	18.35	-6.69932E-001	-2.28432E-003	0.00000E+000	-6.70015E-001	-6.55718E+000	9	..........a
	734	18.375	-6.59932E-001	-2.02743E-003	0.00000E+000	-6.60017E-001	-6.55718E+000	9	..........a
	735	18.4	-6.50132E-001	-1.78155E-003	0.00000E+000	-6.50018E-001	-6.55718E+000	9	..........a
	736	18.425	-6.39932E-001	-1.54633E-003	0.00000E+000	-6.40019E-001	-6.55718E+000	9	..........a
	737	18.45	-6.30132E-001	-1.32112E-003	0.00000E+000	-6.30020E-001	-6.55718E+000	9	..........a
	738	18.475	-6.19932E-001	-1.10524E-003	0.00000E+000	-6.20022E-001	-6.55718E+000	9	..........a
	739	18.5	-6.09932E-001	-8.97195E-004	0.00000E+000	-6.09973E-001	-6.55718E+000	9	..........a
	740	18.525	-5.99932E-001	-6.97486E-004	0.00000E+000	-5.99974E-001	-6.55718E+000	9	..........a
	741	18.55	-5.90132E-001	-5.06113E-004	0.00000E+000	-5.89975E-001	-6.55718E+000	9	..........a
	742	18.575	-5.79932E-001	-3.20907E-004	0.00000E+000	-5.79977E-001	-6.55718E+000	9	..........a
	743	18.6	-5.69932E-001	-1.43241E-004	0.00000E+000	-5.69978E-001	-6.55718E+000	8	..........a
	744	18.625	-5.60132E-001	2.92317E-005	0.00000E+000	-5.59979E-001	-6.55718E+000	8	..........a
	745	18.65	-5.50132E-001	5.47102E-005	0.00000E+000	-5.49981E-001	-6.55718E+000	7	....ih..i.a
	746	18.675	-5.40132E-001	3.56364E-004	0.00000E+000	-5.39982E-001	-6.55718E+000	8	..........a
	747	18.7	-5.30132E-001	5.12476E-004	0.00000E+000	-5.29983E-001	-6.55718E+000	8	.....h....a
	748	18.725	-5.20132E-001	6.64133E-004	0.00000E+000	-5.19984E-001	-6.55718E+000	9	..........a
	749	18.75	-5.10332E-001	8.10497E-004	0.00000E+000	-5.09986E-001	-6.55718E+000	9	..........a
	750	18.775	-4.99932E-001	9.52861E-004	0.00000E+000	-4.99987E-001	-6.55718E+000	9	..........a
	751	18.8	-4.89932E-001	1.09072E-003	0.00000E+000	-4.89988E-001	-6.55718E+000	9	..........a
	752	18.825	-4.80132E-001	1.22325E-003	0.00000E+000	-4.79989E-001	-6.55718E+000	9	..........a
	753	18.85	-4.70132E-001	1.35261E-003	0.00000E+000	-4.69991E-001	-6.55718E+000	9	..........a
	754	18.875	-4.59932E-001	1.47880E-003	0.00000E+000	-4.59992E-001	-6.55718E+000	9	..........a
	755	18.9	-4.50132E-001	1.60100E-003	0.00000E+000	-4.49993E-001	-6.55718E+000	9	..........a
	756	18.925	-4.40132E-001	1.71919E-003	0.00000E+000	-4.39994E-001	-6.55718E+000	9	..........a
	757	18.95	-4.30132E-001	1.83388E-003	0.00000E+000	-4.29996E-001	-6.55718E+000	9	..........a
	758	18.975	-4.20332E-001	1.94724E-003	0.00000E+000	-4.19997E-001	-6.55718E+000	9	..........a
	759	19	-4.10132E-001	2.05576E-003	0.00000E+000	-4.09998E-001	-6.55718E+000	9	..........a
	760	19.025	-4.00332E-001	2.16178E-003	0.00000E+000	-3.99999E-001	-6.55718E+000	9	..........a
	761	19.05	-3.90132E-001	2.26547E-003	0.00000E+000	-3.90001E-001	-6.55718E+000	9	..........a
	762	19.075	-3.80332E-001	2.36549E-003	0.00000E+000	-3.80002E-001	-6.55718E+000	9	..........a
	763	19.1	-3.70332E-001	2.46434E-003	0.00000E+000	-3.70003E-001	-6.55718E+000	9	..........a
	764	19.125	-3.60132E-001	2.55886E-003	0.00000E+000	-3.60005E-001	-6.55718E+000	9	..........a
	765	19.15	-3.50132E-001	2.65155E-003	0.00000E+000	-3.50006E-001	-6.55718E+000	9	..........a
	766	19.175	-3.40332E-001	2.74124E-003	0.00000E+000	-3.40007E-001	-6.55718E+000	9	..........a
	767	19.2	-3.30332E-001	2.82975E-003	0.00000E+000	-3.30008E-001	-6.55718E+000	9	..........a
	768	19.225	-3.20332E-001	2.91561E-003	0.00000E+000	-3.20010E-001	-6.55718E+000	9	..........a
	769	19.25	-3.10132E-001	2.99962E-003	0.00000E+000	-3.10011E-001	-6.55718E+000	9	..........a
	770	19.275	-3.00332E-001	3.08097E-003	0.00000E+000	-3.00012E-001	-6.55718E+000	9	..........a
	771	19.3	-2.90332E-001	3.16166E-003	0.00000E+000	-2.90013E-001	-6.55718E+000	9	..........a
	772	19.325	-2.80332E-001	3.23884E-003	0.00000E+000	-2.80015E-001	-6.55718E+000	9	..........a
	773	19.35	-2.70332E-001	3.31586E-003	0.00000E+000	-2.70016E-001	-6.55718E+000	9	..........a
	774	19.375	-2.60332E-001	3.38987E-003	0.00000E+000	-2.60017E-001	-6.55718E+000	9	..........a
	775	19.4	-2.50332E-001	3.46222E-003	0.00000E+000	-2.50018E-001	-6.55718E+000	9	..........a
	776	19.425	-2.40532E-001	3.53390E-003	0.00000E+000	-2.40020E-001	-6.55718E+000	9	..........a
	777	19.45	-2.30332E-001	3.60592E-003	0.00000E+000	-2.30021E-001	-6.55718E+000	9	..........a
	778	19.475	-2.20332E-001	3.67393E-003	0.00000E+000	-2.20022E-001	-6.55718E+000	9	..........a
	779	19.5	-2.10332E-001	3.74311E-003	0.00000E+000	-2.09973E-001	-6.55718E+000	9	..........a
	780	19.525	-2.00332E-001	3.80746E-003	0.00000E+000	-1.99975E-001	-6.55718E+000	9	..........a
	781	19.55	-1.90332E-001	3.87347E-003	0.00000E+000	-1.89976E-001	-6.55718E+000	9	..........a
	782	19.575	-1.80532E-001	3.93649E-003	0.00000E+000	-1.79977E-001	-6.55718E+000	9	..........a
	783	19.6	-1.70332E-001	3.99900E-003	0.00000E+000	-1.69979E-001	-6.55718E+000	9	..........a
	784	19.625	-1.60332E-001	4.06218E-003	0.00000E+000	-1.59980E-001	-6.55718E+000	9	..........a
	785	19.65	-1.50532E-001	4.12253E-003	0.00000E+000	-1.49981E-001	-6.55718E+000	9	..........a
	786	19.675	-1.40532E-001	4.18171E-003	0.00000E+000	-1.39982E-001	-6.55718E+000	9	..........a
	787	19.7	-1.30532E-001	4.23938E-003	0.00000E+000	-1.29984E-001	-6.55718E+000	9	..........a
	788	19.725	-1.20532E-001	4.29690E-003	0.00000E+000	-1.19985E-001	-6.55718E+000	9	..........a
	789	19.75	-1.10332E-001	4.35341E-003	0.00000E+000	-1.09986E-001	-6.55718E+000	9	..........a
	790	19.775	-1.00332E-001	4.40959E-003	0.00000E+000	-9.99874E-002	-6.55718E+000	9	..........a
	791	19.8	-9.05321E-002	4.46426E-003	0.00000E+000	-8.99886E-002	-6.55718E+000	9	..........a
	792	19.825	-8.05321E-002	4.51429E-003	0.00000E+000	-7.99899E-002	-6.55718E+000	10	..........a
	793	19.85	-7.05322E-002	4.56936E-003	0.00000E+000	-6.99912E-002	-6.55718E+000	10	..........a
	794	19.875	-6.03322E-002	4.61943E-003	0.00000E+000	-5.99924E-002	-6.55718E+000	10	..........a
	795	19.9	-5.05322E-002	4.67283E-003	0.00000E+000	-4.99937E-002	-6.55718E+000	10	..........a
	796	19.925	-4.03322E-002	4.72457E-003	0.00000E+000	-3.99949E-002	-6.55718E+000	10	..........a
	797	19.95	-3.03322E-002	4.77464E-003	0.00000E+000	-2.99962E-002	-6.55718E+000	10	..........a
	798	19.975	-2.03322E-002	4.82303E-003	0.00000E+000	-1.99975E-002	-6.55718E+000	10	..........a
	799	20	-1.05322E-002	4.87310E-003	0.00000E+000	-9.99874E-003	-6.55718E+000	10	..........a
	800	20.025	-3.32160E-004	4.92150E-003	0.00000E+000	0.00000E+000	-6.55718E+000	10	..........a
	801	20.05	9.66784E-003	4.96990E-003	0.00000E+000	9.99874E-003	-6.55718E+000	10	..........a
	802	20.075	1.94678E-002	5.01662E-003	0.00000E+000	1.99975E-002	-6.55718E+000	10	..........a
	803	20.1	2.94678E-002	5.06168E-003	0.00000E+000	2.99962E-002	-6.55718E+000	10	..........a
	804	20.125	3.94678E-002	5.10508E-003	0.00000E+000	3.99949E-002	-6.55718E+000	10	..........a
	805	20.15	4.94678E-002	5.15347E-003	0.00000E+000	4.99937E-002	-6.55718E+000	10	..........a
	806	20.175	5.94678E-002	5.19687E-003	0.00000E+000	5.99924E-002	-6.55718E+000	10	..........a
	807	20.2	6.94678E-002	5.23859E-003	0.00000E+000	6.99912E-002	-6.55718E+000	10	..........a
	808	20.225	7.94678E-002	5.28365E-003	0.00000E+000	7.99899E-002	-6.55718E+000	10	..........a
	809	20.25	8.94678E-002	5.32537E-003	0.00000E+000	8.99886E-002	-6.55718E+000	10	..........a
	810	20.275	9.92678E-002	5.36876E-003	0.00000E+000	9.99874E-002	-6.55718E+000	10	..........a
	811	20.3	1.09268E-001	5.40715E-003	0.00000E+000	1.09986E-001	-6.55718E+000	10	..........a
	812	20.325	1.19268E-001	5.44887E-003	0.00000E+000	1.19985E-001	-6.55718E+000	10	..........a
	813	20.35	1.29468E-001	5.48892E-003	0.00000E+000	1.29984E-001	-6.55718E+000	10	..........a
	814	20.375	1.39468E-001	5.52564E-003	0.00000E+000	1.39982E-001	-6.55718E+000	10	..........a
	815	20.4	1.49468E-001	5.56402E-003	0.00000E+000	1.49981E-001	-6.55718E+000	10	..........a
	816	20.425	1.59268E-001	5.60408E-003	0.00000E+000	1.59980E-001	-6.55718E+000	10	..........a
	817	20.45	1.69468E-001	5.63745E-003	0.00000E+000	1.69979E-001	-6.55718E+000	10	..........a
	818	20.475	1.79468E-001	5.67250E-003	0.00000E+000	1.79977E-001	-6.55718E+000	10	..........a
	819	20.5	1.89668E-001	5.70922E-003	0.00000E+000	1.90026E-001	-6.55718E+000	10	..........a
	820	20.525	1.99468E-001	5.74426E-003	0.00000E+000	2.00025E-001	-6.55718E+000	10	..........a
	821	20.55	2.09468E-001	5.77764E-003	0.00000E+000	2.10023E-001	-6.55718E+000	10	..........a
	822	20.575	2.19268E-001	5.80935E-003	0.00000E+000	2.20022E-001	-6.55718E+000	10	..........a
	823	20.6	2.29468E-001	5.83939E-003	0.00000E+000	2.30021E-001	-6.55718E+000	10	..........a
	824	20.625	2.39468E-001	5.87277E-003	0.00000E+000	2.40020E-001	-6.55718E+000	10	..........a
	825	20.65	2.49468E-001	5.90114E-003	0.00000E+000	2.50018E-001	-6.55718E+000	10	..........a
	826	20.675	2.59468E-001	5.93452E-003	0.00000E+000	2.60017E-001	-6.55718E+000	10	..........a
	827	20.7	2.69468E-001	5.96122E-003	0.00000E+000	2.70016E-001	-6.55718E+000	10	..........a
	828	20.725	2.79468E-001	5.98959E-003	0.00000E+000	2.80015E-001	-6.55718E+000	10	..........a
	829	20.75	2.89468E-001	6.01629E-003	0.00000E+000	2.90013E-001	-6.55718E+000	10	..........a
	830	20.775	2.99268E-001	6.04633E-003	0.00000E+000	3.00012E-001	-6.55718E+000	10	..........a
	831	20.8	3.09468E-001	6.06970E-003	0.00000E+000	3.10011E-001	-6.55718E+000	10	..........a
	832	20.825	3.19468E-001	6.09807E-003	0.00000E+000	3.20010E-001	-6.55718E+000	10	..........a
	833	20.85	3.29268E-001	6.12143E-003	0.00000E+000	3.30008E-001	-6.55718E+000	10	..........a
	834	20.875	3.39468E-001	6.14646E-003	0.00000E+000	3.40007E-001	-6.55718E+000	10	..........a
	835	20.9	3.49268E-001	6.16983E-003	0.00000E+000	3.50006E-001	-6.55718E+000	10	..........a
	836	20.925	3.59268E-001	6.19319E-003	0.00000E+000	3.60005E-001	-6.55718E+000	10	..........a
	837	20.95	3.69268E-001	6.21823E-003	0.00000E+000	3.70003E-001	-6.55718E+000	10	..........a
	838	20.975	3.79268E-001	6.23825E-003	0.00000E+000	3.80002E-001	-6.55718E+000	10	..........a
	839	21	3.89268E-001	6.26162E-003	0.00000E+000	3.90001E-001	-6.55718E+000	10	..........a
	840	21.025	3.99268E-001	6.28165E-003	0.00000E+000	3.99999E-001	-6.55718E+000	10	..........a
	841	21.05	4.09268E-001	6.30334E-003	0.00000E+000	4.09998E-001	-6.55718E+000	10	..........a
	842	21.075	4.19068E-001	6.32170E-003	0.00000E+000	4.19997E-001	-6.55718E+000	10	..........a
	843	21.1	4.29068E-001	6.34006E-003	0.00000E+000	4.29996E-001	-6.55718E+000	10	..........a
	844	21.125	4.39268E-001	6.36175E-003	0.00000E+000	4.39994E-001	-6.55718E+000	10	..........a
	845	21.15	4.49268E-001	6.37510E-003	0.00000E+000	4.49993E-001	-6.55718E+000	10	..........a
	846	21.175	4.59068E-001	6.39346E-003	0.00000E+000	4.59992E-001	-6.55718E+000	10	..........a
	847	21.2	4.69068E-001	6.41182E-003	0.00000E+000	4.69991E-001	-6.55718E+000	10	..........a
	848	21.225	4.79068E-001	6.43018E-003	0.00000E+000	4.79989E-001	-6.55718E+000	10	..........a
	849	21.25	4.89268E-001	6.44520E-003	0.00000E+000	4.89988E-001	-6.55718E+000	10	..........a
	850	21.275	4.99268E-001	6.46189E-003	0.00000E+000	4.99987E-001	-6.55718E+000	10	..........a
	851	21.3	5.09268E-001	6.47691E-003	0.00000E+000	5.09986E-001	-6.55718E+000	10	..........a
	852	21.325	5.19268E-001	6.48859E-003	0.00000E+000	5.19984E-001	-6.55718E+000	10	..........a
	853	21.35	5.29268E-001	6.50361E-003	0.00000E+000	5.29983E-001	-6.55718E+000	10	..........a
	854	21.375	5.39068E-001	6.51696E-003	0.00000E+000	5.39982E-001	-6.55718E+000	10	..........a
	855	21.4	5.49068E-001	6.53031E-003	0.00000E+000	5.49981E-001	-6.55718E+000	10	..........a
	856	21.425	5.59268E-001	6.54032E-003	0.00000E+000	5.59979E-001	-6.55718E+000	10	..........a
	857	21.45	5.69268E-001	6.54867E-003	0.00000E+000	5.69978E-001	-6.55718E+000	10	..........a
	858	21.475	5.79068E-001	6.56035E-003	0.00000E+000	5.79977E-001	-6.55718E+000	10	..........a
	859	21.5	5.89268E-001	6.56869E-003	0.00000E+000	5.89975E-001	-6.55718E+000	10	..........a
	860	21.525	5.99268E-001	6.57871E-003	0.00000E+000	6.00024E-001	-6.55718E+000	10	..........a
	861	21.55	6.09068E-001	6.58538E-003	0.00000E+000	6.10023E-001	-6.55718E+000	10	..........a
	862	21.575	6.19068E-001	6.59206E-003	0.00000E+000	6.20022E-001	-6.55718E+000	10	..........a
	863	21.6	6.29068E-001	6.60040E-003	0.00000E+000	6.30020E-001	-6.55718E+000	10	..........a
	864	21.625	6.39068E-001	6.60374E-003	0.00000E+000	6.40019E-001	-6.55718E+000	10	..........a
	865	21.65	6.49068E-001	6.61042E-003	0.00000E+000	6.50018E-001	-6.55718E+000	10	..........a
	866	21.675	6.59068E-001	6.61375E-003	0.00000E+000	6.60017E-001	-6.55718E+000	10	..........a
	867	21.7	6.69068E-001	6.61876E-003	0.00000E+000	6.70015E-001	-6.55718E+000	10	..........a
	868	21.725	6.79268E-001	6.62210E-003	0.00000E+000	6.80014E-001	-6.55718E+000	10	..........a
	869	21.75	6.89068E-001	6.62544E-003	0.00000E+000	6.90013E-001	-6.55718E+000	10	..........a
	870	21.775	6.99068E-001	6.62711E-003	0.00000E+000	7.00012E-001	-6.55718E+000	10	..........a
	871	21.8	7.09068E-001	6.62711E-003	0.00000E+000	7.10010E-001	-6.55718E+000	10	..........a
	872	21.825	7.19268E-001	6.63044E-003	0.00000E+000	7.20009E-001	-6.55718E+000	10	..........a
	873	21.85	7.29068E-001	6.62877E-003	0.00000E+000	7.30008E-001	-6.55718E+000	10	..........a
	874	21.875	7.39068E-001	6.62877E-003	0.00000E+000	7.40007E-001	-6.55718E+000	10	..........a
	875	21.9	7.49268E-001	6.62877E-003	0.00000E+000	7.50005E-001	-6.55718E+000	10	..........a
	876	21.925	7.59068E-001	6.62877E-003	0.00000E+000	7.60004E-001	-6.55718E+000	10	..........a
	877	21.95	7.69068E-001	6.63044E-003	0.00000E+000	7.70003E-001	-6.55718E+000	10	..........a
	878	21.975	7.79068E-001	6.62711E-003	0.00000E+000	7.80001E-001	-6.55718E+000	10	..........a
	879	22	7.89068E-001	6.62877E-003	0.00000E+000	7.90000E-001	-6.55718E+000	10	..........a
	880	22.025	7.98868E-001	6.62877E-003	0.00000E+000	7.99999E-001	-6.55718E+000	10	..........a
CURVE4	TABLE
	Pt	T	Vf	Im	Vu	Sig	Ach	IERange	Over
	#	s	V vs. Ref.	A	V	V	V	#	bits
	881	22.05	7.89068E-001	6.08638E-003	0.00000E+000	7.90000E-001	-6.55718E+000	10	..........a
	882	22.075	7.79068E-001	5.59740E-003	0.00000E+000	7.80001E-001	-6.55718E+000	10	..........a
	883	22.1	7.69068E-001	5.14847E-003	0.00000E+000	7.70003E-001	-6.55718E+000	10	..........a
	884	22.125	7.59068E-001	4.73625E-003	0.00000E+000	7.60004E-001	-6.55718E+000	10	..........a
	885	22.15	7.49068E-001	4.35241E-003	0.00000E+000	7.50005E-001	-6.55718E+000	10	..........a
	886	22.175	7.39068E-001	3.99693E-003	0.00000E+000	7.40007E-001	-6.55718E+000	10	..........a
	887	22.2	7.29268E-001	3.66610E-003	0.00000E+000	7.30008E-001	-6.55718E+000	9	..........a
	888	22.225	7.19068E-001	3.35370E-003	0.00000E+000	7.20009E-001	-6.55718E+000	9	..........a
	889	22.25	7.09068E-001	3.05830E-003	0.00000E+000	7.10010E-001	-6.55718E+000	9	..........a
	890	22.275	6.98868E-001	2.78241E-003	0.00000E+000	7.00012E-001	-6.55718E+000	9	..........a
	891	22.3	6.89068E-001	2.51936E-003	0.00000E+000	6.90013E-001	-6.55718E+000	9	..........a
	892	22.325	6.79068E-001	2.27114E-003	0.00000E+000	6.80014E-001	-6.55718E+000	9	..........a
	893	22.35	6.69068E-001	2.03425E-003	0.00000E+000	6.70015E-001	-6.55718E+000	9	..........a
	894	22.375	6.59068E-001	1.81054E-003	0.00000E+000	6.60017E-001	-6.55718E+000	9	..........a
	895	22.4	6.49068E-001	1.59750E-003	0.00000E+000	6.50018E-001	-6.55718E+000	9	..........a
	896	22.425	6.39268E-001	1.39262E-003	0.00000E+000	6.40019E-001	-6.55718E+000	9	..........a
	897	22.45	6.29068E-001	1.19691E-003	0.00000E+000	6.30020E-001	-6.55718E+000	9	..........a
	898	22.475	6.19068E-001	1.01021E-003	0.00000E+000	6.20022E-001	-6.55718E+000	9	..........a
	899	22.5	6.09268E-001	8.30835E-004	0.00000E+000	6.10023E-001	-6.55718E+000	9	..........a
	900	22.525	5.99268E-001	6.57965E-004	0.00000E+000	6.00024E-001	-6.55718E+000	9	..........a
	901	22.55	5.89068E-001	4.90763E-004	0.00000E+000	5.89975E-001	-6.55718E+000	9	..........a
	902	22.575	5.79268E-001	3.30563E-004	0.00000E+000	5.79977E-001	-6.55718E+000	9	..........a
	903	22.6	5.69068E-001	1.75527E-004	0.00000E+000	5.69978E-001	-6.55718E+000	8	..........a
	904	22.625	5.59068E-001	2.57426E-005	0.00000E+000	5.59979E-001	-6.55718E+000	8	..........a
	905	22.65	5.49268E-001	-5.47454E-005	0.00000E+000	5.49981E-001	-6.55718E+000	7	....ih..i.a
	906	22.675	5.39268E-001	-2.57917E-004	0.00000E+000	5.39982E-001	-6.55718E+000	8	..........a
	907	22.7	5.29268E-001	-3.93744E-004	0.00000E+000	5.29983E-001	-6.55718E+000	8	..........a
	908	22.725	5.19068E-001	-5.25616E-004	0.00000E+000	5.19984E-001	-6.55718E+000	8	....ih....a
	909	22.75	5.09068E-001	-6.52977E-004	0.00000E+000	5.09986E-001	-6.55718E+000	9	..........a
	910	22.775	4.99068E-001	-7.77503E-004	0.00000E+000	4.99987E-001	-6.55718E+000	9	..........a
	911	22.8	4.89068E-001	-8.98028E-004	0.00000E+000	4.89988E-001	-6.55718E+000	9	..........a
	912	22.825	4.79268E-001	-1.01572E-003	0.00000E+000	4.79989E-001	-6.55718E+000	9	..........a
	913	22.85	4.69268E-001	-1.13008E-003	0.00000E+000	4.69991E-001	-6.55718E+000	9	..........a
	914	22.875	4.59068E-001	-1.24143E-003	0.00000E+000	4.59992E-001	-6.55718E+000	9	..........a
	915	22.9	4.49268E-001	-1.34979E-003	0.00000E+000	4.49993E-001	-6.55718E+000	9	..........a
	916	22.925	4.39068E-001	-1.45581E-003	0.00000E+000	4.39994E-001	-6.55718E+000	9	..........a
	917	22.95	4.29268E-001	-1.55883E-003	0.00000E+000	4.29996E-001	-6.55718E+000	9	..........a
	918	22.975	4.19268E-001	-1.65869E-003	0.00000E+000	4.19997E-001	-6.55718E+000	9	..........a
	919	23	4.09268E-001	-1.75821E-003	0.00000E+000	4.09998E-001	-6.55718E+000	9	..........a
	920	23.025	3.99268E-001	-1.85306E-003	0.00000E+000	3.99999E-001	-6.55718E+000	9	..........a
	921	23.05	3.89268E-001	-1.94708E-003	0.00000E+000	3.90001E-001	-6.55718E+000	9	..........a
	922	23.075	3.79268E-001	-2.03860E-003	0.00000E+000	3.80002E-001	-6.55718E+000	9	..........a
	923	23.1	3.69468E-001	-2.12712E-003	0.00000E+000	3.70003E-001	-6.55718E+000	9	..........a
	924	23.125	3.59268E-001	-2.21581E-003	0.00000E+000	3.60005E-001	-6.55718E+000	9	..........a
	925	23.15	3.49468E-001	-2.30099E-003	0.00000E+000	3.50006E-001	-6.55718E+000	9	..........a
	926	23.175	3.39268E-001	-2.38534E-003	0.00000E+000	3.40007E-001	-6.55718E+000	9	..........a
	927	23.2	3.29268E-001	-2.46652E-003	0.00000E+000	3.30008E-001	-6.55718E+000	9	..........a
	928	23.225	3.19468E-001	-2.54637E-003	0.00000E+000	3.20010E-001	-6.55718E+000	9	..........a
	929	23.25	3.09468E-001	-2.62522E-003	0.00000E+000	3.10011E-001	-6.55718E+000	9	..........a
	930	23.275	2.99468E-001	-2.70191E-003	0.00000E+000	3.00012E-001	-6.55718E+000	9	..........a
	931	23.3	2.89268E-001	-2.77759E-003	0.00000E+000	2.90013E-001	-6.55718E+000	9	..........a
	932	23.325	2.79468E-001	-2.85194E-003	0.00000E+000	2.80015E-001	-6.55718E+000	9	..........a
	933	23.35	2.69668E-001	-2.92462E-003	0.00000E+000	2.70016E-001	-6.55718E+000	9	..........a
	934	23.375	2.59468E-001	-2.99714E-003	0.00000E+000	2.60017E-001	-6.55718E+000	9	..........a
	935	23.4	2.49468E-001	-3.06798E-003	0.00000E+000	2.50018E-001	-6.55718E+000	9	..........a
	936	23.425	2.39468E-001	-3.13667E-003	0.00000E+000	2.40020E-001	-6.55718E+000	9	..........a
	937	23.45	2.29268E-001	-3.20568E-003	0.00000E+000	2.30021E-001	-6.55718E+000	9	..........a
	938	23.475	2.19268E-001	-3.27353E-003	0.00000E+000	2.20022E-001	-6.55718E+000	9	..........a
	939	23.5	2.09468E-001	-3.33754E-003	0.00000E+000	2.10023E-001	-6.55718E+000	9	..........a
	940	23.525	1.99468E-001	-3.40489E-003	0.00000E+000	2.00025E-001	-6.55718E+000	9	..........a
	941	23.55	1.89468E-001	-3.46873E-003	0.00000E+000	1.90026E-001	-6.55718E+000	9	..........a
	942	23.575	1.79468E-001	-3.53392E-003	0.00000E+000	1.79977E-001	-6.55718E+000	9	..........a
	943	23.6	1.69268E-001	-3.59593E-003	0.00000E+000	1.69979E-001	-6.55718E+000	9	..........a
	944	23.625	1.59468E-001	-3.65777E-003	0.00000E+000	1.59980E-001	-6.55718E+000	9	..........a
	945	23.65	1.49468E-001	-3.71862E-003	0.00000E+000	1.49981E-001	-6.55718E+000	9	..........a
	946	23.675	1.39468E-001	-3.78030E-003	0.00000E+000	1.39982E-001	-6.55718E+000	9	..........a
	947	23.7	1.29468E-001	-3.83915E-003	0.00000E+000	1.29984E-001	-6.55718E+000	9	..........a
	948	23.725	1.19668E-001	-3.89766E-003	0.00000E+000	1.19985E-001	-6.55718E+000	9	..........a
	949	23.75	1.09668E-001	-3.95750E-003	0.00000E+000	1.09986E-001	-6.55718E+000	9	..........a
	950	23.775	9.94678E-002	-4.01535E-003	0.00000E+000	9.99874E-002	-6.55718E+000	9	..........a
	951	23.8	8.94678E-002	-4.07370E-003	0.00000E+000	8.99886E-002	-6.55718E+000	9	..........a
	952	23.825	7.92678E-002	-4.13037E-003	0.00000E+000	7.99899E-002	-6.55718E+000	9	..........a
	953	23.85	6.96678E-002	-4.18605E-003	0.00000E+000	6.99912E-002	-6.55718E+000	9	..........a
	954	23.875	5.94678E-002	-4.24156E-003	0.00000E+000	5.99924E-002	-6.55718E+000	9	..........a
	955	23.9	4.94678E-002	-4.29808E-003	0.00000E+000	4.99937E-002	-6.55718E+000	9	..........a
	956	23.925	3.96678E-002	-4.35342E-003	0.00000E+000	3.99949E-002	-6.55718E+000	9	..........a
	957	23.95	2.96678E-002	-4.40877E-003	0.00000E+000	2.99962E-002	-6.55718E+000	9	..........a
	958	23.975	1.94678E-002	-4.46344E-003	0.00000E+000	1.99975E-002	-6.55718E+000	9	..........a
	959	24	9.46784E-003	-4.51942E-003	0.00000E+000	9.99874E-003	-6.55718E+000	10	..........a
	960	24.025	-5.32160E-004	-4.57116E-003	0.00000E+000	0.00000E+000	-6.55718E+000	10	..........a
